792.44574,867
792.56488,864
792.68396,895
792.80304,890
792.92218,815
793.041199,813
793.160339,783
793.279419,799
793.398499,769
793.517578,766
793.636658,748
793.755737,774
793.874817,795
793.993896,752
794.112976,734
794.232056,734
794.351074,722
794.470215,698
794.589233,697
794.708313,691
794.827393,671
794.946411,687
795.065552,674
795.18457,663
795.303589,685
795.422668,673
795.541687,672
795.660767,644
795.779846,664
795.898865,646
796.017883,642
796.136963,640
796.255981,642
796.375061,636
796.49408,637
796.613037,623
796.732117,628
796.851135,620
796.970154,611
797.089233,629
797.208191,640
797.327271,593
797.446228,603
797.565186,628
797.684265,600
797.803223,607
797.922241,596
798.04126,618
798.160278,584
798.279297,615
798.398315,614
798.517273,613
798.636292,582
798.75531,594
798.874268,586
798.993286,578
799.112244,595
799.231323,571
799.350281,592
799.469238,586
799.588257,580
799.707153,595
799.826111,597
799.945129,588
800.064087,591
800.183044,599
800.302063,558
800.421021,583
800.539978,593
800.658936,563
800.777893,577
800.896912,589
801.015747,556
801.134705,584
801.253723,550
801.37262,573
801.491638,575
801.610535,600
801.729492,547
801.84845,546
801.967407,558
802.086243,565
802.205261,554
802.324158,550
802.443115,578
802.562073,589
802.680969,555
802.799927,541
802.918762,555
803.037659,568
803.156677,554
803.275574,575
803.39447,583
803.513428,558
803.632263,554
803.751221,577
803.870117,547
803.989014,534
804.107971,556
804.226746,553
804.345642,568
804.4646,572
804.583496,555
804.702393,529
804.821228,542
804.940125,546
805.059021,548
805.177917,571
805.296814,546
805.415649,558
805.534546,542
805.653442,565
805.772278,580
805.891113,562
806.01001,540
806.128906,570
806.247742,565
806.366577,553
806.485413,560
806.604309,575
806.723145,533
806.84198,561
806.960876,528
807.079712,542
807.198486,567
807.317383,573
807.436218,530
807.554993,547
807.673889,548
807.792725,564
807.91156,536
808.030396,529
808.14917,543
808.268005,564
808.386841,544
808.505676,573
808.624451,573
808.743286,539
808.862122,549
808.980896,551
809.099731,538
809.218506,545
809.337341,571
809.456116,556
809.57489,542
809.693726,553
809.8125,552
809.931274,539
810.050049,572
810.168884,556
810.287659,560
810.406372,565
810.525269,540
810.643982,545
810.762756,548
810.881531,548
811.000305,556
811.11908,554
811.237854,562
811.356567,566
811.475403,555
811.594116,559
811.71283,557
811.831604,566
811.950378,534
812.069153,583
812.187927,512
812.30658,537
812.425415,562
812.544128,560
812.662781,545
812.781616,555
812.900269,566
813.019043,565
813.137756,559
813.256531,539
813.375244,553
813.493896,562
813.612671,538
813.731384,549
813.850037,546
813.96875,553
814.087524,538
814.206238,539
814.324951,569
814.443604,562
814.562256,557
814.68103,559
814.799683,555
814.918335,570
815.037109,549
815.155762,553
815.274475,541
815.393188,567
815.511841,538
815.630554,531
815.749146,531
815.867859,537
815.986572,548
816.105164,536
816.223877,532
816.342529,555
816.461182,537
816.579895,517
816.698486,563
816.817139,562
816.935791,531
817.054504,553
817.173096,553
817.291748,559
817.4104,518
817.529053,550
817.647644,539
817.766235,516
817.884949,530
818.00354,539
818.122192,527
818.240845,521
818.359436,527
818.478088,526
818.59668,514
818.715271,511
818.833923,514
818.952515,512
819.071106,533
819.189758,509
819.30835,489
819.426941,503
819.545532,503
819.664124,502
819.782715,494
819.901306,504
820.019897,474
820.138489,494
820.25708,505
820.375671,488
820.494202,489
820.612732,496
820.731384,496
820.849915,505
820.968506,481
821.087097,465
821.205627,476
821.324158,506
821.442749,479
821.561279,484
821.679871,491
821.798401,473
821.916931,487
822.035461,493
822.154053,486
822.272583,486
822.391174,491
822.509583,472
822.628174,486
822.746704,478
822.865234,464
822.983765,481
823.102295,496
823.220825,470
823.339294,478
823.457825,490
823.576355,463
823.694824,489
823.813354,486
823.931885,479
824.050354,472
824.168884,489
824.287354,478
824.405823,485
824.524353,506
824.642822,492
824.761353,473
824.879822,480
824.998291,477
825.116699,494
825.235291,475
825.353699,474
825.472168,473
825.590637,487
825.709106,479
825.827576,475
825.946045,462
826.064453,496
826.182983,460
826.301392,464
826.4198,465
826.53833,459
826.656738,473
826.775208,472
826.893677,471
827.012024,460
827.130493,485
827.248962,473
827.36731,481
827.485779,485
827.604248,466
827.722595,465
827.841064,482
827.959412,470
828.077942,474
828.196289,465
828.314636,464
828.433105,462
828.551514,473
828.669861,451
828.78833,474
828.906677,461
829.025085,476
829.143433,476
829.261841,461
829.38031,494
829.498657,456
829.617004,479
829.735413,493
829.85376,485
829.972107,460
830.090515,479
830.208862,461
830.327209,472
830.445557,477
830.563904,456
830.682312,462
830.800659,482
830.919006,458
831.037354,482
831.155701,495
831.274048,460
831.392395,480
831.51062,471
831.629028,468
831.747314,464
831.865662,453
831.984009,474
832.102356,456
832.220642,480
832.338928,470
832.457275,477
832.575623,477
832.693909,490
832.812134,477
832.930481,485
833.048828,456
833.167114,488
833.2854,451
833.403687,470
833.521973,462
833.640259,469
833.758545,467
833.876831,485
833.995056,463
834.113281,468
834.231628,472
834.349915,457
834.468201,470
834.586426,472
834.704651,461
834.822998,466
834.941162,489
835.059448,461
835.177673,472
835.295959,474
835.414246,460
835.53241,469
835.650635,447
835.768921,479
835.887146,467
836.005371,477
836.123596,476
836.241821,464
836.360046,482
836.478271,472
836.596497,464
836.714722,472
836.832886,451
836.95105,462
837.069336,486
837.1875,487
837.305725,471
837.423889,469
837.542053,482
837.660339,484
837.778503,468
837.896667,473
838.014832,466
838.132996,457
838.25116,454
838.369385,484
838.487488,490
838.605713,458
838.723877,479
838.84198,489
838.960205,503
839.078308,485
839.196472,485
839.314636,475
839.4328,482
839.550964,468
839.669067,487
839.787231,460
839.905396,469
840.023499,481
840.141602,483
840.259766,495
840.377869,480
840.495972,495
840.614136,492
840.732239,493
840.850342,469
840.968445,504
841.086548,500
841.204651,492
841.322754,488
841.440918,488
841.55896,504
841.677002,488
841.795166,520
841.913208,498
842.031311,493
842.149353,502
842.267456,500
842.385498,510
842.503601,498
842.621643,494
842.739746,478
842.857788,473
842.97583,494
843.093933,496
843.211975,486
843.330017,467
843.44812,506
843.566101,487
843.684204,499
843.802246,506
843.920227,490
844.038269,501
844.156311,491
844.274292,497
844.392395,510
844.510376,487
844.628357,500
844.74646,494
844.864441,487
844.982422,507
845.100403,489
845.218384,482
845.336426,499
845.454468,485
845.572449,480
845.69043,489
845.808411,480
845.926453,464
846.044373,502
846.162354,490
846.280396,490
846.398315,500
846.516296,512
846.634216,503
846.752197,479
846.870178,498
846.988098,502
847.106079,508
847.22406,472
847.34198,464
847.4599,480
847.577881,475
847.695801,489
847.813782,464
847.931641,497
848.049561,498
848.167603,494
848.285461,493
848.403381,502
848.521362,500
848.639221,485
848.75708,493
848.875,477
848.99292,494
849.110901,491
849.22876,491
849.34668,492
849.464539,507
849.582458,501
849.700317,475
849.818176,480
849.936096,495
850.053955,487
850.171875,502
850.289673,475
850.407593,482
850.525452,501
850.643311,493
850.761169,475
850.878967,473
850.996887,483
851.114746,500
851.232544,487
851.350403,488
851.468262,501
851.58606,490
851.703979,493
851.821777,503
851.939636,496
852.057434,485
852.175232,483
852.293091,489
852.410889,519
852.528687,488
852.646545,517
852.764343,493
852.88208,485
852.999939,505
853.117676,478
853.235535,502
853.353271,486
853.471069,507
853.588928,478
853.706604,479
853.824402,491
853.9422,499
854.059998,477
854.177734,504
854.295532,481
854.413269,491
854.531006,478
854.648804,513
854.766541,490
854.884277,472
855.002014,503
855.119751,501
855.237549,503
855.355225,494
855.473022,503
855.590698,485
855.708435,478
855.826172,504
855.943848,510
856.061646,486
856.179321,500
856.296997,482
856.414795,489
856.53241,493
856.650085,500
856.767822,494
856.885559,497
857.003174,509
857.120911,525
857.238586,488
857.356201,496
857.473938,509
857.591614,488
857.709351,492
857.826965,513
857.944641,506
858.062317,525
858.179993,512
858.297668,495
858.415283,503
858.532959,452
858.650574,488
858.768188,512
858.885803,511
859.003479,492
859.121094,501
859.23877,499
859.356384,491
859.473999,481
859.591675,480
859.709229,496
859.826843,494
859.944458,486
860.062012,475
860.179626,493
860.297302,491
860.414856,483
860.532471,480
860.650024,486
860.767639,464
860.885193,485
861.002808,508
861.120361,483
861.237976,479
861.35553,478
861.473022,490
861.590698,478
861.708191,485
861.825745,477
861.943298,485
862.060852,495
862.178406,481
862.295959,478
862.413513,474
862.531006,490
862.64856,470
862.766113,489
862.883667,480
863.00116,473
863.118713,470
863.236206,481
863.353699,484
863.471252,477
863.588745,486
863.706177,466
863.82373,495
863.941162,496
864.058716,501
864.176208,480
864.29364,498
864.411194,466
864.528687,480
864.646118,480
864.763611,488
864.881042,471
864.998535,477
865.116028,472
865.233459,481
865.350891,472
865.468384,467
865.585754,495
865.703308,479
865.820679,477
865.938171,496
866.055542,468
866.173035,474
866.290466,493
866.407837,488
866.52533,473
866.6427,482
866.760071,473
866.877563,473
866.994934,487
867.112305,490
867.229736,473
867.347107,487
867.464539,473
867.58197,485
867.699341,467
867.81665,511
867.934082,487
868.051453,493
868.168823,476
868.286194,501
868.403564,499
868.520935,491
868.638306,501
868.755676,497
868.872986,490
868.990295,485
869.107727,491
869.225037,490
869.342346,472
869.459717,510
869.577026,472
869.694336,485
869.811707,482
869.929016,465
870.046326,506
870.163635,487
870.280945,495
870.398254,503
870.515564,512
870.632812,508
870.750183,509
870.867432,491
870.984741,481
871.102051,500
871.219299,512
871.336609,503
871.453918,495
871.571106,533
871.688416,525
871.805664,517
871.922852,504
872.040222,511
872.157471,491
872.274719,502
872.391968,496
872.509155,507
872.626465,503
872.743652,510
872.860962,530
872.978149,500
873.095337,517
873.212646,512
873.329834,498
873.44696,512
873.564209,487
873.681396,516
873.798645,503
873.915894,502
874.03302,474
874.150208,519
874.267456,491
874.384583,518
874.501831,503
874.618958,538
874.736145,514
874.853333,508
874.970459,508
875.087646,519
875.204834,518
875.32196,499
875.439148,506
875.556274,510
875.673401,503
875.790527,492
875.907715,495
876.024841,504
876.141968,494
876.259094,516
876.376282,505
876.493347,489
876.610474,504
876.7276,498
876.844727,491
876.961853,505
877.078918,504
877.195984,485
877.313171,492
877.430237,472
877.547302,499
877.664368,483
877.781433,512
877.898499,494
878.015625,502
878.13269,498
878.249695,472
878.366821,498
878.483887,483
878.600952,487
878.717957,479
878.834961,500
878.952087,481
879.069092,483
879.186157,483
879.303162,461
879.420227,471
879.537231,472
879.654236,482
879.77124,470
879.888306,473
880.005249,486
880.122314,484
880.239319,475
880.356323,480
880.473328,491
880.590271,479
880.707275,473
880.824341,485
880.941284,488
881.058228,494
881.175232,490
881.292236,464
881.40918,473
881.526123,483
881.643066,471
881.760071,471
881.877014,480
881.993958,490
882.11084,472
882.227783,464
882.344727,456
882.46167,483
882.578613,475
882.695618,459
882.812439,495
882.929382,494
883.046326,497
883.163208,489
883.280151,471
883.397034,500
883.513916,474
883.630798,496
883.747742,483
883.864563,478
883.981506,460
884.098389,477
884.21521,497
884.332153,495
884.448975,488
884.565796,492
884.682678,516
884.7995,509
884.916443,547
885.033264,542
885.150085,566
885.266968,543
885.383789,566
885.500671,551
885.617493,565
885.734314,573
885.851196,542
885.967896,535
886.084717,542
886.201599,543
886.318359,533
886.435181,554
886.552002,548
886.668762,516
886.785645,532
886.902344,525
887.019165,537
887.135925,508
887.252747,511
887.369446,516
887.486267,514
887.603027,504
887.719788,493
887.836548,495
887.953247,504
888.070068,490
888.186829,495
888.303528,484
888.420288,477
888.536987,455
888.653687,485
888.770447,465
888.887146,479
889.003967,490
889.120667,465
889.237305,476
889.354065,472
889.470703,478
889.587463,472
889.704163,459
889.820862,463
889.937561,463
890.054199,452
890.170837,476
890.287598,492
890.404236,488
890.520874,468
890.637634,463
890.754211,478
890.87085,483
890.987549,470
891.104187,479
891.220886,467
891.337463,473
891.454102,479
891.57074,473
891.687378,497
891.804077,467
891.920654,478
892.037231,489
892.15387,467
892.270447,471
892.387085,476
892.503723,463
892.6203,465
892.736877,468
892.853516,491
892.970032,476
893.08667,495
893.203186,479
893.319763,465
893.43634,458
893.552917,478
893.669556,471
893.786011,466
893.902588,465
894.019165,472
894.135681,470
894.252197,475
894.368835,472
894.485291,481
894.601868,458
894.718384,481
894.8349,447
894.951355,482
895.067932,464
895.184448,459
895.300964,492
895.417419,480
895.533936,481
895.650452,473
895.766907,474
895.883423,472
895.999878,473
896.116333,486
896.232849,478
896.349304,473
896.465759,479
896.582214,460
896.698669,471
896.815125,480
896.931641,458
897.048035,465
897.164551,471
897.280884,481
897.397339,483
897.513794,463
897.630249,458
897.746582,455
897.863098,495
897.979431,483
898.095886,453
898.212341,475
898.328674,458
898.445129,472
898.561462,496
898.677795,471
898.794312,487
898.910645,467
899.026978,483
899.143433,463
899.259766,487
899.37616,478
899.492493,477
899.608765,470
899.725159,482
899.841553,478
899.957947,463
900.07428,473
900.190552,468
900.306946,483
900.423157,472
900.53949,470
900.655884,482
900.772156,497
900.888489,466
901.004822,481
901.121033,485
901.237366,461
901.353699,486
901.46991,483
901.586304,490
901.702515,490
901.818787,488
901.93512,477
902.051331,501
902.167603,502
902.283875,496
902.400085,525
902.516418,510
902.632629,526
902.74884,531
902.865112,537
902.981384,492
903.097595,510
903.213867,501
903.330017,510
903.446289,503
903.5625,513
903.67865,517
903.794922,497
903.911072,489
904.027344,506
904.143494,496
904.259705,510
904.375916,507
904.492065,470
904.608215,471
904.724426,470
904.840576,499
904.956726,482
905.072876,464
905.189087,498
905.305176,466
905.421387,491
905.537537,484
905.653687,479
905.769775,472
905.885925,488
906.002014,474
906.118164,491
906.234314,501
906.350403,473
906.466492,475
906.582642,496
906.69873,454
906.814758,470
906.930908,470
907.046936,491
907.163086,481
907.279175,496
907.395264,476
907.511353,487
907.62738,458
907.743408,475
907.859497,483
907.975525,478
908.091553,475
908.207703,473
908.32373,449
908.439758,472
908.555786,491
908.671814,473
908.787842,457
908.90387,466
909.019775,467
909.135864,477
909.251892,486
909.367859,446
909.483826,480
909.599854,471
909.715881,458
909.831848,491
909.947815,469
910.063782,481
910.179749,477
910.295776,480
910.411743,472
910.527649,492
910.643616,473
910.759583,476
910.875488,502
910.991455,485
911.107361,490
911.223267,494
911.339294,464
911.4552,467
911.571106,492
911.687073,472
911.802979,475
911.918823,453
912.034729,492
912.150635,456
912.266602,466
912.382446,462
912.498352,473
912.614197,467
912.730103,457
912.846008,465
792.44574,917
792.56488,885
792.68396,937
792.80304,898
792.92218,835
793.041199,848
793.160339,795
793.279419,791
793.398499,811
793.517578,782
793.636658,731
793.755737,776
793.874817,775
793.993896,769
794.112976,751
794.232056,727
794.351074,701
794.470215,716
794.589233,744
794.708313,687
794.827393,684
794.946411,682
795.065552,704
795.18457,677
795.303589,693
795.422668,656
795.541687,684
795.660767,656
795.779846,662
795.898865,655
796.017883,650
796.136963,673
796.255981,638
796.375061,646
796.49408,639
796.613037,636
796.732117,633
796.851135,647
796.970154,625
797.089233,633
797.208191,615
797.327271,600
797.446228,588
797.565186,618
797.684265,611
797.803223,614
797.922241,595
798.04126,602
798.160278,595
798.279297,600
798.398315,613
798.517273,612
798.636292,599
798.75531,588
798.874268,611
798.993286,589
799.112244,638
799.231323,594
799.350281,585
799.469238,605
799.588257,589
799.707153,579
799.826111,588
799.945129,563
800.064087,571
800.183044,571
800.302063,575
800.421021,570
800.539978,596
800.658936,573
800.777893,577
800.896912,591
801.015747,588
801.134705,580
801.253723,580
801.37262,595
801.491638,573
801.610535,617
801.729492,559
801.84845,590
801.967407,573
802.086243,568
802.205261,566
802.324158,574
802.443115,578
802.562073,577
802.680969,578
802.799927,582
802.918762,542
803.037659,574
803.156677,568
803.275574,553
803.39447,563
803.513428,582
803.632263,553
803.751221,580
803.870117,573
803.989014,548
804.107971,552
804.226746,556
804.345642,557
804.4646,572
804.583496,553
804.702393,546
804.821228,553
804.940125,547
805.059021,566
805.177917,543
805.296814,551
805.415649,555
805.534546,542
805.653442,563
805.772278,573
805.891113,552
806.01001,549
806.128906,577
806.247742,554
806.366577,563
806.485413,549
806.604309,545
806.723145,538
806.84198,537
806.960876,553
807.079712,550
807.198486,566
807.317383,543
807.436218,554
807.554993,575
807.673889,553
807.792725,549
807.91156,551
808.030396,555
808.14917,563
808.268005,559
808.386841,575
808.505676,548
808.624451,540
808.743286,554
808.862122,565
808.980896,548
809.099731,548
809.218506,557
809.337341,535
809.456116,543
809.57489,569
809.693726,546
809.8125,556
809.931274,552
810.050049,541
810.168884,561
810.287659,562
810.406372,545
810.525269,572
810.643982,543
810.762756,582
810.881531,536
811.000305,545
811.11908,550
811.237854,551
811.356567,556
811.475403,568
811.594116,548
811.71283,542
811.831604,558
811.950378,559
812.069153,572
812.187927,587
812.30658,576
812.425415,550
812.544128,554
812.662781,580
812.781616,577
812.900269,555
813.019043,556
813.137756,534
813.256531,577
813.375244,537
813.493896,561
813.612671,568
813.731384,554
813.850037,525
813.96875,560
814.087524,538
814.206238,565
814.324951,563
814.443604,541
814.562256,557
814.68103,553
814.799683,545
814.918335,547
815.037109,549
815.155762,562
815.274475,549
815.393188,548
815.511841,550
815.630554,544
815.749146,550
815.867859,537
815.986572,536
816.105164,550
816.223877,536
816.342529,558
816.461182,552
816.579895,548
816.698486,526
816.817139,563
816.935791,536
817.054504,537
817.173096,551
817.291748,527
817.4104,539
817.529053,538
817.647644,527
817.766235,542
817.884949,541
818.00354,517
818.122192,508
818.240845,507
818.359436,536
818.478088,528
818.59668,519
818.715271,524
818.833923,513
818.952515,483
819.071106,516
819.189758,510
819.30835,489
819.426941,478
819.545532,507
819.664124,488
819.782715,498
819.901306,477
820.019897,491
820.138489,473
820.25708,499
820.375671,493
820.494202,491
820.612732,512
820.731384,515
820.849915,509
820.968506,496
821.087097,479
821.205627,488
821.324158,478
821.442749,487
821.561279,493
821.679871,493
821.798401,486
821.916931,486
822.035461,493
822.154053,483
822.272583,476
822.391174,481
822.509583,488
822.628174,474
822.746704,491
822.865234,491
822.983765,489
823.102295,484
823.220825,506
823.339294,478
823.457825,494
823.576355,500
823.694824,477
823.813354,489
823.931885,480
824.050354,486
824.168884,493
824.287354,494
824.405823,471
824.524353,489
824.642822,472
824.761353,486
824.879822,513
824.998291,482
825.116699,495
825.235291,501
825.353699,463
825.472168,479
825.590637,484
825.709106,478
825.827576,473
825.946045,487
826.064453,495
826.182983,487
826.301392,469
826.4198,460
826.53833,477
826.656738,460
826.775208,487
826.893677,465
827.012024,480
827.130493,476
827.248962,491
827.36731,466
827.485779,478
827.604248,477
827.722595,489
827.841064,458
827.959412,473
828.077942,453
828.196289,491
828.314636,498
828.433105,480
828.551514,467
828.669861,464
828.78833,470
828.906677,471
829.025085,455
829.143433,469
829.261841,466
829.38031,478
829.498657,486
829.617004,482
829.735413,466
829.85376,475
829.972107,455
830.090515,466
830.208862,475
830.327209,488
830.445557,457
830.563904,457
830.682312,480
830.800659,490
830.919006,472
831.037354,483
831.155701,482
831.274048,477
831.392395,453
831.51062,462
831.629028,500
831.747314,477
831.865662,478
831.984009,487
832.102356,470
832.220642,474
832.338928,475
832.457275,471
832.575623,471
832.693909,477
832.812134,466
832.930481,490
833.048828,504
833.167114,483
833.2854,470
833.403687,468
833.521973,481
833.640259,500
833.758545,456
833.876831,475
833.995056,486
834.113281,470
834.231628,474
834.349915,483
834.468201,469
834.586426,480
834.704651,491
834.822998,487
834.941162,488
835.059448,495
835.177673,484
835.295959,466
835.414246,471
835.53241,478
835.650635,482
835.768921,450
835.887146,471
836.005371,486
836.123596,481
836.241821,475
836.360046,494
836.478271,477
836.596497,478
836.714722,466
836.832886,498
836.95105,476
837.069336,490
837.1875,478
837.305725,466
837.423889,484
837.542053,473
837.660339,500
837.778503,475
837.896667,499
838.014832,489
838.132996,495
838.25116,483
838.369385,501
838.487488,477
838.605713,468
838.723877,471
838.84198,508
838.960205,484
839.078308,479
839.196472,466
839.314636,469
839.4328,482
839.550964,480
839.669067,473
839.787231,497
839.905396,485
840.023499,505
840.141602,481
840.259766,487
840.377869,485
840.495972,501
840.614136,502
840.732239,501
840.850342,486
840.968445,493
841.086548,485
841.204651,520
841.322754,504
841.440918,495
841.55896,503
841.677002,490
841.795166,507
841.913208,493
842.031311,480
842.149353,486
842.267456,487
842.385498,492
842.503601,505
842.621643,497
842.739746,485
842.857788,502
842.97583,482
843.093933,489
843.211975,509
843.330017,495
843.44812,507
843.566101,503
843.684204,484
843.802246,492
843.920227,483
844.038269,498
844.156311,490
844.274292,490
844.392395,491
844.510376,488
844.628357,488
844.74646,467
844.864441,501
844.982422,479
845.100403,492
845.218384,504
845.336426,484
845.454468,491
845.572449,487
845.69043,484
845.808411,488
845.926453,490
846.044373,489
846.162354,478
846.280396,495
846.398315,525
846.516296,485
846.634216,499
846.752197,470
846.870178,478
846.988098,487
847.106079,503
847.22406,484
847.34198,498
847.4599,498
847.577881,490
847.695801,487
847.813782,497
847.931641,476
848.049561,503
848.167603,490
848.285461,484
848.403381,487
848.521362,488
848.639221,493
848.75708,493
848.875,485
848.99292,481
849.110901,521
849.22876,519
849.34668,494
849.464539,499
849.582458,511
849.700317,494
849.818176,485
849.936096,494
850.053955,511
850.171875,499
850.289673,487
850.407593,488
850.525452,494
850.643311,495
850.761169,501
850.878967,509
850.996887,491
851.114746,488
851.232544,482
851.350403,493
851.468262,497
851.58606,494
851.703979,484
851.821777,474
851.939636,475
852.057434,519
852.175232,484
852.293091,494
852.410889,518
852.528687,508
852.646545,522
852.764343,513
852.88208,514
852.999939,498
853.117676,492
853.235535,515
853.353271,504
853.471069,498
853.588928,485
853.706604,517
853.824402,503
853.9422,493
854.059998,490
854.177734,496
854.295532,493
854.413269,485
854.531006,538
854.648804,509
854.766541,502
854.884277,500
855.002014,483
855.119751,483
855.237549,493
855.355225,481
855.473022,481
855.590698,498
855.708435,496
855.826172,485
855.943848,491
856.061646,506
856.179321,477
856.296997,496
856.414795,491
856.53241,503
856.650085,506
856.767822,513
856.885559,524
857.003174,492
857.120911,513
857.238586,505
857.356201,509
857.473938,500
857.591614,484
857.709351,502
857.826965,509
857.944641,504
858.062317,510
858.179993,489
858.297668,502
858.415283,510
858.532959,497
858.650574,492
858.768188,505
858.885803,513
859.003479,513
859.121094,508
859.23877,512
859.356384,504
859.473999,509
859.591675,487
859.709229,478
859.826843,493
859.944458,471
860.062012,501
860.179626,493
860.297302,489
860.414856,480
860.532471,457
860.650024,477
860.767639,472
860.885193,481
861.002808,503
861.120361,490
861.237976,499
861.35553,508
861.473022,482
861.590698,479
861.708191,492
861.825745,483
861.943298,491
862.060852,475
862.178406,491
862.295959,475
862.413513,472
862.531006,476
862.64856,475
862.766113,473
862.883667,475
863.00116,481
863.118713,473
863.236206,471
863.353699,482
863.471252,484
863.588745,492
863.706177,491
863.82373,476
863.941162,499
864.058716,505
864.176208,494
864.29364,475
864.411194,478
864.528687,491
864.646118,481
864.763611,489
864.881042,467
864.998535,479
865.116028,489
865.233459,479
865.350891,479
865.468384,483
865.585754,493
865.703308,483
865.820679,464
865.938171,493
866.055542,481
866.173035,476
866.290466,475
866.407837,469
866.52533,485
866.6427,474
866.760071,465
866.877563,480
866.994934,487
867.112305,495
867.229736,465
867.347107,495
867.464539,482
867.58197,492
867.699341,484
867.81665,485
867.934082,481
868.051453,482
868.168823,495
868.286194,488
868.403564,483
868.520935,473
868.638306,485
868.755676,501
868.872986,471
868.990295,468
869.107727,494
869.225037,494
869.342346,482
869.459717,486
869.577026,496
869.694336,481
869.811707,496
869.929016,496
870.046326,474
870.163635,513
870.280945,495
870.398254,498
870.515564,489
870.632812,528
870.750183,498
870.867432,516
870.984741,522
871.102051,518
871.219299,501
871.336609,516
871.453918,506
871.571106,531
871.688416,513
871.805664,522
871.922852,520
872.040222,506
872.157471,504
872.274719,520
872.391968,507
872.509155,518
872.626465,493
872.743652,518
872.860962,510
872.978149,519
873.095337,502
873.212646,506
873.329834,539
873.44696,510
873.564209,508
873.681396,517
873.798645,506
873.915894,491
874.03302,503
874.150208,505
874.267456,521
874.384583,532
874.501831,513
874.618958,522
874.736145,524
874.853333,497
874.970459,521
875.087646,521
875.204834,514
875.32196,503
875.439148,508
875.556274,514
875.673401,521
875.790527,501
875.907715,499
876.024841,511
876.141968,520
876.259094,485
876.376282,488
876.493347,492
876.610474,488
876.7276,507
876.844727,477
876.961853,490
877.078918,498
877.195984,497
877.313171,510
877.430237,480
877.547302,495
877.664368,500
877.781433,508
877.898499,505
878.015625,475
878.13269,500
878.249695,494
878.366821,507
878.483887,483
878.600952,477
878.717957,478
878.834961,516
878.952087,483
879.069092,488
879.186157,476
879.303162,474
879.420227,476
879.537231,488
879.654236,485
879.77124,483
879.888306,485
880.005249,476
880.122314,462
880.239319,474
880.356323,489
880.473328,508
880.590271,498
880.707275,489
880.824341,483
880.941284,478
881.058228,472
881.175232,496
881.292236,470
881.40918,473
881.526123,480
881.643066,469
881.760071,486
881.877014,480
881.993958,467
882.11084,496
882.227783,478
882.344727,491
882.46167,497
882.578613,462
882.695618,468
882.812439,490
882.929382,485
883.046326,498
883.163208,499
883.280151,456
883.397034,470
883.513916,486
883.630798,480
883.747742,487
883.864563,477
883.981506,491
884.098389,481
884.21521,493
884.332153,492
884.448975,508
884.565796,540
884.682678,521
884.7995,514
884.916443,540
885.033264,536
885.150085,523
885.266968,540
885.383789,557
885.500671,577
885.617493,557
885.734314,574
885.851196,547
885.967896,558
886.084717,552
886.201599,562
886.318359,568
886.435181,537
886.552002,560
886.668762,523
886.785645,549
886.902344,517
887.019165,549
887.135925,521
887.252747,522
887.369446,518
887.486267,515
887.603027,531
887.719788,489
887.836548,509
887.953247,509
888.070068,487
888.186829,504
888.303528,502
888.420288,507
888.536987,490
888.653687,485
888.770447,478
888.887146,491
889.003967,470
889.120667,468
889.237305,467
889.354065,473
889.470703,467
889.587463,462
889.704163,472
889.820862,493
889.937561,470
890.054199,450
890.170837,460
890.287598,460
890.404236,454
890.520874,469
890.637634,491
890.754211,474
890.87085,472
890.987549,475
891.104187,476
891.220886,481
891.337463,468
891.454102,482
891.57074,451
891.687378,474
891.804077,470
891.920654,473
892.037231,480
892.15387,484
892.270447,462
892.387085,465
892.503723,467
892.6203,476
892.736877,474
892.853516,472
892.970032,456
893.08667,471
893.203186,468
893.319763,480
893.43634,486
893.552917,482
893.669556,471
893.786011,465
893.902588,491
894.019165,478
894.135681,475
894.252197,492
894.368835,463
894.485291,483
894.601868,501
894.718384,488
894.8349,456
894.951355,457
895.067932,467
895.184448,480
895.300964,477
895.417419,464
895.533936,478
895.650452,472
895.766907,492
895.883423,480
895.999878,457
896.116333,465
896.232849,449
896.349304,477
896.465759,479
896.582214,483
896.698669,473
896.815125,479
896.931641,465
897.048035,479
897.164551,463
897.280884,478
897.397339,454
897.513794,479
897.630249,468
897.746582,454
897.863098,490
897.979431,452
898.095886,462
898.212341,485
898.328674,460
898.445129,478
898.561462,472
898.677795,462
898.794312,476
898.910645,490
899.026978,474
899.143433,475
899.259766,473
899.37616,465
899.492493,482
899.608765,492
899.725159,456
899.841553,473
899.957947,482
900.07428,492
900.190552,484
900.306946,457
900.423157,477
900.53949,475
900.655884,485
900.772156,479
900.888489,484
901.004822,477
901.121033,470
901.237366,485
901.353699,471
901.46991,479
901.586304,494
901.702515,479
901.818787,495
901.93512,522
902.051331,480
902.167603,505
902.283875,524
902.400085,534
902.516418,500
902.632629,522
902.74884,537
902.865112,523
902.981384,500
903.097595,519
903.213867,529
903.330017,515
903.446289,532
903.5625,514
903.67865,484
903.794922,518
903.911072,509
904.027344,494
904.143494,488
904.259705,511
904.375916,494
904.492065,482
904.608215,506
904.724426,490
904.840576,476
904.956726,496
905.072876,478
905.189087,486
905.305176,484
905.421387,498
905.537537,486
905.653687,481
905.769775,470
905.885925,492
906.002014,486
906.118164,482
906.234314,483
906.350403,507
906.466492,483
906.582642,486
906.69873,488
906.814758,466
906.930908,481
907.046936,484
907.163086,463
907.279175,502
907.395264,479
907.511353,475
907.62738,481
907.743408,481
907.859497,471
907.975525,493
908.091553,489
908.207703,475
908.32373,504
908.439758,466
908.555786,484
908.671814,486
908.787842,498
908.90387,473
909.019775,488
909.135864,477
909.251892,479
909.367859,490
909.483826,479
909.599854,465
909.715881,470
909.831848,498
909.947815,461
910.063782,477
910.179749,491
910.295776,477
910.411743,510
910.527649,467
910.643616,482
910.759583,486
910.875488,477
910.991455,487
911.107361,483
911.223267,492
911.339294,479
911.4552,501
911.571106,477
911.687073,478
911.802979,463
911.918823,482
912.034729,469
912.150635,465
912.266602,468
912.382446,460
912.498352,458
912.614197,480
912.730103,470
912.846008,492
792.44574,902
792.56488,888
792.68396,930
792.80304,901
792.92218,855
793.041199,791
793.160339,828
793.279419,795
793.398499,776
793.517578,775
793.636658,729
793.755737,777
793.874817,745
793.993896,757
794.112976,721
794.232056,716
794.351074,735
794.470215,703
794.589233,715
794.708313,694
794.827393,709
794.946411,690
795.065552,704
795.18457,660
795.303589,723
795.422668,681
795.541687,711
795.660767,666
795.779846,644
795.898865,638
796.017883,679
796.136963,648
796.255981,636
796.375061,618
796.49408,680
796.613037,638
796.732117,636
796.851135,626
796.970154,628
797.089233,623
797.208191,612
797.327271,618
797.446228,630
797.565186,595
797.684265,609
797.803223,607
797.922241,583
798.04126,600
798.160278,609
798.279297,621
798.398315,594
798.517273,602
798.636292,603
798.75531,591
798.874268,634
798.993286,602
799.112244,603
799.231323,614
799.350281,600
799.469238,592
799.588257,612
799.707153,593
799.826111,577
799.945129,570
800.064087,588
800.183044,586
800.302063,563
800.421021,576
800.539978,598
800.658936,601
800.777893,576
800.896912,576
801.015747,568
801.134705,581
801.253723,564
801.37262,583
801.491638,608
801.610535,581
801.729492,567
801.84845,561
801.967407,585
802.086243,555
802.205261,592
802.324158,588
802.443115,577
802.562073,579
802.680969,581
802.799927,596
802.918762,571
803.037659,566
803.156677,565
803.275574,566
803.39447,582
803.513428,574
803.632263,593
803.751221,549
803.870117,542
803.989014,563
804.107971,552
804.226746,587
804.345642,565
804.4646,566
804.583496,576
804.702393,564
804.821228,546
804.940125,559
805.059021,573
805.177917,578
805.296814,567
805.415649,548
805.534546,577
805.653442,560
805.772278,552
805.891113,565
806.01001,562
806.128906,547
806.247742,553
806.366577,570
806.485413,543
806.604309,551
806.723145,571
806.84198,565
806.960876,546
807.079712,580
807.198486,557
807.317383,550
807.436218,540
807.554993,582
807.673889,573
807.792725,556
807.91156,558
808.030396,567
808.14917,555
808.268005,550
808.386841,567
808.505676,562
808.624451,541
808.743286,559
808.862122,551
808.980896,528
809.099731,559
809.218506,556
809.337341,545
809.456116,554
809.57489,564
809.693726,563
809.8125,580
809.931274,567
810.050049,569
810.168884,542
810.287659,530
810.406372,567
810.525269,563
810.643982,549
810.762756,549
810.881531,571
811.000305,561
811.11908,573
811.237854,549
811.356567,541
811.475403,556
811.594116,540
811.71283,565
811.831604,554
811.950378,563
812.069153,567
812.187927,553
812.30658,555
812.425415,558
812.544128,537
812.662781,567
812.781616,569
812.900269,581
813.019043,562
813.137756,550
813.256531,548
813.375244,543
813.493896,573
813.612671,526
813.731384,575
813.850037,549
813.96875,568
814.087524,568
814.206238,531
814.324951,537
814.443604,574
814.562256,546
814.68103,556
814.799683,534
814.918335,560
815.037109,537
815.155762,538
815.274475,549
815.393188,550
815.511841,536
815.630554,550
815.749146,547
815.867859,533
815.986572,543
816.105164,537
816.223877,548
816.342529,557
816.461182,550
816.579895,523
816.698486,562
816.817139,549
816.935791,546
817.054504,537
817.173096,556
817.291748,522
817.4104,535
817.529053,516
817.647644,547
817.766235,537
817.884949,529
818.00354,535
818.122192,525
818.240845,544
818.359436,530
818.478088,525
818.59668,514
818.715271,498
818.833923,501
818.952515,514
819.071106,514
819.189758,514
819.30835,502
819.426941,513
819.545532,511
819.664124,504
819.782715,496
819.901306,485
820.019897,494
820.138489,505
820.25708,504
820.375671,502
820.494202,507
820.612732,489
820.731384,500
820.849915,499
820.968506,504
821.087097,490
821.205627,492
821.324158,486
821.442749,482
821.561279,507
821.679871,482
821.798401,491
821.916931,472
822.035461,476
822.154053,492
822.272583,487
822.391174,505
822.509583,512
822.628174,482
822.746704,487
822.865234,481
822.983765,509
823.102295,483
823.220825,483
823.339294,471
823.457825,485
823.576355,486
823.694824,496
823.813354,498
823.931885,495
824.050354,490
824.168884,488
824.287354,482
824.405823,497
824.524353,472
824.642822,506
824.761353,509
824.879822,498
824.998291,501
825.116699,501
825.235291,488
825.353699,487
825.472168,491
825.590637,479
825.709106,479
825.827576,466
825.946045,472
826.064453,488
826.182983,479
826.301392,466
826.4198,486
826.53833,474
826.656738,483
826.775208,475
826.893677,475
827.012024,482
827.130493,467
827.248962,478
827.36731,483
827.485779,465
827.604248,478
827.722595,465
827.841064,474
827.959412,476
828.077942,471
828.196289,474
828.314636,464
828.433105,490
828.551514,477
828.669861,448
828.78833,465
828.906677,477
829.025085,456
829.143433,475
829.261841,458
829.38031,464
829.498657,469
829.617004,476
829.735413,473
829.85376,464
829.972107,454
830.090515,492
830.208862,475
830.327209,470
830.445557,481
830.563904,469
830.682312,477
830.800659,475
830.919006,476
831.037354,467
831.155701,490
831.274048,487
831.392395,491
831.51062,485
831.629028,467
831.747314,483
831.865662,491
831.984009,465
832.102356,472
832.220642,479
832.338928,481
832.457275,471
832.575623,500
832.693909,475
832.812134,488
832.930481,470
833.048828,479
833.167114,487
833.2854,467
833.403687,473
833.521973,480
833.640259,489
833.758545,490
833.876831,485
833.995056,477
834.113281,473
834.231628,474
834.349915,500
834.468201,471
834.586426,496
834.704651,458
834.822998,485
834.941162,475
835.059448,473
835.177673,483
835.295959,475
835.414246,510
835.53241,467
835.650635,486
835.768921,473
835.887146,469
836.005371,483
836.123596,492
836.241821,484
836.360046,489
836.478271,484
836.596497,472
836.714722,481
836.832886,461
836.95105,465
837.069336,479
837.1875,471
837.305725,470
837.423889,479
837.542053,493
837.660339,490
837.778503,479
837.896667,479
838.014832,485
838.132996,480
838.25116,484
838.369385,487
838.487488,461
838.605713,493
838.723877,495
838.84198,495
838.960205,484
839.078308,475
839.196472,490
839.314636,491
839.4328,490
839.550964,492
839.669067,494
839.787231,500
839.905396,496
840.023499,492
840.141602,470
840.259766,471
840.377869,500
840.495972,507
840.614136,489
840.732239,515
840.850342,502
840.968445,492
841.086548,494
841.204651,500
841.322754,489
841.440918,482
841.55896,532
841.677002,486
841.795166,511
841.913208,510
842.031311,493
842.149353,496
842.267456,517
842.385498,478
842.503601,507
842.621643,508
842.739746,489
842.857788,491
842.97583,488
843.093933,503
843.211975,489
843.330017,506
843.44812,504
843.566101,498
843.684204,508
843.802246,521
843.920227,511
844.038269,497
844.156311,493
844.274292,503
844.392395,496
844.510376,500
844.628357,506
844.74646,485
844.864441,501
844.982422,493
845.100403,487
845.218384,499
845.336426,502
845.454468,501
845.572449,496
845.69043,466
845.808411,494
845.926453,487
846.044373,493
846.162354,497
846.280396,492
846.398315,488
846.516296,497
846.634216,488
846.752197,510
846.870178,495
846.988098,494
847.106079,494
847.22406,484
847.34198,498
847.4599,479
847.577881,491
847.695801,473
847.813782,494
847.931641,490
848.049561,492
848.167603,493
848.285461,501
848.403381,468
848.521362,507
848.639221,475
848.75708,498
848.875,503
848.99292,503
849.110901,494
849.22876,505
849.34668,495
849.464539,496
849.582458,499
849.700317,524
849.818176,510
849.936096,499
850.053955,491
850.171875,520
850.289673,491
850.407593,487
850.525452,518
850.643311,499
850.761169,479
850.878967,505
850.996887,473
851.114746,476
851.232544,497
851.350403,498
851.468262,493
851.58606,481
851.703979,495
851.821777,496
851.939636,506
852.057434,484
852.175232,481
852.293091,510
852.410889,498
852.528687,519
852.646545,534
852.764343,530
852.88208,493
852.999939,505
853.117676,511
853.235535,497
853.353271,501
853.471069,501
853.588928,497
853.706604,488
853.824402,506
853.9422,494
854.059998,493
854.177734,495
854.295532,498
854.413269,519
854.531006,514
854.648804,504
854.766541,504
854.884277,506
855.002014,510
855.119751,497
855.237549,479
855.355225,494
855.473022,497
855.590698,517
855.708435,489
855.826172,531
855.943848,495
856.061646,500
856.179321,480
856.296997,500
856.414795,496
856.53241,491
856.650085,509
856.767822,516
856.885559,490
857.003174,529
857.120911,504
857.238586,500
857.356201,509
857.473938,510
857.591614,490
857.709351,497
857.826965,532
857.944641,509
858.062317,503
858.179993,514
858.297668,517
858.415283,493
858.532959,522
858.650574,510
858.768188,519
858.885803,507
859.003479,512
859.121094,517
859.23877,501
859.356384,490
859.473999,491
859.591675,510
859.709229,501
859.826843,494
859.944458,486
860.062012,486
860.179626,487
860.297302,494
860.414856,475
860.532471,485
860.650024,478
860.767639,459
860.885193,485
861.002808,488
861.120361,484
861.237976,485
861.35553,467
861.473022,496
861.590698,475
861.708191,478
861.825745,485
861.943298,487
862.060852,484
862.178406,467
862.295959,487
862.413513,484
862.531006,478
862.64856,484
862.766113,470
862.883667,473
863.00116,476
863.118713,487
863.236206,481
863.353699,494
863.471252,480
863.588745,483
863.706177,506
863.82373,508
863.941162,471
864.058716,506
864.176208,483
864.29364,482
864.411194,484
864.528687,478
864.646118,494
864.763611,482
864.881042,503
864.998535,478
865.116028,483
865.233459,483
865.350891,483
865.468384,488
865.585754,484
865.703308,479
865.820679,487
865.938171,461
866.055542,467
866.173035,497
866.290466,471
866.407837,488
866.52533,469
866.6427,506
866.760071,469
866.877563,495
866.994934,492
867.112305,489
867.229736,501
867.347107,498
867.464539,493
867.58197,478
867.699341,505
867.81665,478
867.934082,480
868.051453,483
868.168823,488
868.286194,492
868.403564,483
868.520935,490
868.638306,481
868.755676,482
868.872986,482
868.990295,505
869.107727,501
869.225037,464
869.342346,486
869.459717,500
869.577026,500
869.694336,512
869.811707,499
869.929016,508
870.046326,503
870.163635,504
870.280945,470
870.398254,503
870.515564,519
870.632812,514
870.750183,528
870.867432,504
870.984741,489
871.102051,503
871.219299,506
871.336609,527
871.453918,528
871.571106,517
871.688416,512
871.805664,507
871.922852,493
872.040222,523
872.157471,508
872.274719,513
872.391968,515
872.509155,525
872.626465,515
872.743652,523
872.860962,483
872.978149,495
873.095337,516
873.212646,511
873.329834,497
873.44696,505
873.564209,504
873.681396,502
873.798645,497
873.915894,507
874.03302,528
874.150208,514
874.267456,524
874.384583,512
874.501831,511
874.618958,529
874.736145,515
874.853333,543
874.970459,524
875.087646,534
875.204834,506
875.32196,505
875.439148,528
875.556274,518
875.673401,523
875.790527,522
875.907715,482
876.024841,513
876.141968,511
876.259094,514
876.376282,479
876.493347,523
876.610474,480
876.7276,494
876.844727,488
876.961853,501
877.078918,486
877.195984,510
877.313171,481
877.430237,485
877.547302,484
877.664368,506
877.781433,479
877.898499,499
878.015625,485
878.13269,499
878.249695,498
878.366821,500
878.483887,489
878.600952,489
878.717957,472
878.834961,512
878.952087,488
879.069092,506
879.186157,507
879.303162,493
879.420227,477
879.537231,502
879.654236,479
879.77124,503
879.888306,487
880.005249,477
880.122314,484
880.239319,472
880.356323,476
880.473328,489
880.590271,471
880.707275,475
880.824341,491
880.941284,484
881.058228,485
881.175232,485
881.292236,476
881.40918,489
881.526123,475
881.643066,485
881.760071,485
881.877014,496
881.993958,493
882.11084,474
882.227783,490
882.344727,474
882.46167,482
882.578613,475
882.695618,484
882.812439,503
882.929382,469
883.046326,489
883.163208,497
883.280151,480
883.397034,464
883.513916,483
883.630798,477
883.747742,486
883.864563,488
883.981506,484
884.098389,498
884.21521,485
884.332153,493
884.448975,520
884.565796,496
884.682678,505
884.7995,512
884.916443,539
885.033264,518
885.150085,529
885.266968,556
885.383789,564
885.500671,555
885.617493,544
885.734314,568
885.851196,551
885.967896,555
886.084717,548
886.201599,568
886.318359,575
886.435181,516
886.552002,543
886.668762,564
886.785645,538
886.902344,550
887.019165,514
887.135925,542
887.252747,535
887.369446,510
887.486267,515
887.603027,506
887.719788,520
887.836548,502
887.953247,506
888.070068,507
888.186829,495
888.303528,501
888.420288,494
888.536987,475
888.653687,490
888.770447,494
888.887146,486
889.003967,483
889.120667,489
889.237305,472
889.354065,491
889.470703,489
889.587463,494
889.704163,484
889.820862,481
889.937561,473
890.054199,505
890.170837,476
890.287598,470
890.404236,469
890.520874,471
890.637634,466
890.754211,468
890.87085,485
890.987549,477
891.104187,475
891.220886,485
891.337463,476
891.454102,483
891.57074,492
891.687378,481
891.804077,474
891.920654,486
892.037231,476
892.15387,478
892.270447,481
892.387085,472
892.503723,462
892.6203,484
892.736877,474
892.853516,490
892.970032,500
893.08667,468
893.203186,467
893.319763,479
893.43634,473
893.552917,483
893.669556,453
893.786011,468
893.902588,470
894.019165,465
894.135681,485
894.252197,495
894.368835,473
894.485291,477
894.601868,465
894.718384,497
894.8349,468
894.951355,482
895.067932,477
895.184448,472
895.300964,482
895.417419,491
895.533936,478
895.650452,475
895.766907,476
895.883423,482
895.999878,471
896.116333,477
896.232849,463
896.349304,470
896.465759,474
896.582214,479
896.698669,450
896.815125,495
896.931641,471
897.048035,483
897.164551,493
897.280884,478
897.397339,475
897.513794,487
897.630249,487
897.746582,477
897.863098,484
897.979431,459
898.095886,468
898.212341,501
898.328674,492
898.445129,478
898.561462,491
898.677795,478
898.794312,487
898.910645,513
899.026978,474
899.143433,478
899.259766,478
899.37616,480
899.492493,473
899.608765,486
899.725159,478
899.841553,483
899.957947,463
900.07428,487
900.190552,475
900.306946,497
900.423157,488
900.53949,499
900.655884,479
900.772156,487
900.888489,472
901.004822,484
901.121033,484
901.237366,486
901.353699,478
901.46991,490
901.586304,494
901.702515,494
901.818787,484
901.93512,497
902.051331,508
902.167603,503
902.283875,526
902.400085,522
902.516418,523
902.632629,522
902.74884,531
902.865112,523
902.981384,542
903.097595,520
903.213867,516
903.330017,513
903.446289,525
903.5625,515
903.67865,527
903.794922,516
903.911072,507
904.027344,510
904.143494,503
904.259705,489
904.375916,485
904.492065,503
904.608215,507
904.724426,494
904.840576,496
904.956726,493
905.072876,511
905.189087,507
905.305176,474
905.421387,483
905.537537,496
905.653687,471
905.769775,477
905.885925,495
906.002014,460
906.118164,491
906.234314,475
906.350403,485
906.466492,473
906.582642,496
906.69873,476
906.814758,490
906.930908,458
907.046936,464
907.163086,479
907.279175,488
907.395264,473
907.511353,492
907.62738,473
907.743408,487
907.859497,487
907.975525,499
908.091553,473
908.207703,474
908.32373,485
908.439758,498
908.555786,447
908.671814,479
908.787842,478
908.90387,484
909.019775,482
909.135864,470
909.251892,471
909.367859,508
909.483826,476
909.599854,476
909.715881,476
909.831848,484
909.947815,482
910.063782,482
910.179749,476
910.295776,474
910.411743,489
910.527649,482
910.643616,489
910.759583,470
910.875488,501
910.991455,470
911.107361,468
911.223267,482
911.339294,502
911.4552,466
911.571106,483
911.687073,470
911.802979,457
911.918823,480
912.034729,475
912.150635,502
912.266602,476
912.382446,502
912.498352,490
912.614197,473
912.730103,468
912.846008,474
