792.44574,632
792.56488,657
792.68396,710
792.80304,664
792.92218,613
793.041199,617
793.160339,615
793.279419,632
793.398499,602
793.517578,603
793.636658,619
793.755737,616
793.874817,634
793.993896,628
794.112976,612
794.232056,593
794.351074,610
794.470215,615
794.589233,598
794.708313,591
794.827393,589
794.946411,605
795.065552,609
795.18457,597
795.303589,594
795.422668,612
795.541687,595
795.660767,603
795.779846,586
795.898865,590
796.017883,599
796.136963,586
796.255981,610
796.375061,591
796.49408,571
796.613037,588
796.732117,589
796.851135,596
796.970154,590
797.089233,569
797.208191,572
797.327271,573
797.446228,584
797.565186,594
797.684265,576
797.803223,613
797.922241,570
798.04126,577
798.160278,576
798.279297,571
798.398315,584
798.517273,579
798.636292,569
798.75531,565
798.874268,588
798.993286,597
799.112244,558
799.231323,601
799.350281,573
799.469238,566
799.588257,564
799.707153,585
799.826111,591
799.945129,580
800.064087,553
800.183044,591
800.302063,554
800.421021,559
800.539978,580
800.658936,570
800.777893,578
800.896912,575
801.015747,586
801.134705,581
801.253723,559
801.37262,550
801.491638,575
801.610535,586
801.729492,581
801.84845,585
801.967407,572
802.086243,586
802.205261,561
802.324158,580
802.443115,574
802.562073,576
802.680969,567
802.799927,568
802.918762,588
803.037659,593
803.156677,539
803.275574,588
803.39447,582
803.513428,589
803.632263,552
803.751221,597
803.870117,580
803.989014,587
804.107971,602
804.226746,593
804.345642,562
804.4646,583
804.583496,592
804.702393,581
804.821228,613
804.940125,599
805.059021,578
805.177917,580
805.296814,590
805.415649,595
805.534546,619
805.653442,594
805.772278,613
805.891113,611
806.01001,611
806.128906,598
806.247742,592
806.366577,602
806.485413,607
806.604309,605
806.723145,564
806.84198,632
806.960876,601
807.079712,619
807.198486,618
807.317383,597
807.436218,581
807.554993,594
807.673889,614
807.792725,598
807.91156,608
808.030396,602
808.14917,606
808.268005,632
808.386841,606
808.505676,618
808.624451,617
808.743286,619
808.862122,589
808.980896,586
809.099731,604
809.218506,581
809.337341,613
809.456116,628
809.57489,608
809.693726,615
809.8125,600
809.931274,616
810.050049,605
810.168884,612
810.287659,619
810.406372,615
810.525269,596
810.643982,622
810.762756,602
810.881531,608
811.000305,615
811.11908,608
811.237854,623
811.356567,616
811.475403,618
811.594116,611
811.71283,611
811.831604,636
811.950378,603
812.069153,642
812.187927,632
812.30658,633
812.425415,621
812.544128,631
812.662781,621
812.781616,606
812.900269,614
813.019043,635
813.137756,615
813.256531,621
813.375244,628
813.493896,628
813.612671,631
813.731384,630
813.850037,619
813.96875,616
814.087524,611
814.206238,610
814.324951,590
814.443604,609
814.562256,601
814.68103,603
814.799683,627
814.918335,605
815.037109,610
815.155762,629
815.274475,606
815.393188,618
815.511841,585
815.630554,589
815.749146,601
815.867859,608
815.986572,589
816.105164,612
816.223877,594
816.342529,571
816.461182,607
816.579895,613
816.698486,603
816.817139,610
816.935791,617
817.054504,578
817.173096,589
817.291748,592
817.4104,598
817.529053,574
817.647644,584
817.766235,582
817.884949,568
818.00354,553
818.122192,571
818.240845,559
818.359436,549
818.478088,546
818.59668,534
818.715271,530
818.833923,531
818.952515,514
819.071106,506
819.189758,501
819.30835,516
819.426941,513
819.545532,504
819.664124,523
819.782715,516
819.901306,505
820.019897,511
820.138489,498
820.25708,504
820.375671,514
820.494202,520
820.612732,492
820.731384,502
820.849915,492
820.968506,486
821.087097,499
821.205627,500
821.324158,492
821.442749,519
821.561279,501
821.679871,481
821.798401,505
821.916931,497
822.035461,496
822.154053,488
822.272583,471
822.391174,502
822.509583,474
822.628174,473
822.746704,498
822.865234,493
822.983765,483
823.102295,500
823.220825,474
823.339294,489
823.457825,466
823.576355,486
823.694824,491
823.813354,487
823.931885,470
824.050354,500
824.168884,490
824.287354,473
824.405823,497
824.524353,491
824.642822,498
824.761353,489
824.879822,497
824.998291,478
825.116699,473
825.235291,487
825.353699,483
825.472168,479
825.590637,480
825.709106,457
825.827576,471
825.946045,470
826.064453,467
826.182983,470
826.301392,487
826.4198,473
826.53833,494
826.656738,477
826.775208,488
826.893677,464
827.012024,479
827.130493,477
827.248962,478
827.36731,460
827.485779,462
827.604248,467
827.722595,469
827.841064,454
827.959412,461
828.077942,453
828.196289,454
828.314636,480
828.433105,476
828.551514,450
828.669861,471
828.78833,468
828.906677,474
829.025085,487
829.143433,466
829.261841,458
829.38031,474
829.498657,468
829.617004,460
829.735413,455
829.85376,468
829.972107,478
830.090515,466
830.208862,476
830.327209,451
830.445557,459
830.563904,477
830.682312,469
830.800659,464
830.919006,457
831.037354,479
831.155701,461
831.274048,457
831.392395,458
831.51062,472
831.629028,469
831.747314,473
831.865662,456
831.984009,474
832.102356,447
832.220642,469
832.338928,468
832.457275,471
832.575623,466
832.693909,459
832.812134,450
832.930481,469
833.048828,477
833.167114,454
833.2854,470
833.403687,477
833.521973,449
833.640259,477
833.758545,461
833.876831,468
833.995056,450
834.113281,473
834.231628,458
834.349915,463
834.468201,451
834.586426,467
834.704651,454
834.822998,468
834.941162,450
835.059448,446
835.177673,466
835.295959,463
835.414246,449
835.53241,480
835.650635,477
835.768921,477
835.887146,466
836.005371,480
836.123596,469
836.241821,485
836.360046,475
836.478271,471
836.596497,468
836.714722,485
836.832886,479
836.95105,487
837.069336,455
837.1875,474
837.305725,469
837.423889,499
837.542053,486
837.660339,478
837.778503,470
837.896667,467
838.014832,491
838.132996,502
838.25116,474
838.369385,459
838.487488,476
838.605713,470
838.723877,458
838.84198,479
838.960205,479
839.078308,486
839.196472,463
839.314636,481
839.4328,483
839.550964,484
839.669067,464
839.787231,460
839.905396,482
840.023499,457
840.141602,473
840.259766,491
840.377869,475
840.495972,462
840.614136,452
840.732239,482
840.850342,454
840.968445,462
841.086548,481
841.204651,466
841.322754,465
841.440918,489
841.55896,474
841.677002,474
841.795166,473
841.913208,471
842.031311,463
842.149353,465
842.267456,467
842.385498,465
842.503601,469
842.621643,472
842.739746,458
842.857788,471
842.97583,449
843.093933,465
843.211975,459
843.330017,468
843.44812,463
843.566101,462
843.684204,457
843.802246,469
843.920227,454
844.038269,452
844.156311,461
844.274292,476
844.392395,462
844.510376,469
844.628357,476
844.74646,461
844.864441,479
844.982422,483
845.100403,456
845.218384,462
845.336426,458
845.454468,463
845.572449,461
845.69043,457
845.808411,477
845.926453,473
846.044373,453
846.162354,478
846.280396,452
846.398315,453
846.516296,479
846.634216,472
846.752197,473
846.870178,473
846.988098,462
847.106079,471
847.22406,455
847.34198,485
847.4599,442
847.577881,455
847.695801,479
847.813782,467
847.931641,447
848.049561,483
848.167603,471
848.285461,474
848.403381,470
848.521362,482
848.639221,484
848.75708,466
848.875,466
848.99292,466
849.110901,479
849.22876,475
849.34668,468
849.464539,488
849.582458,457
849.700317,480
849.818176,468
849.936096,493
850.053955,465
850.171875,469
850.289673,459
850.407593,470
850.525452,475
850.643311,473
850.761169,466
850.878967,477
850.996887,477
851.114746,470
851.232544,472
851.350403,474
851.468262,465
851.58606,453
851.703979,457
851.821777,484
851.939636,452
852.057434,465
852.175232,467
852.293091,475
852.410889,470
852.528687,463
852.646545,481
852.764343,474
852.88208,481
852.999939,474
853.117676,477
853.235535,467
853.353271,455
853.471069,477
853.588928,466
853.706604,476
853.824402,440
853.9422,464
854.059998,448
854.177734,464
854.295532,463
854.413269,462
854.531006,468
854.648804,442
854.766541,448
854.884277,452
855.002014,455
855.119751,453
855.237549,470
855.355225,482
855.473022,451
855.590698,479
855.708435,485
855.826172,479
855.943848,478
856.061646,470
856.179321,476
856.296997,469
856.414795,471
856.53241,467
856.650085,505
856.767822,465
856.885559,461
857.003174,476
857.120911,453
857.238586,489
857.356201,486
857.473938,461
857.591614,475
857.709351,467
857.826965,456
857.944641,458
858.062317,465
858.179993,459
858.297668,461
858.415283,463
858.532959,463
858.650574,468
858.768188,459
858.885803,484
859.003479,462
859.121094,463
859.23877,443
859.356384,470
859.473999,460
859.591675,455
859.709229,469
859.826843,462
859.944458,476
860.062012,467
860.179626,471
860.297302,461
860.414856,439
860.532471,469
860.650024,452
860.767639,452
860.885193,461
861.002808,463
861.120361,458
861.237976,458
861.35553,455
861.473022,489
861.590698,463
861.708191,464
861.825745,438
861.943298,455
862.060852,468
862.178406,454
862.295959,456
862.413513,464
862.531006,480
862.64856,462
862.766113,474
862.883667,448
863.00116,468
863.118713,463
863.236206,461
863.353699,457
863.471252,470
863.588745,474
863.706177,497
863.82373,456
863.941162,444
864.058716,472
864.176208,471
864.29364,460
864.411194,469
864.528687,474
864.646118,469
864.763611,479
864.881042,462
864.998535,476
865.116028,462
865.233459,460
865.350891,467
865.468384,477
865.585754,455
865.703308,469
865.820679,460
865.938171,473
866.055542,453
866.173035,467
866.290466,465
866.407837,492
866.52533,464
866.6427,480
866.760071,488
866.877563,472
866.994934,470
867.112305,461
867.229736,445
867.347107,477
867.464539,463
867.58197,466
867.699341,451
867.81665,479
867.934082,479
868.051453,453
868.168823,487
868.286194,456
868.403564,465
868.520935,449
868.638306,464
868.755676,491
868.872986,483
868.990295,494
869.107727,465
869.225037,468
869.342346,461
869.459717,483
869.577026,471
869.694336,470
869.811707,461
869.929016,482
870.046326,461
870.163635,459
870.280945,467
870.398254,475
870.515564,462
870.632812,472
870.750183,480
870.867432,458
870.984741,468
871.102051,470
871.219299,475
871.336609,473
871.453918,460
871.571106,477
871.688416,464
871.805664,442
871.922852,472
872.040222,442
872.157471,463
872.274719,491
872.391968,477
872.509155,466
872.626465,479
872.743652,473
872.860962,480
872.978149,464
873.095337,453
873.212646,473
873.329834,466
873.44696,471
873.564209,447
873.681396,465
873.798645,463
873.915894,458
874.03302,462
874.150208,473
874.267456,459
874.384583,450
874.501831,484
874.618958,474
874.736145,476
874.853333,476
874.970459,479
875.087646,475
875.204834,470
875.32196,446
875.439148,452
875.556274,472
875.673401,487
875.790527,480
875.907715,475
876.024841,460
876.141968,466
876.259094,472
876.376282,464
876.493347,480
876.610474,457
876.7276,474
876.844727,458
876.961853,449
877.078918,452
877.195984,452
877.313171,478
877.430237,474
877.547302,474
877.664368,467
877.781433,471
877.898499,459
878.015625,468
878.13269,461
878.249695,474
878.366821,482
878.483887,453
878.600952,457
878.717957,480
878.834961,470
878.952087,465
879.069092,489
879.186157,470
879.303162,489
879.420227,458
879.537231,481
879.654236,462
879.77124,496
879.888306,459
880.005249,480
880.122314,467
880.239319,476
880.356323,480
880.473328,461
880.590271,454
880.707275,468
880.824341,476
880.941284,456
881.058228,467
881.175232,474
881.292236,474
881.40918,472
881.526123,477
881.643066,461
881.760071,450
881.877014,473
881.993958,468
882.11084,468
882.227783,459
882.344727,469
882.46167,464
882.578613,478
882.695618,473
882.812439,473
882.929382,457
883.046326,475
883.163208,469
883.280151,468
883.397034,473
883.513916,473
883.630798,445
883.747742,476
883.864563,478
883.981506,477
884.098389,465
884.21521,484
884.332153,488
884.448975,481
884.565796,488
884.682678,468
884.7995,487
884.916443,471
885.033264,476
885.150085,470
885.266968,482
885.383789,484
885.500671,483
885.617493,463
885.734314,481
885.851196,486
885.967896,462
886.084717,483
886.201599,472
886.318359,469
886.435181,487
886.552002,482
886.668762,466
886.785645,473
886.902344,489
887.019165,489
887.135925,482
887.252747,472
887.369446,453
887.486267,475
887.603027,475
887.719788,475
887.836548,495
887.953247,457
888.070068,465
888.186829,467
888.303528,476
888.420288,482
888.536987,470
888.653687,460
888.770447,493
888.887146,486
889.003967,453
889.120667,483
889.237305,479
889.354065,459
889.470703,481
889.587463,471
889.704163,469
889.820862,463
889.937561,472
890.054199,491
890.170837,465
890.287598,488
890.404236,457
890.520874,484
890.637634,488
890.754211,488
890.87085,468
890.987549,488
891.104187,490
891.220886,491
891.337463,468
891.454102,475
891.57074,485
891.687378,492
891.804077,473
891.920654,483
892.037231,478
892.15387,479
892.270447,460
892.387085,486
892.503723,474
892.6203,464
892.736877,494
892.853516,470
892.970032,493
893.08667,472
893.203186,473
893.319763,466
893.43634,472
893.552917,479
893.669556,478
893.786011,498
893.902588,490
894.019165,492
894.135681,471
894.252197,496
894.368835,469
894.485291,480
894.601868,474
894.718384,499
894.8349,476
894.951355,464
895.067932,479
895.184448,464
895.300964,461
895.417419,478
895.533936,462
895.650452,493
895.766907,468
895.883423,498
895.999878,466
896.116333,488
896.232849,477
896.349304,492
896.465759,481
896.582214,477
896.698669,481
896.815125,483
896.931641,459
897.048035,493
897.164551,482
897.280884,469
897.397339,477
897.513794,481
897.630249,487
897.746582,497
897.863098,481
897.979431,472
898.095886,479
898.212341,489
898.328674,471
898.445129,471
898.561462,480
898.677795,477
898.794312,491
898.910645,475
899.026978,464
899.143433,486
899.259766,471
899.37616,467
899.492493,476
899.608765,491
899.725159,474
899.841553,484
899.957947,484
900.07428,490
900.190552,475
900.306946,499
900.423157,494
900.53949,500
900.655884,473
900.772156,491
900.888489,472
901.004822,496
901.121033,483
901.237366,491
901.353699,493
901.46991,505
901.586304,486
901.702515,459
901.818787,485
901.93512,478
902.051331,476
902.167603,491
902.283875,483
902.400085,505
902.516418,477
902.632629,486
902.74884,484
902.865112,487
902.981384,505
903.097595,472
903.213867,481
903.330017,490
903.446289,488
903.5625,496
903.67865,481
903.794922,489
903.911072,480
904.027344,487
904.143494,486
904.259705,503
904.375916,492
904.492065,492
904.608215,485
904.724426,495
904.840576,503
904.956726,497
905.072876,495
905.189087,493
905.305176,494
905.421387,489
905.537537,467
905.653687,485
905.769775,495
905.885925,489
906.002014,501
906.118164,472
906.234314,468
906.350403,469
906.466492,491
906.582642,468
906.69873,497
906.814758,465
906.930908,509
907.046936,455
907.163086,472
907.279175,451
907.395264,481
907.511353,485
907.62738,474
907.743408,487
907.859497,470
907.975525,487
908.091553,488
908.207703,473
908.32373,498
908.439758,479
908.555786,481
908.671814,476
908.787842,487
908.90387,488
909.019775,479
909.135864,491
909.251892,480
909.367859,477
909.483826,504
909.599854,478
909.715881,469
909.831848,510
909.947815,487
910.063782,474
910.179749,474
910.295776,472
910.411743,496
910.527649,479
910.643616,478
910.759583,486
910.875488,487
910.991455,469
911.107361,504
911.223267,476
911.339294,473
911.4552,484
911.571106,493
911.687073,477
911.802979,471
911.918823,495
912.034729,486
912.150635,506
912.266602,464
912.382446,470
912.498352,480
912.614197,465
912.730103,486
912.846008,481
792.44574,619
792.56488,662
792.68396,696
792.80304,672
792.92218,655
793.041199,645
793.160339,620
793.279419,664
793.398499,601
793.517578,621
793.636658,600
793.755737,632
793.874817,626
793.993896,637
794.112976,611
794.232056,609
794.351074,600
794.470215,624
794.589233,589
794.708313,606
794.827393,591
794.946411,590
795.065552,591
795.18457,599
795.303589,618
795.422668,608
795.541687,604
795.660767,627
795.779846,584
795.898865,588
796.017883,571
796.136963,599
796.255981,615
796.375061,554
796.49408,603
796.613037,607
796.732117,580
796.851135,582
796.970154,586
797.089233,594
797.208191,588
797.327271,605
797.446228,592
797.565186,571
797.684265,548
797.803223,578
797.922241,591
798.04126,574
798.160278,596
798.279297,580
798.398315,597
798.517273,579
798.636292,586
798.75531,573
798.874268,563
798.993286,566
799.112244,589
799.231323,596
799.350281,572
799.469238,576
799.588257,576
799.707153,583
799.826111,582
799.945129,575
800.064087,564
800.183044,568
800.302063,562
800.421021,573
800.539978,582
800.658936,590
800.777893,618
800.896912,587
801.015747,567
801.134705,562
801.253723,575
801.37262,583
801.491638,593
801.610535,577
801.729492,589
801.84845,589
801.967407,593
802.086243,594
802.205261,561
802.324158,597
802.443115,574
802.562073,577
802.680969,591
802.799927,589
802.918762,610
803.037659,579
803.156677,580
803.275574,590
803.39447,590
803.513428,586
803.632263,559
803.751221,572
803.870117,579
803.989014,591
804.107971,600
804.226746,587
804.345642,599
804.4646,583
804.583496,571
804.702393,611
804.821228,608
804.940125,589
805.059021,589
805.177917,595
805.296814,593
805.415649,612
805.534546,592
805.653442,595
805.772278,591
805.891113,595
806.01001,607
806.128906,596
806.247742,609
806.366577,610
806.485413,609
806.604309,581
806.723145,617
806.84198,592
806.960876,617
807.079712,592
807.198486,616
807.317383,602
807.436218,585
807.554993,625
807.673889,618
807.792725,595
807.91156,589
808.030396,619
808.14917,586
808.268005,617
808.386841,604
808.505676,608
808.624451,617
808.743286,603
808.862122,610
808.980896,622
809.099731,615
809.218506,635
809.337341,617
809.456116,621
809.57489,625
809.693726,630
809.8125,625
809.931274,617
810.050049,612
810.168884,620
810.287659,632
810.406372,612
810.525269,620
810.643982,625
810.762756,617
810.881531,629
811.000305,623
811.11908,609
811.237854,610
811.356567,626
811.475403,612
811.594116,621
811.71283,625
811.831604,614
811.950378,622
812.069153,617
812.187927,628
812.30658,605
812.425415,630
812.544128,635
812.662781,626
812.781616,624
812.900269,646
813.019043,631
813.137756,625
813.256531,639
813.375244,611
813.493896,624
813.612671,609
813.731384,632
813.850037,611
813.96875,615
814.087524,622
814.206238,612
814.324951,612
814.443604,609
814.562256,623
814.68103,590
814.799683,593
814.918335,639
815.037109,600
815.155762,616
815.274475,613
815.393188,614
815.511841,600
815.630554,615
815.749146,617
815.867859,586
815.986572,585
816.105164,591
816.223877,592
816.342529,591
816.461182,624
816.579895,606
816.698486,593
816.817139,581
816.935791,611
817.054504,602
817.173096,597
817.291748,578
817.4104,616
817.529053,591
817.647644,590
817.766235,580
817.884949,569
818.00354,587
818.122192,567
818.240845,565
818.359436,550
818.478088,560
818.59668,516
818.715271,551
818.833923,542
818.952515,526
819.071106,522
819.189758,504
819.30835,517
819.426941,516
819.545532,533
819.664124,523
819.782715,514
819.901306,510
820.019897,512
820.138489,507
820.25708,504
820.375671,480
820.494202,493
820.612732,491
820.731384,494
820.849915,502
820.968506,509
821.087097,489
821.205627,500
821.324158,498
821.442749,493
821.561279,488
821.679871,499
821.798401,511
821.916931,483
822.035461,477
822.154053,490
822.272583,500
822.391174,491
822.509583,489
822.628174,470
822.746704,523
822.865234,478
822.983765,492
823.102295,469
823.220825,470
823.339294,486
823.457825,473
823.576355,475
823.694824,491
823.813354,493
823.931885,477
824.050354,496
824.168884,489
824.287354,487
824.405823,470
824.524353,498
824.642822,492
824.761353,484
824.879822,505
824.998291,504
825.116699,511
825.235291,496
825.353699,486
825.472168,484
825.590637,529
825.709106,483
825.827576,480
825.946045,468
826.064453,486
826.182983,487
826.301392,476
826.4198,480
826.53833,462
826.656738,505
826.775208,476
826.893677,466
827.012024,474
827.130493,474
827.248962,485
827.36731,462
827.485779,467
827.604248,456
827.722595,462
827.841064,465
827.959412,477
828.077942,467
828.196289,476
828.314636,460
828.433105,477
828.551514,484
828.669861,452
828.78833,478
828.906677,475
829.025085,466
829.143433,484
829.261841,480
829.38031,471
829.498657,459
829.617004,465
829.735413,463
829.85376,470
829.972107,479
830.090515,478
830.208862,462
830.327209,468
830.445557,471
830.563904,472
830.682312,461
830.800659,458
830.919006,460
831.037354,459
831.155701,468
831.274048,468
831.392395,462
831.51062,460
831.629028,481
831.747314,451
831.865662,472
831.984009,467
832.102356,460
832.220642,482
832.338928,474
832.457275,457
832.575623,447
832.693909,455
832.812134,458
832.930481,463
833.048828,459
833.167114,459
833.2854,468
833.403687,453
833.521973,463
833.640259,456
833.758545,463
833.876831,469
833.995056,457
834.113281,467
834.231628,465
834.349915,438
834.468201,466
834.586426,456
834.704651,474
834.822998,456
834.941162,475
835.059448,473
835.177673,458
835.295959,473
835.414246,458
835.53241,487
835.650635,460
835.768921,449
835.887146,484
836.005371,463
836.123596,469
836.241821,456
836.360046,475
836.478271,476
836.596497,471
836.714722,487
836.832886,483
836.95105,501
837.069336,484
837.1875,475
837.305725,471
837.423889,484
837.542053,469
837.660339,462
837.778503,495
837.896667,492
838.014832,476
838.132996,491
838.25116,501
838.369385,475
838.487488,469
838.605713,485
838.723877,482
838.84198,473
838.960205,501
839.078308,480
839.196472,481
839.314636,481
839.4328,474
839.550964,479
839.669067,472
839.787231,445
839.905396,475
840.023499,476
840.141602,465
840.259766,473
840.377869,487
840.495972,470
840.614136,498
840.732239,487
840.850342,464
840.968445,473
841.086548,468
841.204651,467
841.322754,476
841.440918,494
841.55896,475
841.677002,463
841.795166,472
841.913208,466
842.031311,469
842.149353,457
842.267456,463
842.385498,474
842.503601,475
842.621643,457
842.739746,448
842.857788,464
842.97583,487
843.093933,467
843.211975,479
843.330017,475
843.44812,469
843.566101,450
843.684204,451
843.802246,469
843.920227,474
844.038269,461
844.156311,466
844.274292,446
844.392395,464
844.510376,457
844.628357,458
844.74646,443
844.864441,463
844.982422,483
845.100403,473
845.218384,491
845.336426,472
845.454468,455
845.572449,462
845.69043,459
845.808411,484
845.926453,468
846.044373,464
846.162354,463
846.280396,469
846.398315,464
846.516296,468
846.634216,474
846.752197,471
846.870178,476
846.988098,461
847.106079,471
847.22406,456
847.34198,449
847.4599,460
847.577881,484
847.695801,473
847.813782,472
847.931641,446
848.049561,456
848.167603,474
848.285461,466
848.403381,469
848.521362,472
848.639221,472
848.75708,451
848.875,464
848.99292,468
849.110901,462
849.22876,482
849.34668,480
849.464539,476
849.582458,477
849.700317,478
849.818176,457
849.936096,473
850.053955,464
850.171875,463
850.289673,456
850.407593,474
850.525452,457
850.643311,478
850.761169,487
850.878967,477
850.996887,473
851.114746,469
851.232544,452
851.350403,455
851.468262,453
851.58606,478
851.703979,465
851.821777,459
851.939636,456
852.057434,461
852.175232,472
852.293091,481
852.410889,474
852.528687,467
852.646545,474
852.764343,478
852.88208,459
852.999939,476
853.117676,464
853.235535,442
853.353271,471
853.471069,457
853.588928,467
853.706604,452
853.824402,465
853.9422,486
854.059998,479
854.177734,457
854.295532,450
854.413269,463
854.531006,464
854.648804,465
854.766541,453
854.884277,465
855.002014,472
855.119751,477
855.237549,470
855.355225,447
855.473022,477
855.590698,454
855.708435,457
855.826172,486
855.943848,478
856.061646,480
856.179321,464
856.296997,464
856.414795,455
856.53241,478
856.650085,477
856.767822,473
856.885559,469
857.003174,489
857.120911,488
857.238586,454
857.356201,466
857.473938,460
857.591614,478
857.709351,490
857.826965,462
857.944641,465
858.062317,463
858.179993,474
858.297668,489
858.415283,474
858.532959,457
858.650574,478
858.768188,484
858.885803,473
859.003479,475
859.121094,467
859.23877,454
859.356384,457
859.473999,493
859.591675,450
859.709229,469
859.826843,469
859.944458,465
860.062012,473
860.179626,460
860.297302,489
860.414856,481
860.532471,467
860.650024,464
860.767639,457
860.885193,468
861.002808,470
861.120361,450
861.237976,477
861.35553,488
861.473022,448
861.590698,458
861.708191,480
861.825745,461
861.943298,482
862.060852,455
862.178406,490
862.295959,465
862.413513,449
862.531006,474
862.64856,472
862.766113,464
862.883667,449
863.00116,468
863.118713,475
863.236206,435
863.353699,459
863.471252,473
863.588745,452
863.706177,459
863.82373,460
863.941162,461
864.058716,470
864.176208,478
864.29364,476
864.411194,460
864.528687,482
864.646118,478
864.763611,479
864.881042,450
864.998535,453
865.116028,477
865.233459,481
865.350891,458
865.468384,460
865.585754,459
865.703308,475
865.820679,463
865.938171,460
866.055542,473
866.173035,451
866.290466,464
866.407837,463
866.52533,477
866.6427,477
866.760071,480
866.877563,479
866.994934,464
867.112305,464
867.229736,474
867.347107,482
867.464539,475
867.58197,463
867.699341,467
867.81665,474
867.934082,448
868.051453,476
868.168823,482
868.286194,475
868.403564,476
868.520935,460
868.638306,488
868.755676,468
868.872986,478
868.990295,470
869.107727,466
869.225037,465
869.342346,493
869.459717,486
869.577026,484
869.694336,474
869.811707,476
869.929016,477
870.046326,475
870.163635,472
870.280945,466
870.398254,489
870.515564,464
870.632812,475
870.750183,470
870.867432,469
870.984741,500
871.102051,499
871.219299,452
871.336609,457
871.453918,486
871.571106,468
871.688416,462
871.805664,467
871.922852,471
872.040222,487
872.157471,481
872.274719,481
872.391968,494
872.509155,473
872.626465,466
872.743652,476
872.860962,461
872.978149,484
873.095337,487
873.212646,461
873.329834,460
873.44696,469
873.564209,457
873.681396,466
873.798645,467
873.915894,470
874.03302,461
874.150208,479
874.267456,477
874.384583,451
874.501831,489
874.618958,470
874.736145,478
874.853333,487
874.970459,460
875.087646,483
875.204834,471
875.32196,472
875.439148,469
875.556274,479
875.673401,480
875.790527,483
875.907715,477
876.024841,471
876.141968,469
876.259094,485
876.376282,461
876.493347,473
876.610474,460
876.7276,462
876.844727,485
876.961853,473
877.078918,460
877.195984,458
877.313171,479
877.430237,477
877.547302,479
877.664368,484
877.781433,480
877.898499,474
878.015625,486
878.13269,480
878.249695,492
878.366821,482
878.483887,473
878.600952,485
878.717957,468
878.834961,463
878.952087,489
879.069092,482
879.186157,473
879.303162,473
879.420227,492
879.537231,466
879.654236,454
879.77124,482
879.888306,473
880.005249,480
880.122314,448
880.239319,476
880.356323,476
880.473328,472
880.590271,467
880.707275,475
880.824341,471
880.941284,450
881.058228,470
881.175232,475
881.292236,462
881.40918,461
881.526123,473
881.643066,469
881.760071,474
881.877014,464
881.993958,456
882.11084,493
882.227783,475
882.344727,464
882.46167,472
882.578613,468
882.695618,456
882.812439,474
882.929382,457
883.046326,456
883.163208,470
883.280151,469
883.397034,460
883.513916,462
883.630798,481
883.747742,474
883.864563,468
883.981506,470
884.098389,473
884.21521,489
884.332153,478
884.448975,464
884.565796,479
884.682678,482
884.7995,475
884.916443,473
885.033264,484
885.150085,480
885.266968,471
885.383789,487
885.500671,482
885.617493,492
885.734314,475
885.851196,486
885.967896,454
886.084717,475
886.201599,487
886.318359,495
886.435181,473
886.552002,483
886.668762,478
886.785645,491
886.902344,473
887.019165,492
887.135925,468
887.252747,479
887.369446,499
887.486267,495
887.603027,475
887.719788,481
887.836548,455
887.953247,469
888.070068,464
888.186829,484
888.303528,497
888.420288,460
888.536987,452
888.653687,470
888.770447,474
888.887146,478
889.003967,482
889.120667,476
889.237305,479
889.354065,486
889.470703,488
889.587463,484
889.704163,496
889.820862,457
889.937561,468
890.054199,472
890.170837,474
890.287598,471
890.404236,482
890.520874,471
890.637634,485
890.754211,488
890.87085,468
890.987549,468
891.104187,472
891.220886,486
891.337463,490
891.454102,468
891.57074,486
891.687378,499
891.804077,488
891.920654,495
892.037231,492
892.15387,478
892.270447,455
892.387085,490
892.503723,487
892.6203,486
892.736877,469
892.853516,490
892.970032,462
893.08667,472
893.203186,492
893.319763,480
893.43634,485
893.552917,485
893.669556,483
893.786011,475
893.902588,489
894.019165,472
894.135681,456
894.252197,482
894.368835,495
894.485291,471
894.601868,497
894.718384,471
894.8349,472
894.951355,481
895.067932,491
895.184448,473
895.300964,474
895.417419,494
895.533936,485
895.650452,485
895.766907,490
895.883423,478
895.999878,488
896.116333,486
896.232849,455
896.349304,507
896.465759,472
896.582214,470
896.698669,513
896.815125,493
896.931641,468
897.048035,473
897.164551,489
897.280884,488
897.397339,483
897.513794,492
897.630249,464
897.746582,482
897.863098,497
897.979431,478
898.095886,465
898.212341,475
898.328674,512
898.445129,477
898.561462,489
898.677795,492
898.794312,480
898.910645,486
899.026978,493
899.143433,477
899.259766,484
899.37616,471
899.492493,482
899.608765,502
899.725159,483
899.841553,487
899.957947,500
900.07428,495
900.190552,495
900.306946,481
900.423157,479
900.53949,492
900.655884,488
900.772156,488
900.888489,504
901.004822,478
901.121033,487
901.237366,505
901.353699,492
901.46991,474
901.586304,485
901.702515,481
901.818787,497
901.93512,494
902.051331,488
902.167603,466
902.283875,468
902.400085,482
902.516418,512
902.632629,472
902.74884,508
902.865112,480
902.981384,457
903.097595,505
903.213867,483
903.330017,493
903.446289,487
903.5625,478
903.67865,487
903.794922,513
903.911072,485
904.027344,485
904.143494,481
904.259705,492
904.375916,503
904.492065,486
904.608215,470
904.724426,484
904.840576,483
904.956726,488
905.072876,474
905.189087,502
905.305176,509
905.421387,486
905.537537,483
905.653687,504
905.769775,470
905.885925,473
906.002014,479
906.118164,500
906.234314,470
906.350403,495
906.466492,485
906.582642,497
906.69873,475
906.814758,503
906.930908,482
907.046936,489
907.163086,481
907.279175,482
907.395264,487
907.511353,477
907.62738,490
907.743408,485
907.859497,487
907.975525,502
908.091553,487
908.207703,496
908.32373,487
908.439758,494
908.555786,465
908.671814,494
908.787842,502
908.90387,493
909.019775,483
909.135864,491
909.251892,487
909.367859,487
909.483826,483
909.599854,493
909.715881,505
909.831848,510
909.947815,491
910.063782,482
910.179749,483
910.295776,476
910.411743,501
910.527649,496
910.643616,498
910.759583,490
910.875488,505
910.991455,497
911.107361,484
911.223267,498
911.339294,488
911.4552,485
911.571106,495
911.687073,492
911.802979,495
911.918823,489
912.034729,496
912.150635,488
912.266602,494
912.382446,499
912.498352,481
912.614197,496
912.730103,477
912.846008,501
792.44574,628
792.56488,654
792.68396,704
792.80304,693
792.92218,643
793.041199,594
793.160339,616
793.279419,641
793.398499,623
793.517578,631
793.636658,621
793.755737,610
793.874817,639
793.993896,627
794.112976,605
794.232056,605
794.351074,592
794.470215,585
794.589233,600
794.708313,603
794.827393,591
794.946411,608
795.065552,590
795.18457,582
795.303589,592
795.422668,581
795.541687,583
795.660767,621
795.779846,585
795.898865,610
796.017883,588
796.136963,609
796.255981,568
796.375061,583
796.49408,595
796.613037,582
796.732117,594
796.851135,603
796.970154,588
797.089233,590
797.208191,583
797.327271,588
797.446228,555
797.565186,590
797.684265,584
797.803223,606
797.922241,568
798.04126,590
798.160278,602
798.279297,579
798.398315,576
798.517273,589
798.636292,585
798.75531,566
798.874268,568
798.993286,572
799.112244,585
799.231323,574
799.350281,600
799.469238,581
799.588257,572
799.707153,603
799.826111,563
799.945129,582
800.064087,565
800.183044,571
800.302063,580
800.421021,575
800.539978,592
800.658936,583
800.777893,573
800.896912,571
801.015747,583
801.134705,569
801.253723,599
801.37262,602
801.491638,579
801.610535,576
801.729492,599
801.84845,590
801.967407,617
802.086243,572
802.205261,587
802.324158,597
802.443115,606
802.562073,572
802.680969,583
802.799927,593
802.918762,567
803.037659,598
803.156677,591
803.275574,589
803.39447,582
803.513428,579
803.632263,611
803.751221,592
803.870117,585
803.989014,573
804.107971,613
804.226746,604
804.345642,602
804.4646,591
804.583496,582
804.702393,592
804.821228,606
804.940125,604
805.059021,596
805.177917,581
805.296814,609
805.415649,602
805.534546,600
805.653442,613
805.772278,608
805.891113,615
806.01001,591
806.128906,608
806.247742,586
806.366577,585
806.485413,589
806.604309,628
806.723145,590
806.84198,593
806.960876,598
807.079712,588
807.198486,613
807.317383,614
807.436218,614
807.554993,606
807.673889,621
807.792725,597
807.91156,613
808.030396,621
808.14917,610
808.268005,614
808.386841,608
808.505676,634
808.624451,614
808.743286,613
808.862122,619
808.980896,606
809.099731,618
809.218506,614
809.337341,617
809.456116,605
809.57489,638
809.693726,620
809.8125,612
809.931274,586
810.050049,639
810.168884,637
810.287659,607
810.406372,621
810.525269,640
810.643982,609
810.762756,618
810.881531,598
811.000305,607
811.11908,628
811.237854,627
811.356567,615
811.475403,634
811.594116,604
811.71283,633
811.831604,640
811.950378,609
812.069153,601
812.187927,606
812.30658,627
812.425415,618
812.544128,627
812.662781,612
812.781616,605
812.900269,629
813.019043,616
813.137756,633
813.256531,618
813.375244,635
813.493896,614
813.612671,613
813.731384,611
813.850037,611
813.96875,638
814.087524,625
814.206238,625
814.324951,624
814.443604,618
814.562256,620
814.68103,623
814.799683,608
814.918335,625
815.037109,614
815.155762,630
815.274475,613
815.393188,594
815.511841,573
815.630554,604
815.749146,592
815.867859,603
815.986572,587
816.105164,601
816.223877,593
816.342529,593
816.461182,602
816.579895,605
816.698486,615
816.817139,599
816.935791,621
817.054504,596
817.173096,597
817.291748,582
817.4104,593
817.529053,580
817.647644,596
817.766235,570
817.884949,580
818.00354,557
818.122192,539
818.240845,549
818.359436,565
818.478088,541
818.59668,548
818.715271,531
818.833923,534
818.952515,518
819.071106,530
819.189758,516
819.30835,532
819.426941,531
819.545532,504
819.664124,513
819.782715,494
819.901306,522
820.019897,508
820.138489,492
820.25708,506
820.375671,506
820.494202,506
820.612732,506
820.731384,508
820.849915,483
820.968506,486
821.087097,497
821.205627,497
821.324158,493
821.442749,500
821.561279,503
821.679871,491
821.798401,499
821.916931,483
822.035461,493
822.154053,477
822.272583,490
822.391174,486
822.509583,482
822.628174,500
822.746704,477
822.865234,485
822.983765,484
823.102295,490
823.220825,471
823.339294,491
823.457825,496
823.576355,480
823.694824,489
823.813354,497
823.931885,484
824.050354,493
824.168884,498
824.287354,472
824.405823,488
824.524353,491
824.642822,471
824.761353,488
824.879822,496
824.998291,508
825.116699,502
825.235291,489
825.353699,494
825.472168,478
825.590637,474
825.709106,488
825.827576,472
825.946045,474
826.064453,487
826.182983,479
826.301392,474
826.4198,476
826.53833,465
826.656738,458
826.775208,490
826.893677,477
827.012024,476
827.130493,462
827.248962,482
827.36731,470
827.485779,486
827.604248,474
827.722595,459
827.841064,467
827.959412,477
828.077942,464
828.196289,475
828.314636,461
828.433105,481
828.551514,476
828.669861,459
828.78833,461
828.906677,461
829.025085,452
829.143433,483
829.261841,464
829.38031,468
829.498657,448
829.617004,472
829.735413,468
829.85376,482
829.972107,470
830.090515,463
830.208862,471
830.327209,462
830.445557,452
830.563904,454
830.682312,476
830.800659,437
830.919006,473
831.037354,471
831.155701,482
831.274048,478
831.392395,481
831.51062,476
831.629028,463
831.747314,458
831.865662,450
831.984009,477
832.102356,450
832.220642,466
832.338928,463
832.457275,464
832.575623,469
832.693909,466
832.812134,444
832.930481,473
833.048828,475
833.167114,472
833.2854,458
833.403687,449
833.521973,458
833.640259,440
833.758545,475
833.876831,472
833.995056,455
834.113281,462
834.231628,468
834.349915,469
834.468201,449
834.586426,467
834.704651,480
834.822998,488
834.941162,467
835.059448,475
835.177673,483
835.295959,459
835.414246,483
835.53241,467
835.650635,454
835.768921,480
835.887146,450
836.005371,470
836.123596,469
836.241821,470
836.360046,451
836.478271,490
836.596497,455
836.714722,478
836.832886,462
836.95105,475
837.069336,484
837.1875,470
837.305725,485
837.423889,476
837.542053,481
837.660339,479
837.778503,470
837.896667,462
838.014832,491
838.132996,472
838.25116,476
838.369385,486
838.487488,489
838.605713,462
838.723877,472
838.84198,485
838.960205,490
839.078308,480
839.196472,480
839.314636,481
839.4328,469
839.550964,484
839.669067,471
839.787231,491
839.905396,479
840.023499,455
840.141602,463
840.259766,486
840.377869,484
840.495972,482
840.614136,468
840.732239,463
840.850342,468
840.968445,477
841.086548,483
841.204651,480
841.322754,458
841.440918,445
841.55896,459
841.677002,487
841.795166,472
841.913208,481
842.031311,465
842.149353,473
842.267456,483
842.385498,480
842.503601,471
842.621643,488
842.739746,460
842.857788,454
842.97583,464
843.093933,475
843.211975,444
843.330017,462
843.44812,484
843.566101,451
843.684204,457
843.802246,463
843.920227,490
844.038269,449
844.156311,456
844.274292,480
844.392395,456
844.510376,459
844.628357,468
844.74646,454
844.864441,450
844.982422,458
845.100403,477
845.218384,467
845.336426,460
845.454468,448
845.572449,485
845.69043,469
845.808411,447
845.926453,460
846.044373,466
846.162354,463
846.280396,465
846.398315,461
846.516296,475
846.634216,475
846.752197,466
846.870178,480
846.988098,482
847.106079,463
847.22406,457
847.34198,477
847.4599,473
847.577881,467
847.695801,443
847.813782,477
847.931641,457
848.049561,471
848.167603,459
848.285461,480
848.403381,460
848.521362,470
848.639221,464
848.75708,480
848.875,466
848.99292,484
849.110901,476
849.22876,467
849.34668,466
849.464539,474
849.582458,458
849.700317,492
849.818176,469
849.936096,468
850.053955,457
850.171875,466
850.289673,469
850.407593,482
850.525452,451
850.643311,478
850.761169,480
850.878967,473
850.996887,479
851.114746,481
851.232544,479
851.350403,485
851.468262,459
851.58606,470
851.703979,462
851.821777,447
851.939636,470
852.057434,469
852.175232,477
852.293091,448
852.410889,475
852.528687,484
852.646545,471
852.764343,455
852.88208,465
852.999939,463
853.117676,454
853.235535,446
853.353271,474
853.471069,460
853.588928,453
853.706604,469
853.824402,477
853.9422,474
854.059998,456
854.177734,458
854.295532,478
854.413269,463
854.531006,480
854.648804,471
854.766541,466
854.884277,462
855.002014,468
855.119751,460
855.237549,468
855.355225,482
855.473022,466
855.590698,482
855.708435,468
855.826172,466
855.943848,475
856.061646,478
856.179321,480
856.296997,484
856.414795,448
856.53241,472
856.650085,472
856.767822,466
856.885559,467
857.003174,473
857.120911,459
857.238586,461
857.356201,465
857.473938,462
857.591614,468
857.709351,484
857.826965,482
857.944641,467
858.062317,459
858.179993,489
858.297668,462
858.415283,459
858.532959,479
858.650574,490
858.768188,485
858.885803,471
859.003479,464
859.121094,489
859.23877,459
859.356384,470
859.473999,469
859.591675,470
859.709229,454
859.826843,482
859.944458,474
860.062012,468
860.179626,462
860.297302,465
860.414856,450
860.532471,464
860.650024,455
860.767639,474
860.885193,472
861.002808,476
861.120361,464
861.237976,481
861.35553,469
861.473022,469
861.590698,470
861.708191,469
861.825745,454
861.943298,439
862.060852,459
862.178406,475
862.295959,463
862.413513,472
862.531006,479
862.64856,451
862.766113,489
862.883667,442
863.00116,453
863.118713,473
863.236206,465
863.353699,464
863.471252,470
863.588745,453
863.706177,450
863.82373,476
863.941162,458
864.058716,455
864.176208,453
864.29364,482
864.411194,455
864.528687,494
864.646118,454
864.763611,476
864.881042,447
864.998535,453
865.116028,458
865.233459,464
865.350891,476
865.468384,465
865.585754,463
865.703308,472
865.820679,463
865.938171,461
866.055542,472
866.173035,458
866.290466,479
866.407837,466
866.52533,487
866.6427,464
866.760071,468
866.877563,484
866.994934,465
867.112305,482
867.229736,470
867.347107,467
867.464539,489
867.58197,476
867.699341,458
867.81665,457
867.934082,460
868.051453,472
868.168823,470
868.286194,453
868.403564,472
868.520935,472
868.638306,480
868.755676,467
868.872986,459
868.990295,462
869.107727,458
869.225037,478
869.342346,463
869.459717,475
869.577026,448
869.694336,476
869.811707,459
869.929016,485
870.046326,467
870.163635,465
870.280945,465
870.398254,480
870.515564,462
870.632812,470
870.750183,485
870.867432,472
870.984741,475
871.102051,465
871.219299,466
871.336609,498
871.453918,487
871.571106,479
871.688416,471
871.805664,466
871.922852,455
872.040222,459
872.157471,449
872.274719,479
872.391968,460
872.509155,463
872.626465,470
872.743652,478
872.860962,476
872.978149,471
873.095337,463
873.212646,474
873.329834,463
873.44696,483
873.564209,471
873.681396,473
873.798645,457
873.915894,467
874.03302,478
874.150208,454
874.267456,459
874.384583,485
874.501831,461
874.618958,465
874.736145,495
874.853333,455
874.970459,478
875.087646,487
875.204834,459
875.32196,490
875.439148,457
875.556274,479
875.673401,484
875.790527,466
875.907715,460
876.024841,473
876.141968,474
876.259094,472
876.376282,444
876.493347,472
876.610474,468
876.7276,478
876.844727,478
876.961853,469
877.078918,471
877.195984,469
877.313171,470
877.430237,484
877.547302,481
877.664368,466
877.781433,457
877.898499,495
878.015625,462
878.13269,501
878.249695,471
878.366821,478
878.483887,482
878.600952,486
878.717957,469
878.834961,467
878.952087,468
879.069092,480
879.186157,478
879.303162,474
879.420227,470
879.537231,479
879.654236,445
879.77124,474
879.888306,471
880.005249,465
880.122314,463
880.239319,473
880.356323,473
880.473328,480
880.590271,476
880.707275,472
880.824341,464
880.941284,471
881.058228,483
881.175232,468
881.292236,470
881.40918,463
881.526123,479
881.643066,450
881.760071,465
881.877014,467
881.993958,477
882.11084,474
882.227783,470
882.344727,479
882.46167,460
882.578613,475
882.695618,478
882.812439,486
882.929382,474
883.046326,490
883.163208,479
883.280151,474
883.397034,464
883.513916,472
883.630798,477
883.747742,466
883.864563,479
883.981506,484
884.098389,461
884.21521,486
884.332153,486
884.448975,468
884.565796,482
884.682678,469
884.7995,473
884.916443,477
885.033264,497
885.150085,494
885.266968,489
885.383789,518
885.500671,475
885.617493,488
885.734314,483
885.851196,472
885.967896,488
886.084717,492
886.201599,475
886.318359,483
886.435181,470
886.552002,481
886.668762,477
886.785645,474
886.902344,467
887.019165,486
887.135925,496
887.252747,451
887.369446,481
887.486267,481
887.603027,484
887.719788,500
887.836548,495
887.953247,483
888.070068,462
888.186829,475
888.303528,486
888.420288,466
888.536987,489
888.653687,464
888.770447,470
888.887146,478
889.003967,461
889.120667,475
889.237305,492
889.354065,479
889.470703,481
889.587463,473
889.704163,489
889.820862,488
889.937561,463
890.054199,471
890.170837,472
890.287598,505
890.404236,456
890.520874,474
890.637634,475
890.754211,470
890.87085,492
890.987549,488
891.104187,465
891.220886,482
891.337463,487
891.454102,484
891.57074,478
891.687378,465
891.804077,478
891.920654,484
892.037231,499
892.15387,468
892.270447,479
892.387085,485
892.503723,459
892.6203,487
892.736877,472
892.853516,472
892.970032,472
893.08667,489
893.203186,491
893.319763,482
893.43634,460
893.552917,462
893.669556,483
893.786011,504
893.902588,492
894.019165,458
894.135681,494
894.252197,479
894.368835,478
894.485291,491
894.601868,487
894.718384,478
894.8349,468
894.951355,498
895.067932,485
895.184448,473
895.300964,474
895.417419,482
895.533936,484
895.650452,484
895.766907,496
895.883423,474
895.999878,489
896.116333,504
896.232849,477
896.349304,486
896.465759,476
896.582214,514
896.698669,470
896.815125,496
896.931641,469
897.048035,469
897.164551,484
897.280884,473
897.397339,495
897.513794,494
897.630249,497
897.746582,484
897.863098,471
897.979431,513
898.095886,479
898.212341,491
898.328674,486
898.445129,462
898.561462,509
898.677795,493
898.794312,480
898.910645,490
899.026978,488
899.143433,493
899.259766,475
899.37616,488
899.492493,482
899.608765,486
899.725159,495
899.841553,490
899.957947,494
900.07428,499
900.190552,482
900.306946,486
900.423157,476
900.53949,486
900.655884,472
900.772156,484
900.888489,486
901.004822,488
901.121033,505
901.237366,484
901.353699,497
901.46991,483
901.586304,493
901.702515,472
901.818787,498
901.93512,476
902.051331,483
902.167603,488
902.283875,486
902.400085,493
902.516418,494
902.632629,477
902.74884,471
902.865112,506
902.981384,475
903.097595,491
903.213867,483
903.330017,518
903.446289,510
903.5625,498
903.67865,492
903.794922,523
903.911072,479
904.027344,496
904.143494,498
904.259705,493
904.375916,502
904.492065,479
904.608215,495
904.724426,505
904.840576,499
904.956726,504
905.072876,466
905.189087,511
905.305176,486
905.421387,512
905.537537,486
905.653687,483
905.769775,480
905.885925,484
906.002014,477
906.118164,498
906.234314,468
906.350403,505
906.466492,499
906.582642,503
906.69873,490
906.814758,498
906.930908,501
907.046936,491
907.163086,495
907.279175,494
907.395264,475
907.511353,492
907.62738,479
907.743408,491
907.859497,498
907.975525,488
908.091553,493
908.207703,485
908.32373,483
908.439758,505
908.555786,477
908.671814,489
908.787842,494
908.90387,487
909.019775,490
909.135864,491
909.251892,499
909.367859,476
909.483826,505
909.599854,483
909.715881,501
909.831848,503
909.947815,496
910.063782,491
910.179749,482
910.295776,472
910.411743,472
910.527649,490
910.643616,495
910.759583,503
910.875488,480
910.991455,474
911.107361,484
911.223267,518
911.339294,501
911.4552,481
911.571106,465
911.687073,497
911.802979,498
911.918823,478
912.034729,490
912.150635,498
912.266602,481
912.382446,507
912.498352,499
912.614197,486
912.730103,486
912.846008,485
