792.44574,898
792.56488,902
792.68396,940
792.80304,889
792.92218,851
793.041199,817
793.160339,798
793.279419,773
793.398499,800
793.517578,752
793.636658,746
793.755737,772
793.874817,748
793.993896,739
794.112976,742
794.232056,733
794.351074,729
794.470215,708
794.589233,713
794.708313,693
794.827393,663
794.946411,700
795.065552,700
795.18457,692
795.303589,680
795.422668,664
795.541687,674
795.660767,657
795.779846,649
795.898865,666
796.017883,646
796.136963,634
796.255981,644
796.375061,650
796.49408,654
796.613037,619
796.732117,654
796.851135,650
796.970154,625
797.089233,644
797.208191,624
797.327271,600
797.446228,589
797.565186,618
797.684265,611
797.803223,596
797.922241,607
798.04126,603
798.160278,606
798.279297,621
798.398315,592
798.517273,581
798.636292,599
798.75531,603
798.874268,613
798.993286,602
799.112244,599
799.231323,562
799.350281,585
799.469238,601
799.588257,592
799.707153,581
799.826111,572
799.945129,562
800.064087,573
800.183044,576
800.302063,559
800.421021,562
800.539978,579
800.658936,572
800.777893,554
800.896912,543
801.015747,575
801.134705,573
801.253723,592
801.37262,585
801.491638,596
801.610535,544
801.729492,568
801.84845,564
801.967407,546
802.086243,571
802.205261,555
802.324158,576
802.443115,566
802.562073,563
802.680969,564
802.799927,574
802.918762,583
803.037659,552
803.156677,556
803.275574,571
803.39447,563
803.513428,549
803.632263,555
803.751221,570
803.870117,550
803.989014,556
804.107971,562
804.226746,560
804.345642,549
804.4646,563
804.583496,555
804.702393,552
804.821228,552
804.940125,582
805.059021,556
805.177917,542
805.296814,557
805.415649,559
805.534546,546
805.653442,559
805.772278,550
805.891113,532
806.01001,565
806.128906,541
806.247742,580
806.366577,541
806.485413,547
806.604309,560
806.723145,565
806.84198,539
806.960876,584
807.079712,554
807.198486,593
807.317383,565
807.436218,560
807.554993,554
807.673889,548
807.792725,538
807.91156,568
808.030396,572
808.14917,560
808.268005,563
808.386841,598
808.505676,556
808.624451,560
808.743286,530
808.862122,561
808.980896,553
809.099731,549
809.218506,572
809.337341,565
809.456116,545
809.57489,547
809.693726,560
809.8125,553
809.931274,565
810.050049,567
810.168884,551
810.287659,566
810.406372,566
810.525269,562
810.643982,557
810.762756,568
810.881531,549
811.000305,554
811.11908,550
811.237854,564
811.356567,544
811.475403,534
811.594116,572
811.71283,572
811.831604,563
811.950378,549
812.069153,558
812.187927,544
812.30658,544
812.425415,574
812.544128,570
812.662781,546
812.781616,589
812.900269,530
813.019043,554
813.137756,556
813.256531,562
813.375244,564
813.493896,541
813.612671,576
813.731384,566
813.850037,566
813.96875,554
814.087524,560
814.206238,546
814.324951,571
814.443604,536
814.562256,544
814.68103,545
814.799683,538
814.918335,541
815.037109,537
815.155762,545
815.274475,557
815.393188,543
815.511841,550
815.630554,554
815.749146,551
815.867859,532
815.986572,563
816.105164,532
816.223877,547
816.342529,528
816.461182,560
816.579895,542
816.698486,555
816.817139,559
816.935791,539
817.054504,539
817.173096,566
817.291748,552
817.4104,540
817.529053,552
817.647644,543
817.766235,518
817.884949,536
818.00354,530
818.122192,531
818.240845,532
818.359436,521
818.478088,535
818.59668,512
818.715271,521
818.833923,492
818.952515,511
819.071106,510
819.189758,502
819.30835,508
819.426941,484
819.545532,526
819.664124,477
819.782715,501
819.901306,505
820.019897,489
820.138489,477
820.25708,510
820.375671,477
820.494202,498
820.612732,485
820.731384,506
820.849915,503
820.968506,496
821.087097,467
821.205627,503
821.324158,494
821.442749,480
821.561279,479
821.679871,500
821.798401,477
821.916931,497
822.035461,491
822.154053,494
822.272583,480
822.391174,489
822.509583,465
822.628174,494
822.746704,459
822.865234,485
822.983765,464
823.102295,480
823.220825,475
823.339294,455
823.457825,481
823.576355,462
823.694824,465
823.813354,473
823.931885,466
824.050354,504
824.168884,478
824.287354,468
824.405823,501
824.524353,496
824.642822,489
824.761353,477
824.879822,481
824.998291,492
825.116699,486
825.235291,471
825.353699,467
825.472168,500
825.590637,481
825.709106,468
825.827576,446
825.946045,474
826.064453,478
826.182983,494
826.301392,476
826.4198,469
826.53833,479
826.656738,483
826.775208,473
826.893677,469
827.012024,463
827.130493,455
827.248962,475
827.36731,481
827.485779,478
827.604248,472
827.722595,460
827.841064,468
827.959412,476
828.077942,479
828.196289,464
828.314636,494
828.433105,461
828.551514,473
828.669861,455
828.78833,469
828.906677,473
829.025085,468
829.143433,461
829.261841,463
829.38031,474
829.498657,466
829.617004,479
829.735413,471
829.85376,473
829.972107,470
830.090515,462
830.208862,446
830.327209,454
830.445557,467
830.563904,479
830.682312,464
830.800659,474
830.919006,464
831.037354,474
831.155701,482
831.274048,459
831.392395,492
831.51062,484
831.629028,470
831.747314,493
831.865662,481
831.984009,473
832.102356,463
832.220642,448
832.338928,489
832.457275,486
832.575623,464
832.693909,469
832.812134,459
832.930481,460
833.048828,467
833.167114,465
833.2854,470
833.403687,475
833.521973,482
833.640259,465
833.758545,488
833.876831,472
833.995056,476
834.113281,475
834.231628,482
834.349915,470
834.468201,480
834.586426,474
834.704651,467
834.822998,478
834.941162,455
835.059448,454
835.177673,481
835.295959,468
835.414246,481
835.53241,473
835.650635,486
835.768921,475
835.887146,477
836.005371,456
836.123596,491
836.241821,464
836.360046,470
836.478271,483
836.596497,466
836.714722,462
836.832886,496
836.95105,465
837.069336,465
837.1875,465
837.305725,472
837.423889,463
837.542053,483
837.660339,486
837.778503,486
837.896667,475
838.014832,477
838.132996,473
838.25116,480
838.369385,481
838.487488,496
838.605713,477
838.723877,476
838.84198,475
838.960205,488
839.078308,462
839.196472,474
839.314636,471
839.4328,458
839.550964,474
839.669067,491
839.787231,468
839.905396,478
840.023499,477
840.141602,469
840.259766,472
840.377869,474
840.495972,485
840.614136,486
840.732239,484
840.850342,485
840.968445,479
841.086548,499
841.204651,462
841.322754,477
841.440918,503
841.55896,499
841.677002,498
841.795166,472
841.913208,505
842.031311,522
842.149353,495
842.267456,488
842.385498,488
842.503601,515
842.621643,504
842.739746,478
842.857788,479
842.97583,498
843.093933,487
843.211975,488
843.330017,488
843.44812,491
843.566101,474
843.684204,515
843.802246,483
843.920227,505
844.038269,498
844.156311,511
844.274292,485
844.392395,485
844.510376,482
844.628357,501
844.74646,472
844.864441,492
844.982422,491
845.100403,498
845.218384,468
845.336426,518
845.454468,486
845.572449,488
845.69043,489
845.808411,473
845.926453,471
846.044373,472
846.162354,485
846.280396,510
846.398315,487
846.516296,470
846.634216,493
846.752197,485
846.870178,465
846.988098,505
847.106079,474
847.22406,487
847.34198,494
847.4599,506
847.577881,474
847.695801,515
847.813782,485
847.931641,503
848.049561,472
848.167603,473
848.285461,481
848.403381,506
848.521362,464
848.639221,497
848.75708,486
848.875,501
848.99292,493
849.110901,485
849.22876,484
849.34668,496
849.464539,496
849.582458,493
849.700317,472
849.818176,507
849.936096,471
850.053955,481
850.171875,485
850.289673,483
850.407593,509
850.525452,483
850.643311,489
850.761169,500
850.878967,495
850.996887,505
851.114746,487
851.232544,491
851.350403,466
851.468262,491
851.58606,471
851.703979,494
851.821777,483
851.939636,483
852.057434,513
852.175232,488
852.293091,494
852.410889,479
852.528687,480
852.646545,502
852.764343,508
852.88208,492
852.999939,489
853.117676,494
853.235535,485
853.353271,489
853.471069,487
853.588928,487
853.706604,487
853.824402,494
853.9422,480
854.059998,475
854.177734,489
854.295532,485
854.413269,494
854.531006,488
854.648804,484
854.766541,481
854.884277,490
855.002014,499
855.119751,475
855.237549,496
855.355225,485
855.473022,478
855.590698,470
855.708435,483
855.826172,500
855.943848,493
856.061646,475
856.179321,510
856.296997,477
856.414795,480
856.53241,513
856.650085,483
856.767822,499
856.885559,506
857.003174,491
857.120911,500
857.238586,507
857.356201,506
857.473938,481
857.591614,507
857.709351,513
857.826965,487
857.944641,503
858.062317,503
858.179993,503
858.297668,492
858.415283,512
858.532959,497
858.650574,501
858.768188,496
858.885803,486
859.003479,492
859.121094,491
859.23877,510
859.356384,475
859.473999,483
859.591675,485
859.709229,479
859.826843,503
859.944458,488
860.062012,478
860.179626,465
860.297302,486
860.414856,481
860.532471,476
860.650024,486
860.767639,483
860.885193,502
861.002808,469
861.120361,475
861.237976,498
861.35553,493
861.473022,475
861.590698,495
861.708191,463
861.825745,487
861.943298,469
862.060852,479
862.178406,485
862.295959,474
862.413513,482
862.531006,482
862.64856,477
862.766113,497
862.883667,483
863.00116,476
863.118713,471
863.236206,500
863.353699,473
863.471252,483
863.588745,472
863.706177,488
863.82373,481
863.941162,489
864.058716,484
864.176208,487
864.29364,480
864.411194,490
864.528687,469
864.646118,479
864.763611,473
864.881042,467
864.998535,472
865.116028,487
865.233459,452
865.350891,444
865.468384,493
865.585754,474
865.703308,497
865.820679,464
865.938171,468
866.055542,469
866.173035,501
866.290466,463
866.407837,483
866.52533,482
866.6427,478
866.760071,491
866.877563,474
866.994934,489
867.112305,482
867.229736,493
867.347107,484
867.464539,462
867.58197,459
867.699341,469
867.81665,481
867.934082,477
868.051453,507
868.168823,457
868.286194,496
868.403564,485
868.520935,484
868.638306,484
868.755676,490
868.872986,481
868.990295,473
869.107727,483
869.225037,483
869.342346,487
869.459717,492
869.577026,489
869.694336,490
869.811707,484
869.929016,485
870.046326,493
870.163635,471
870.280945,491
870.398254,492
870.515564,487
870.632812,504
870.750183,474
870.867432,501
870.984741,508
871.102051,484
871.219299,505
871.336609,501
871.453918,504
871.571106,500
871.688416,493
871.805664,495
871.922852,494
872.040222,500
872.157471,506
872.274719,509
872.391968,499
872.509155,499
872.626465,523
872.743652,521
872.860962,511
872.978149,485
873.095337,504
873.212646,503
873.329834,506
873.44696,485
873.564209,488
873.681396,498
873.798645,513
873.915894,508
874.03302,515
874.150208,509
874.267456,515
874.384583,491
874.501831,498
874.618958,514
874.736145,503
874.853333,510
874.970459,513
875.087646,510
875.204834,515
875.32196,514
875.439148,519
875.556274,503
875.673401,501
875.790527,481
875.907715,493
876.024841,492
876.141968,507
876.259094,487
876.376282,488
876.493347,492
876.610474,498
876.7276,484
876.844727,483
876.961853,479
877.078918,500
877.195984,519
877.313171,492
877.430237,481
877.547302,461
877.664368,488
877.781433,497
877.898499,503
878.015625,492
878.13269,485
878.249695,486
878.366821,510
878.483887,493
878.600952,486
878.717957,496
878.834961,479
878.952087,489
879.069092,473
879.186157,497
879.303162,474
879.420227,460
879.537231,474
879.654236,481
879.77124,469
879.888306,490
880.005249,476
880.122314,471
880.239319,451
880.356323,491
880.473328,480
880.590271,461
880.707275,474
880.824341,483
880.941284,475
881.058228,490
881.175232,476
881.292236,469
881.40918,473
881.526123,485
881.643066,447
881.760071,480
881.877014,472
881.993958,493
882.11084,479
882.227783,474
882.344727,478
882.46167,492
882.578613,480
882.695618,481
882.812439,461
882.929382,489
883.046326,467
883.163208,456
883.280151,467
883.397034,488
883.513916,480
883.630798,467
883.747742,481
883.864563,469
883.981506,480
884.098389,490
884.21521,463
884.332153,501
884.448975,493
884.565796,483
884.682678,496
884.7995,511
884.916443,511
885.033264,528
885.150085,509
885.266968,529
885.383789,528
885.500671,569
885.617493,547
885.734314,554
885.851196,520
885.967896,517
886.084717,548
886.201599,533
886.318359,521
886.435181,543
886.552002,534
886.668762,515
886.785645,532
886.902344,507
887.019165,519
887.135925,533
887.252747,524
887.369446,511
887.486267,494
887.603027,499
887.719788,492
887.836548,487
887.953247,498
888.070068,493
888.186829,481
888.303528,499
888.420288,475
888.536987,485
888.653687,471
888.770447,479
888.887146,475
889.003967,484
889.120667,458
889.237305,459
889.354065,473
889.470703,471
889.587463,463
889.704163,471
889.820862,466
889.937561,474
890.054199,462
890.170837,479
890.287598,461
890.404236,457
890.520874,467
890.637634,477
890.754211,476
890.87085,473
890.987549,464
891.104187,484
891.220886,469
891.337463,479
891.454102,476
891.57074,487
891.687378,488
891.804077,491
891.920654,471
892.037231,481
892.15387,476
892.270447,477
892.387085,482
892.503723,474
892.6203,464
892.736877,477
892.853516,491
892.970032,484
893.08667,468
893.203186,475
893.319763,479
893.43634,476
893.552917,475
893.669556,478
893.786011,469
893.902588,464
894.019165,478
894.135681,486
894.252197,478
894.368835,460
894.485291,469
894.601868,477
894.718384,472
894.8349,486
894.951355,464
895.067932,475
895.184448,470
895.300964,487
895.417419,462
895.533936,481
895.650452,460
895.766907,493
895.883423,477
895.999878,484
896.116333,476
896.232849,474
896.349304,482
896.465759,472
896.582214,475
896.698669,464
896.815125,474
896.931641,486
897.048035,466
897.164551,465
897.280884,482
897.397339,473
897.513794,454
897.630249,484
897.746582,474
897.863098,466
897.979431,475
898.095886,459
898.212341,477
898.328674,496
898.445129,497
898.561462,479
898.677795,485
898.794312,478
898.910645,468
899.026978,492
899.143433,465
899.259766,479
899.37616,469
899.492493,481
899.608765,485
899.725159,479
899.841553,477
899.957947,472
900.07428,487
900.190552,487
900.306946,478
900.423157,477
900.53949,471
900.655884,496
900.772156,492
900.888489,485
901.004822,472
901.121033,481
901.237366,479
901.353699,478
901.46991,491
901.586304,489
901.702515,474
901.818787,484
901.93512,505
902.051331,508
902.167603,508
902.283875,524
902.400085,507
902.516418,536
902.632629,500
902.74884,507
902.865112,508
902.981384,508
903.097595,525
903.213867,504
903.330017,505
903.446289,519
903.5625,498
903.67865,503
903.794922,509
903.911072,505
904.027344,483
904.143494,499
904.259705,498
904.375916,511
904.492065,495
904.608215,490
904.724426,466
904.840576,475
904.956726,505
905.072876,486
905.189087,463
905.305176,462
905.421387,480
905.537537,481
905.653687,469
905.769775,470
905.885925,491
906.002014,482
906.118164,477
906.234314,464
906.350403,474
906.466492,480
906.582642,454
906.69873,467
906.814758,495
906.930908,479
907.046936,457
907.163086,449
907.279175,482
907.395264,474
907.511353,471
907.62738,480
907.743408,454
907.859497,476
907.975525,465
908.091553,482
908.207703,465
908.32373,487
908.439758,470
908.555786,488
908.671814,468
908.787842,482
908.90387,484
909.019775,482
909.135864,483
909.251892,464
909.367859,470
909.483826,475
909.599854,496
909.715881,456
909.831848,465
909.947815,486
910.063782,496
910.179749,475
910.295776,479
910.411743,469
910.527649,461
910.643616,469
910.759583,479
910.875488,481
910.991455,490
911.107361,466
911.223267,481
911.339294,483
911.4552,466
911.571106,484
911.687073,474
911.802979,472
911.918823,465
912.034729,478
912.150635,471
912.266602,451
912.382446,464
912.498352,474
912.614197,464
912.730103,462
912.846008,467
792.44574,892
792.56488,843
792.68396,923
792.80304,897
792.92218,826
793.041199,813
793.160339,780
793.279419,794
793.398499,771
793.517578,775
793.636658,741
793.755737,770
793.874817,771
793.993896,767
794.112976,752
794.232056,732
794.351074,720
794.470215,712
794.589233,708
794.708313,701
794.827393,703
794.946411,692
795.065552,693
795.18457,701
795.303589,688
795.422668,688
795.541687,671
795.660767,678
795.779846,646
795.898865,659
796.017883,648
796.136963,659
796.255981,644
796.375061,652
796.49408,645
796.613037,619
796.732117,635
796.851135,626
796.970154,625
797.089233,643
797.208191,607
797.327271,654
797.446228,610
797.565186,616
797.684265,614
797.803223,633
797.922241,625
798.04126,608
798.160278,617
798.279297,594
798.398315,593
798.517273,603
798.636292,604
798.75531,601
798.874268,571
798.993286,617
799.112244,596
799.231323,626
799.350281,623
799.469238,568
799.588257,579
799.707153,587
799.826111,571
799.945129,587
800.064087,598
800.183044,585
800.302063,585
800.421021,575
800.539978,604
800.658936,605
800.777893,581
800.896912,593
801.015747,580
801.134705,585
801.253723,570
801.37262,569
801.491638,558
801.610535,597
801.729492,581
801.84845,545
801.967407,588
802.086243,556
802.205261,553
802.324158,581
802.443115,542
802.562073,575
802.680969,574
802.799927,565
802.918762,569
803.037659,552
803.156677,573
803.275574,591
803.39447,567
803.513428,568
803.632263,571
803.751221,558
803.870117,561
803.989014,571
804.107971,568
804.226746,564
804.345642,552
804.4646,561
804.583496,545
804.702393,566
804.821228,564
804.940125,570
805.059021,559
805.177917,574
805.296814,557
805.415649,561
805.534546,561
805.653442,573
805.772278,599
805.891113,551
806.01001,567
806.128906,560
806.247742,568
806.366577,571
806.485413,562
806.604309,544
806.723145,562
806.84198,556
806.960876,553
807.079712,555
807.198486,575
807.317383,568
807.436218,565
807.554993,534
807.673889,554
807.792725,557
807.91156,554
808.030396,562
808.14917,559
808.268005,567
808.386841,580
808.505676,575
808.624451,546
808.743286,583
808.862122,547
808.980896,564
809.099731,555
809.218506,559
809.337341,558
809.456116,552
809.57489,555
809.693726,561
809.8125,556
809.931274,584
810.050049,559
810.168884,555
810.287659,539
810.406372,568
810.525269,557
810.643982,551
810.762756,563
810.881531,583
811.000305,576
811.11908,559
811.237854,564
811.356567,565
811.475403,582
811.594116,569
811.71283,568
811.831604,573
811.950378,549
812.069153,570
812.187927,574
812.30658,587
812.425415,572
812.544128,556
812.662781,564
812.781616,585
812.900269,559
813.019043,568
813.137756,542
813.256531,556
813.375244,572
813.493896,570
813.612671,557
813.731384,548
813.850037,544
813.96875,556
814.087524,527
814.206238,551
814.324951,578
814.443604,550
814.562256,537
814.68103,573
814.799683,532
814.918335,587
815.037109,537
815.155762,531
815.274475,524
815.393188,549
815.511841,539
815.630554,548
815.749146,550
815.867859,542
815.986572,547
816.105164,562
816.223877,532
816.342529,549
816.461182,547
816.579895,552
816.698486,547
816.817139,547
816.935791,541
817.054504,545
817.173096,547
817.291748,554
817.4104,554
817.529053,520
817.647644,536
817.766235,536
817.884949,519
818.00354,543
818.122192,523
818.240845,506
818.359436,533
818.478088,523
818.59668,513
818.715271,515
818.833923,515
818.952515,512
819.071106,504
819.189758,524
819.30835,499
819.426941,519
819.545532,504
819.664124,506
819.782715,517
819.901306,524
820.019897,499
820.138489,495
820.25708,491
820.375671,523
820.494202,488
820.612732,496
820.731384,498
820.849915,488
820.968506,482
821.087097,499
821.205627,499
821.324158,501
821.442749,488
821.561279,496
821.679871,496
821.798401,499
821.916931,500
822.035461,478
822.154053,486
822.272583,471
822.391174,490
822.509583,482
822.628174,479
822.746704,496
822.865234,491
822.983765,485
823.102295,487
823.220825,478
823.339294,489
823.457825,474
823.576355,467
823.694824,475
823.813354,481
823.931885,489
824.050354,490
824.168884,494
824.287354,490
824.405823,489
824.524353,491
824.642822,488
824.761353,481
824.879822,508
824.998291,495
825.116699,495
825.235291,486
825.353699,490
825.472168,486
825.590637,486
825.709106,488
825.827576,492
825.946045,487
826.064453,502
826.182983,468
826.301392,478
826.4198,473
826.53833,485
826.656738,463
826.775208,484
826.893677,472
827.012024,480
827.130493,479
827.248962,489
827.36731,469
827.485779,467
827.604248,488
827.722595,475
827.841064,463
827.959412,472
828.077942,462
828.196289,472
828.314636,463
828.433105,491
828.551514,477
828.669861,458
828.78833,478
828.906677,475
829.025085,457
829.143433,475
829.261841,455
829.38031,462
829.498657,454
829.617004,468
829.735413,455
829.85376,471
829.972107,464
830.090515,480
830.208862,465
830.327209,471
830.445557,456
830.563904,451
830.682312,462
830.800659,487
830.919006,470
831.037354,477
831.155701,470
831.274048,461
831.392395,465
831.51062,490
831.629028,477
831.747314,461
831.865662,497
831.984009,492
832.102356,494
832.220642,471
832.338928,451
832.457275,475
832.575623,479
832.693909,474
832.812134,474
832.930481,480
833.048828,475
833.167114,478
833.2854,474
833.403687,472
833.521973,491
833.640259,481
833.758545,481
833.876831,478
833.995056,477
834.113281,476
834.231628,487
834.349915,477
834.468201,488
834.586426,464
834.704651,487
834.822998,465
834.941162,482
835.059448,460
835.177673,474
835.295959,479
835.414246,474
835.53241,489
835.650635,477
835.768921,473
835.887146,490
836.005371,473
836.123596,476
836.241821,469
836.360046,461
836.478271,459
836.596497,482
836.714722,459
836.832886,481
836.95105,471
837.069336,460
837.1875,479
837.305725,485
837.423889,507
837.542053,476
837.660339,472
837.778503,478
837.896667,484
838.014832,447
838.132996,497
838.25116,484
838.369385,472
838.487488,473
838.605713,478
838.723877,477
838.84198,492
838.960205,476
839.078308,500
839.196472,469
839.314636,482
839.4328,487
839.550964,493
839.669067,491
839.787231,502
839.905396,492
840.023499,461
840.141602,485
840.259766,496
840.377869,502
840.495972,493
840.614136,492
840.732239,489
840.850342,485
840.968445,493
841.086548,474
841.204651,501
841.322754,483
841.440918,510
841.55896,481
841.677002,471
841.795166,495
841.913208,513
842.031311,521
842.149353,487
842.267456,488
842.385498,494
842.503601,474
842.621643,494
842.739746,482
842.857788,479
842.97583,484
843.093933,489
843.211975,514
843.330017,500
843.44812,477
843.566101,495
843.684204,485
843.802246,460
843.920227,520
844.038269,501
844.156311,505
844.274292,506
844.392395,497
844.510376,499
844.628357,513
844.74646,505
844.864441,496
844.982422,471
845.100403,479
845.218384,484
845.336426,483
845.454468,504
845.572449,482
845.69043,496
845.808411,485
845.926453,481
846.044373,477
846.162354,490
846.280396,501
846.398315,493
846.516296,476
846.634216,501
846.752197,487
846.870178,485
846.988098,491
847.106079,491
847.22406,487
847.34198,505
847.4599,474
847.577881,490
847.695801,473
847.813782,502
847.931641,474
848.049561,504
848.167603,485
848.285461,491
848.403381,510
848.521362,516
848.639221,499
848.75708,488
848.875,478
848.99292,491
849.110901,497
849.22876,507
849.34668,490
849.464539,489
849.582458,487
849.700317,489
849.818176,514
849.936096,500
850.053955,496
850.171875,502
850.289673,493
850.407593,485
850.525452,500
850.643311,481
850.761169,473
850.878967,510
850.996887,486
851.114746,496
851.232544,502
851.350403,488
851.468262,494
851.58606,483
851.703979,493
851.821777,495
851.939636,482
852.057434,507
852.175232,500
852.293091,480
852.410889,484
852.528687,515
852.646545,521
852.764343,509
852.88208,517
852.999939,493
853.117676,492
853.235535,485
853.353271,487
853.471069,488
853.588928,483
853.706604,483
853.824402,510
853.9422,494
854.059998,482
854.177734,475
854.295532,495
854.413269,495
854.531006,492
854.648804,485
854.766541,501
854.884277,488
855.002014,503
855.119751,492
855.237549,488
855.355225,484
855.473022,475
855.590698,508
855.708435,488
855.826172,500
855.943848,494
856.061646,485
856.179321,485
856.296997,486
856.414795,475
856.53241,498
856.650085,497
856.767822,484
856.885559,513
857.003174,504
857.120911,507
857.238586,530
857.356201,496
857.473938,484
857.591614,499
857.709351,513
857.826965,495
857.944641,502
858.062317,505
858.179993,512
858.297668,496
858.415283,501
858.532959,509
858.650574,502
858.768188,508
858.885803,517
859.003479,496
859.121094,487
859.23877,505
859.356384,502
859.473999,505
859.591675,508
859.709229,477
859.826843,494
859.944458,478
860.062012,511
860.179626,474
860.297302,492
860.414856,499
860.532471,494
860.650024,483
860.767639,502
860.885193,505
861.002808,465
861.120361,464
861.237976,506
861.35553,478
861.473022,479
861.590698,495
861.708191,494
861.825745,488
861.943298,507
862.060852,486
862.178406,470
862.295959,486
862.413513,484
862.531006,464
862.64856,470
862.766113,469
862.883667,477
863.00116,478
863.118713,482
863.236206,481
863.353699,470
863.471252,482
863.588745,496
863.706177,474
863.82373,488
863.941162,485
864.058716,468
864.176208,507
864.29364,487
864.411194,493
864.528687,479
864.646118,478
864.763611,486
864.881042,471
864.998535,476
865.116028,479
865.233459,489
865.350891,473
865.468384,474
865.585754,487
865.703308,472
865.820679,478
865.938171,483
866.055542,472
866.173035,480
866.290466,483
866.407837,486
866.52533,490
866.6427,477
866.760071,458
866.877563,463
866.994934,476
867.112305,508
867.229736,488
867.347107,492
867.464539,496
867.58197,505
867.699341,488
867.81665,487
867.934082,491
868.051453,498
868.168823,504
868.286194,480
868.403564,483
868.520935,501
868.638306,484
868.755676,482
868.872986,478
868.990295,508
869.107727,480
869.225037,482
869.342346,478
869.459717,512
869.577026,489
869.694336,502
869.811707,482
869.929016,513
870.046326,506
870.163635,510
870.280945,482
870.398254,488
870.515564,494
870.632812,501
870.750183,479
870.867432,506
870.984741,537
871.102051,486
871.219299,488
871.336609,495
871.453918,508
871.571106,514
871.688416,520
871.805664,504
871.922852,500
872.040222,502
872.157471,512
872.274719,510
872.391968,512
872.509155,508
872.626465,526
872.743652,508
872.860962,495
872.978149,529
873.095337,518
873.212646,495
873.329834,503
873.44696,500
873.564209,500
873.681396,471
873.798645,505
873.915894,503
874.03302,505
874.150208,507
874.267456,503
874.384583,505
874.501831,502
874.618958,518
874.736145,519
874.853333,519
874.970459,512
875.087646,549
875.204834,500
875.32196,507
875.439148,497
875.556274,512
875.673401,519
875.790527,509
875.907715,516
876.024841,498
876.141968,501
876.259094,485
876.376282,502
876.493347,490
876.610474,494
876.7276,508
876.844727,490
876.961853,493
877.078918,507
877.195984,479
877.313171,491
877.430237,484
877.547302,499
877.664368,505
877.781433,489
877.898499,493
878.015625,489
878.13269,477
878.249695,497
878.366821,479
878.483887,483
878.600952,503
878.717957,482
878.834961,477
878.952087,486
879.069092,483
879.186157,489
879.303162,458
879.420227,480
879.537231,481
879.654236,475
879.77124,483
879.888306,486
880.005249,478
880.122314,482
880.239319,483
880.356323,497
880.473328,487
880.590271,480
880.707275,489
880.824341,511
880.941284,480
881.058228,470
881.175232,491
881.292236,479
881.40918,476
881.526123,487
881.643066,481
881.760071,489
881.877014,460
881.993958,505
882.11084,464
882.227783,475
882.344727,472
882.46167,479
882.578613,481
882.695618,496
882.812439,490
882.929382,494
883.046326,475
883.163208,495
883.280151,486
883.397034,491
883.513916,488
883.630798,475
883.747742,508
883.864563,485
883.981506,483
884.098389,480
884.21521,492
884.332153,489
884.448975,491
884.565796,502
884.682678,506
884.7995,495
884.916443,504
885.033264,520
885.150085,546
885.266968,554
885.383789,547
885.500671,558
885.617493,548
885.734314,559
885.851196,565
885.967896,535
886.084717,528
886.201599,560
886.318359,533
886.435181,542
886.552002,524
886.668762,537
886.785645,518
886.902344,537
887.019165,533
887.135925,524
887.252747,521
887.369446,513
887.486267,502
887.603027,502
887.719788,509
887.836548,483
887.953247,515
888.070068,517
888.186829,500
888.303528,485
888.420288,473
888.536987,487
888.653687,490
888.770447,471
888.887146,487
889.003967,469
889.120667,494
889.237305,486
889.354065,487
889.470703,474
889.587463,482
889.704163,497
889.820862,464
889.937561,468
890.054199,474
890.170837,488
890.287598,460
890.404236,478
890.520874,488
890.637634,490
890.754211,497
890.87085,468
890.987549,485
891.104187,472
891.220886,477
891.337463,474
891.454102,496
891.57074,479
891.687378,476
891.804077,483
891.920654,478
892.037231,490
892.15387,487
892.270447,469
892.387085,474
892.503723,480
892.6203,496
892.736877,460
892.853516,460
892.970032,483
893.08667,462
893.203186,456
893.319763,466
893.43634,467
893.552917,480
893.669556,488
893.786011,479
893.902588,476
894.019165,496
894.135681,486
894.252197,493
894.368835,475
894.485291,478
894.601868,485
894.718384,487
894.8349,476
894.951355,475
895.067932,470
895.184448,458
895.300964,463
895.417419,481
895.533936,489
895.650452,464
895.766907,480
895.883423,478
895.999878,477
896.116333,502
896.232849,459
896.349304,477
896.465759,486
896.582214,461
896.698669,496
896.815125,467
896.931641,484
897.048035,473
897.164551,473
897.280884,476
897.397339,466
897.513794,468
897.630249,484
897.746582,493
897.863098,484
897.979431,474
898.095886,467
898.212341,482
898.328674,475
898.445129,473
898.561462,499
898.677795,486
898.794312,482
898.910645,491
899.026978,482
899.143433,476
899.259766,477
899.37616,471
899.492493,495
899.608765,484
899.725159,452
899.841553,489
899.957947,490
900.07428,477
900.190552,460
900.306946,462
900.423157,492
900.53949,484
900.655884,483
900.772156,482
900.888489,491
901.004822,484
901.121033,480
901.237366,485
901.353699,486
901.46991,495
901.586304,499
901.702515,490
901.818787,496
901.93512,515
902.051331,501
902.167603,520
902.283875,506
902.400085,510
902.516418,505
902.632629,510
902.74884,533
902.865112,550
902.981384,518
903.097595,530
903.213867,529
903.330017,513
903.446289,514
903.5625,517
903.67865,481
903.794922,500
903.911072,507
904.027344,518
904.143494,505
904.259705,500
904.375916,472
904.492065,492
904.608215,491
904.724426,510
904.840576,488
904.956726,488
905.072876,478
905.189087,474
905.305176,481
905.421387,490
905.537537,483
905.653687,498
905.769775,467
905.885925,474
906.002014,473
906.118164,499
906.234314,472
906.350403,473
906.466492,488
906.582642,498
906.69873,475
906.814758,472
906.930908,486
907.046936,467
907.163086,462
907.279175,496
907.395264,476
907.511353,484
907.62738,481
907.743408,480
907.859497,474
907.975525,491
908.091553,470
908.207703,491
908.32373,471
908.439758,491
908.555786,474
908.671814,486
908.787842,455
908.90387,508
909.019775,482
909.135864,484
909.251892,473
909.367859,460
909.483826,473
909.599854,498
909.715881,488
909.831848,499
909.947815,468
910.063782,495
910.179749,478
910.295776,491
910.411743,479
910.527649,470
910.643616,495
910.759583,517
910.875488,473
910.991455,479
911.107361,469
911.223267,490
911.339294,479
911.4552,480
911.571106,488
911.687073,475
911.802979,472
911.918823,483
912.034729,469
912.150635,463
912.266602,474
912.382446,474
912.498352,470
912.614197,496
912.730103,491
912.846008,476
792.44574,922
792.56488,915
792.68396,895
792.80304,906
792.92218,814
793.041199,825
793.160339,811
793.279419,804
793.398499,796
793.517578,779
793.636658,720
793.755737,761
793.874817,759
793.993896,754
794.112976,748
794.232056,744
794.351074,711
794.470215,733
794.589233,697
794.708313,697
794.827393,703
794.946411,709
795.065552,684
795.18457,698
795.303589,690
795.422668,685
795.541687,673
795.660767,689
795.779846,655
795.898865,656
796.017883,646
796.136963,664
796.255981,649
796.375061,663
796.49408,633
796.613037,631
796.732117,652
796.851135,641
796.970154,628
797.089233,618
797.208191,614
797.327271,611
797.446228,634
797.565186,619
797.684265,641
797.803223,619
797.922241,618
798.04126,608
798.160278,591
798.279297,590
798.398315,629
798.517273,605
798.636292,621
798.75531,570
798.874268,605
798.993286,591
799.112244,598
799.231323,616
799.350281,588
799.469238,595
799.588257,606
799.707153,593
799.826111,624
799.945129,582
800.064087,575
800.183044,609
800.302063,578
800.421021,584
800.539978,586
800.658936,612
800.777893,577
800.896912,590
801.015747,584
801.134705,583
801.253723,587
801.37262,585
801.491638,570
801.610535,575
801.729492,593
801.84845,566
801.967407,576
802.086243,569
802.205261,549
802.324158,575
802.443115,557
802.562073,590
802.680969,607
802.799927,579
802.918762,567
803.037659,576
803.156677,564
803.275574,559
803.39447,558
803.513428,575
803.632263,564
803.751221,585
803.870117,541
803.989014,552
804.107971,579
804.226746,558
804.345642,567
804.4646,569
804.583496,573
804.702393,564
804.821228,566
804.940125,571
805.059021,555
805.177917,567
805.296814,537
805.415649,576
805.534546,565
805.653442,571
805.772278,561
805.891113,586
806.01001,560
806.128906,562
806.247742,572
806.366577,555
806.485413,547
806.604309,562
806.723145,575
806.84198,539
806.960876,565
807.079712,564
807.198486,562
807.317383,554
807.436218,543
807.554993,570
807.673889,557
807.792725,549
807.91156,548
808.030396,575
808.14917,557
808.268005,585
808.386841,556
808.505676,565
808.624451,557
808.743286,563
808.862122,544
808.980896,567
809.099731,549
809.218506,565
809.337341,557
809.456116,566
809.57489,588
809.693726,568
809.8125,561
809.931274,556
810.050049,562
810.168884,569
810.287659,559
810.406372,550
810.525269,552
810.643982,567
810.762756,558
810.881531,555
811.000305,555
811.11908,573
811.237854,559
811.356567,571
811.475403,559
811.594116,553
811.71283,566
811.831604,567
811.950378,558
812.069153,580
812.187927,569
812.30658,566
812.425415,549
812.544128,564
812.662781,567
812.781616,575
812.900269,553
813.019043,560
813.137756,561
813.256531,565
813.375244,570
813.493896,543
813.612671,557
813.731384,558
813.850037,541
813.96875,551
814.087524,530
814.206238,557
814.324951,554
814.443604,540
814.562256,543
814.68103,565
814.799683,577
814.918335,549
815.037109,566
815.155762,555
815.274475,552
815.393188,579
815.511841,550
815.630554,543
815.749146,555
815.867859,543
815.986572,538
816.105164,523
816.223877,542
816.342529,531
816.461182,549
816.579895,555
816.698486,544
816.817139,539
816.935791,543
817.054504,550
817.173096,570
817.291748,553
817.4104,566
817.529053,535
817.647644,551
817.766235,544
817.884949,531
818.00354,529
818.122192,518
818.240845,527
818.359436,516
818.478088,544
818.59668,534
818.715271,530
818.833923,501
818.952515,529
819.071106,516
819.189758,490
819.30835,505
819.426941,512
819.545532,502
819.664124,504
819.782715,517
819.901306,525
820.019897,495
820.138489,512
820.25708,499
820.375671,504
820.494202,503
820.612732,496
820.731384,480
820.849915,504
820.968506,508
821.087097,500
821.205627,496
821.324158,495
821.442749,497
821.561279,475
821.679871,490
821.798401,489
821.916931,487
822.035461,490
822.154053,490
822.272583,500
822.391174,508
822.509583,500
822.628174,487
822.746704,498
822.865234,496
822.983765,468
823.102295,490
823.220825,492
823.339294,479
823.457825,503
823.576355,475
823.694824,482
823.813354,483
823.931885,483
824.050354,489
824.168884,501
824.287354,497
824.405823,507
824.524353,494
824.642822,499
824.761353,489
824.879822,489
824.998291,498
825.116699,489
825.235291,480
825.353699,482
825.472168,484
825.590637,483
825.709106,491
825.827576,494
825.946045,500
826.064453,478
826.182983,469
826.301392,471
826.4198,486
826.53833,473
826.656738,486
826.775208,484
826.893677,484
827.012024,494
827.130493,476
827.248962,496
827.36731,488
827.485779,498
827.604248,474
827.722595,485
827.841064,469
827.959412,490
828.077942,455
828.196289,485
828.314636,488
828.433105,458
828.551514,470
828.669861,484
828.78833,460
828.906677,469
829.025085,477
829.143433,478
829.261841,466
829.38031,462
829.498657,466
829.617004,482
829.735413,462
829.85376,470
829.972107,482
830.090515,481
830.208862,466
830.327209,474
830.445557,456
830.563904,474
830.682312,484
830.800659,469
830.919006,468
831.037354,469
831.155701,481
831.274048,485
831.392395,477
831.51062,481
831.629028,490
831.747314,485
831.865662,471
831.984009,486
832.102356,475
832.220642,469
832.338928,475
832.457275,507
832.575623,472
832.693909,481
832.812134,474
832.930481,482
833.048828,475
833.167114,469
833.2854,491
833.403687,474
833.521973,488
833.640259,481
833.758545,469
833.876831,478
833.995056,485
834.113281,496
834.231628,495
834.349915,477
834.468201,464
834.586426,487
834.704651,474
834.822998,469
834.941162,452
835.059448,490
835.177673,480
835.295959,473
835.414246,474
835.53241,485
835.650635,477
835.768921,468
835.887146,488
836.005371,492
836.123596,472
836.241821,472
836.360046,461
836.478271,470
836.596497,476
836.714722,454
836.832886,469
836.95105,477
837.069336,481
837.1875,459
837.305725,502
837.423889,469
837.542053,494
837.660339,487
837.778503,467
837.896667,503
838.014832,494
838.132996,503
838.25116,480
838.369385,481
838.487488,481
838.605713,487
838.723877,484
838.84198,497
838.960205,462
839.078308,467
839.196472,508
839.314636,477
839.4328,486
839.550964,489
839.669067,481
839.787231,490
839.905396,476
840.023499,479
840.141602,486
840.259766,486
840.377869,490
840.495972,487
840.614136,500
840.732239,477
840.850342,521
840.968445,515
841.086548,485
841.204651,503
841.322754,509
841.440918,504
841.55896,496
841.677002,494
841.795166,493
841.913208,508
842.031311,476
842.149353,493
842.267456,475
842.385498,500
842.503601,496
842.621643,483
842.739746,479
842.857788,472
842.97583,513
843.093933,513
843.211975,508
843.330017,493
843.44812,495
843.566101,502
843.684204,490
843.802246,505
843.920227,501
844.038269,503
844.156311,486
844.274292,481
844.392395,494
844.510376,505
844.628357,471
844.74646,468
844.864441,495
844.982422,491
845.100403,490
845.218384,495
845.336426,504
845.454468,488
845.572449,488
845.69043,500
845.808411,496
845.926453,484
846.044373,489
846.162354,501
846.280396,493
846.398315,492
846.516296,507
846.634216,505
846.752197,495
846.870178,487
846.988098,495
847.106079,483
847.22406,491
847.34198,483
847.4599,509
847.577881,479
847.695801,495
847.813782,505
847.931641,483
848.049561,504
848.167603,504
848.285461,494
848.403381,505
848.521362,502
848.639221,483
848.75708,494
848.875,477
848.99292,510
849.110901,493
849.22876,494
849.34668,494
849.464539,505
849.582458,499
849.700317,520
849.818176,498
849.936096,503
850.053955,490
850.171875,510
850.289673,493
850.407593,487
850.525452,501
850.643311,506
850.761169,502
850.878967,499
850.996887,498
851.114746,492
851.232544,481
851.350403,486
851.468262,503
851.58606,481
851.703979,493
851.821777,492
851.939636,489
852.057434,518
852.175232,496
852.293091,508
852.410889,503
852.528687,513
852.646545,516
852.764343,516
852.88208,512
852.999939,502
853.117676,491
853.235535,482
853.353271,501
853.471069,497
853.588928,498
853.706604,504
853.824402,485
853.9422,500
854.059998,484
854.177734,509
854.295532,471
854.413269,481
854.531006,497
854.648804,484
854.766541,494
854.884277,488
855.002014,491
855.119751,493
855.237549,492
855.355225,506
855.473022,499
855.590698,493
855.708435,469
855.826172,496
855.943848,500
856.061646,501
856.179321,517
856.296997,522
856.414795,503
856.53241,499
856.650085,497
856.767822,505
856.885559,474
857.003174,515
857.120911,513
857.238586,512
857.356201,492
857.473938,509
857.591614,495
857.709351,481
857.826965,504
857.944641,494
858.062317,491
858.179993,507
858.297668,503
858.415283,511
858.532959,488
858.650574,504
858.768188,511
858.885803,512
859.003479,492
859.121094,499
859.23877,513
859.356384,499
859.473999,471
859.591675,490
859.709229,474
859.826843,479
859.944458,489
860.062012,478
860.179626,489
860.297302,485
860.414856,490
860.532471,475
860.650024,484
860.767639,490
860.885193,475
861.002808,481
861.120361,473
861.237976,484
861.35553,500
861.473022,498
861.590698,484
861.708191,498
861.825745,478
861.943298,487
862.060852,488
862.178406,492
862.295959,492
862.413513,492
862.531006,498
862.64856,505
862.766113,465
862.883667,484
863.00116,462
863.118713,482
863.236206,480
863.353699,486
863.471252,490
863.588745,482
863.706177,475
863.82373,500
863.941162,494
864.058716,462
864.176208,484
864.29364,466
864.411194,506
864.528687,468
864.646118,476
864.763611,480
864.881042,477
864.998535,478
865.116028,502
865.233459,461
865.350891,507
865.468384,488
865.585754,479
865.703308,485
865.820679,467
865.938171,466
866.055542,471
866.173035,488
866.290466,487
866.407837,485
866.52533,468
866.6427,500
866.760071,472
866.877563,494
866.994934,476
867.112305,481
867.229736,482
867.347107,505
867.464539,471
867.58197,481
867.699341,485
867.81665,472
867.934082,482
868.051453,476
868.168823,487
868.286194,483
868.403564,474
868.520935,495
868.638306,487
868.755676,487
868.872986,489
868.990295,488
869.107727,483
869.225037,502
869.342346,506
869.459717,494
869.577026,504
869.694336,487
869.811707,494
869.929016,505
870.046326,486
870.163635,495
870.280945,506
870.398254,497
870.515564,516
870.632812,496
870.750183,493
870.867432,515
870.984741,503
871.102051,512
871.219299,500
871.336609,495
871.453918,512
871.571106,515
871.688416,498
871.805664,519
871.922852,499
872.040222,510
872.157471,515
872.274719,527
872.391968,502
872.509155,526
872.626465,502
872.743652,516
872.860962,501
872.978149,509
873.095337,520
873.212646,509
873.329834,494
873.44696,490
873.564209,514
873.681396,486
873.798645,513
873.915894,524
874.03302,498
874.150208,501
874.267456,509
874.384583,497
874.501831,511
874.618958,511
874.736145,516
874.853333,502
874.970459,509
875.087646,535
875.204834,493
875.32196,507
875.439148,515
875.556274,498
875.673401,488
875.790527,499
875.907715,499
876.024841,485
876.141968,516
876.259094,488
876.376282,511
876.493347,493
876.610474,506
876.7276,504
876.844727,489
876.961853,497
877.078918,494
877.195984,513
877.313171,489
877.430237,503
877.547302,506
877.664368,481
877.781433,486
877.898499,491
878.015625,499
878.13269,494
878.249695,490
878.366821,493
878.483887,485
878.600952,474
878.717957,465
878.834961,512
878.952087,479
879.069092,508
879.186157,481
879.303162,499
879.420227,509
879.537231,485
879.654236,499
879.77124,492
879.888306,483
880.005249,483
880.122314,483
880.239319,496
880.356323,498
880.473328,465
880.590271,493
880.707275,479
880.824341,474
880.941284,492
881.058228,481
881.175232,475
881.292236,473
881.40918,482
881.526123,477
881.643066,473
881.760071,459
881.877014,478
881.993958,483
882.11084,484
882.227783,479
882.344727,487
882.46167,485
882.578613,479
882.695618,503
882.812439,495
882.929382,474
883.046326,458
883.163208,473
883.280151,484
883.397034,488
883.513916,498
883.630798,481
883.747742,480
883.864563,460
883.981506,478
884.098389,494
884.21521,498
884.332153,487
884.448975,493
884.565796,523
884.682678,492
884.7995,529
884.916443,528
885.033264,539
885.150085,564
885.266968,560
885.383789,543
885.500671,530
885.617493,559
885.734314,551
885.851196,534
885.967896,551
886.084717,567
886.201599,543
886.318359,562
886.435181,542
886.552002,535
886.668762,554
886.785645,538
886.902344,530
887.019165,552
887.135925,505
887.252747,516
887.369446,526
887.486267,504
887.603027,520
887.719788,523
887.836548,515
887.953247,509
888.070068,486
888.186829,482
888.303528,476
888.420288,479
888.536987,476
888.653687,468
888.770447,482
888.887146,488
889.003967,476
889.120667,475
889.237305,461
889.354065,483
889.470703,460
889.587463,486
889.704163,492
889.820862,483
889.937561,486
890.054199,468
890.170837,481
890.287598,457
890.404236,453
890.520874,470
890.637634,463
890.754211,474
890.87085,494
890.987549,469
891.104187,490
891.220886,483
891.337463,473
891.454102,488
891.57074,473
891.687378,503
891.804077,466
891.920654,479
892.037231,468
892.15387,482
892.270447,477
892.387085,477
892.503723,497
892.6203,484
892.736877,484
892.853516,483
892.970032,472
893.08667,504
893.203186,483
893.319763,476
893.43634,488
893.552917,462
893.669556,480
893.786011,490
893.902588,498
894.019165,468
894.135681,476
894.252197,462
894.368835,501
894.485291,475
894.601868,483
894.718384,465
894.8349,483
894.951355,491
895.067932,463
895.184448,464
895.300964,479
895.417419,482
895.533936,467
895.650452,465
895.766907,476
895.883423,465
895.999878,432
896.116333,492
896.232849,466
896.349304,463
896.465759,470
896.582214,492
896.698669,462
896.815125,482
896.931641,468
897.048035,479
897.164551,473
897.280884,478
897.397339,486
897.513794,493
897.630249,455
897.746582,498
897.863098,480
897.979431,491
898.095886,468
898.212341,485
898.328674,494
898.445129,482
898.561462,487
898.677795,477
898.794312,481
898.910645,482
899.026978,475
899.143433,470
899.259766,477
899.37616,483
899.492493,486
899.608765,489
899.725159,484
899.841553,464
899.957947,456
900.07428,493
900.190552,487
900.306946,483
900.423157,484
900.53949,481
900.655884,480
900.772156,499
900.888489,478
901.004822,474
901.121033,500
901.237366,491
901.353699,509
901.46991,495
901.586304,479
901.702515,483
901.818787,505
901.93512,509
902.051331,498
902.167603,494
902.283875,503
902.400085,526
902.516418,525
902.632629,507
902.74884,529
902.865112,519
902.981384,504
903.097595,518
903.213867,515
903.330017,495
903.446289,520
903.5625,509
903.67865,521
903.794922,518
903.911072,481
904.027344,497
904.143494,515
904.259705,493
904.375916,523
904.492065,507
904.608215,494
904.724426,503
904.840576,497
904.956726,497
905.072876,490
905.189087,510
905.305176,474
905.421387,485
905.537537,496
905.653687,500
905.769775,480
905.885925,489
906.002014,480
906.118164,485
906.234314,477
906.350403,481
906.466492,474
906.582642,483
906.69873,455
906.814758,487
906.930908,480
907.046936,498
907.163086,478
907.279175,481
907.395264,469
907.511353,479
907.62738,478
907.743408,488
907.859497,463
907.975525,494
908.091553,492
908.207703,481
908.32373,463
908.439758,478
908.555786,506
908.671814,465
908.787842,469
908.90387,454
909.019775,455
909.135864,464
909.251892,491
909.367859,477
909.483826,473
909.599854,472
909.715881,472
909.831848,506
909.947815,485
910.063782,491
910.179749,483
910.295776,473
910.411743,474
910.527649,497
910.643616,472
910.759583,467
910.875488,496
910.991455,490
911.107361,480
911.223267,481
911.339294,450
911.4552,488
911.571106,485
911.687073,496
911.802979,471
911.918823,497
912.034729,482
912.150635,494
912.266602,487
912.382446,475
912.498352,479
912.614197,463
912.730103,468
912.846008,485
