792.44574,601
792.56488,619
792.68396,646
792.80304,677
792.92218,608
793.041199,580
793.160339,603
793.279419,609
793.398499,589
793.517578,582
793.636658,552
793.755737,593
793.874817,603
793.993896,603
794.112976,611
794.232056,558
794.351074,578
794.470215,579
794.589233,599
794.708313,578
794.827393,577
794.946411,580
795.065552,580
795.18457,589
795.303589,586
795.422668,585
795.541687,591
795.660767,594
795.779846,585
795.898865,585
796.017883,586
796.136963,573
796.255981,560
796.375061,590
796.49408,577
796.613037,581
796.732117,584
796.851135,568
796.970154,578
797.089233,549
797.208191,566
797.327271,561
797.446228,596
797.565186,577
797.684265,571
797.803223,567
797.922241,583
798.04126,577
798.160278,557
798.279297,581
798.398315,570
798.517273,563
798.636292,559
798.75531,546
798.874268,574
798.993286,588
799.112244,564
799.231323,564
799.350281,545
799.469238,566
799.588257,600
799.707153,569
799.826111,556
799.945129,575
800.064087,565
800.183044,574
800.302063,574
800.421021,567
800.539978,560
800.658936,588
800.777893,549
800.896912,561
801.015747,569
801.134705,570
801.253723,565
801.37262,586
801.491638,574
801.610535,558
801.729492,579
801.84845,565
801.967407,575
802.086243,560
802.205261,575
802.324158,570
802.443115,580
802.562073,567
802.680969,562
802.799927,587
802.918762,559
803.037659,568
803.156677,567
803.275574,595
803.39447,562
803.513428,581
803.632263,575
803.751221,541
803.870117,548
803.989014,579
804.107971,594
804.226746,580
804.345642,552
804.4646,563
804.583496,575
804.702393,589
804.821228,569
804.940125,570
805.059021,601
805.177917,587
805.296814,607
805.415649,585
805.534546,566
805.653442,591
805.772278,573
805.891113,616
806.01001,573
806.128906,581
806.247742,599
806.366577,584
806.485413,595
806.604309,587
806.723145,619
806.84198,623
806.960876,591
807.079712,595
807.198486,570
807.317383,608
807.436218,603
807.554993,609
807.673889,600
807.792725,579
807.91156,595
808.030396,583
808.14917,597
808.268005,585
808.386841,601
808.505676,609
808.624451,585
808.743286,598
808.862122,599
808.980896,606
809.099731,589
809.218506,621
809.337341,601
809.456116,586
809.57489,598
809.693726,585
809.8125,596
809.931274,613
810.050049,618
810.168884,572
810.287659,620
810.406372,622
810.525269,584
810.643982,602
810.762756,608
810.881531,618
811.000305,609
811.11908,597
811.237854,594
811.356567,596
811.475403,635
811.594116,609
811.71283,625
811.831604,615
811.950378,616
812.069153,614
812.187927,589
812.30658,616
812.425415,580
812.544128,592
812.662781,621
812.781616,613
812.900269,597
813.019043,602
813.137756,597
813.256531,593
813.375244,628
813.493896,623
813.612671,621
813.731384,604
813.850037,591
813.96875,610
814.087524,579
814.206238,602
814.324951,596
814.443604,564
814.562256,602
814.68103,615
814.799683,594
814.918335,590
815.037109,598
815.155762,575
815.274475,595
815.393188,592
815.511841,599
815.630554,589
815.749146,590
815.867859,595
815.986572,586
816.105164,582
816.223877,603
816.342529,584
816.461182,599
816.579895,608
816.698486,576
816.817139,605
816.935791,601
817.054504,594
817.173096,576
817.291748,582
817.4104,590
817.529053,580
817.647644,572
817.766235,569
817.884949,561
818.00354,559
818.122192,545
818.240845,547
818.359436,543
818.478088,550
818.59668,527
818.715271,522
818.833923,518
818.952515,531
819.071106,486
819.189758,505
819.30835,519
819.426941,500
819.545532,494
819.664124,505
819.782715,497
819.901306,496
820.019897,499
820.138489,498
820.25708,497
820.375671,513
820.494202,482
820.612732,499
820.731384,505
820.849915,482
820.968506,473
821.087097,501
821.205627,488
821.324158,512
821.442749,479
821.561279,460
821.679871,496
821.798401,482
821.916931,481
822.035461,472
822.154053,474
822.272583,485
822.391174,463
822.509583,476
822.628174,475
822.746704,474
822.865234,488
822.983765,475
823.102295,476
823.220825,484
823.339294,474
823.457825,479
823.576355,468
823.694824,475
823.813354,494
823.931885,481
824.050354,480
824.168884,473
824.287354,476
824.405823,480
824.524353,478
824.642822,483
824.761353,492
824.879822,481
824.998291,471
825.116699,478
825.235291,462
825.353699,483
825.472168,487
825.590637,485
825.709106,459
825.827576,456
825.946045,465
826.064453,469
826.182983,467
826.301392,476
826.4198,466
826.53833,472
826.656738,465
826.775208,454
826.893677,471
827.012024,487
827.130493,441
827.248962,452
827.36731,454
827.485779,457
827.604248,470
827.722595,469
827.841064,450
827.959412,462
828.077942,456
828.196289,452
828.314636,461
828.433105,443
828.551514,466
828.669861,463
828.78833,461
828.906677,476
829.025085,471
829.143433,471
829.261841,448
829.38031,447
829.498657,457
829.617004,447
829.735413,457
829.85376,460
829.972107,461
830.090515,446
830.208862,463
830.327209,449
830.445557,440
830.563904,466
830.682312,451
830.800659,467
830.919006,457
831.037354,486
831.155701,446
831.274048,469
831.392395,460
831.51062,456
831.629028,447
831.747314,441
831.865662,462
831.984009,437
832.102356,464
832.220642,471
832.338928,463
832.457275,448
832.575623,456
832.693909,467
832.812134,469
832.930481,450
833.048828,462
833.167114,457
833.2854,437
833.403687,480
833.521973,470
833.640259,463
833.758545,464
833.876831,462
833.995056,494
834.113281,451
834.231628,464
834.349915,460
834.468201,447
834.586426,464
834.704651,458
834.822998,450
834.941162,478
835.059448,441
835.177673,457
835.295959,466
835.414246,462
835.53241,467
835.650635,468
835.768921,452
835.887146,454
836.005371,467
836.123596,465
836.241821,456
836.360046,451
836.478271,466
836.596497,486
836.714722,489
836.832886,453
836.95105,466
837.069336,469
837.1875,474
837.305725,477
837.423889,469
837.542053,472
837.660339,472
837.778503,471
837.896667,456
838.014832,448
838.132996,468
838.25116,484
838.369385,491
838.487488,478
838.605713,480
838.723877,466
838.84198,488
838.960205,459
839.078308,490
839.196472,487
839.314636,479
839.4328,483
839.550964,476
839.669067,447
839.787231,463
839.905396,472
840.023499,484
840.141602,440
840.259766,469
840.377869,466
840.495972,478
840.614136,487
840.732239,453
840.850342,462
840.968445,448
841.086548,452
841.204651,461
841.322754,463
841.440918,496
841.55896,460
841.677002,465
841.795166,466
841.913208,436
842.031311,465
842.149353,467
842.267456,460
842.385498,458
842.503601,472
842.621643,451
842.739746,467
842.857788,457
842.97583,460
843.093933,469
843.211975,474
843.330017,455
843.44812,447
843.566101,456
843.684204,449
843.802246,473
843.920227,443
844.038269,450
844.156311,461
844.274292,463
844.392395,455
844.510376,447
844.628357,466
844.74646,455
844.864441,452
844.982422,457
845.100403,458
845.218384,452
845.336426,452
845.454468,449
845.572449,460
845.69043,439
845.808411,445
845.926453,461
846.044373,454
846.162354,452
846.280396,457
846.398315,452
846.516296,449
846.634216,448
846.752197,436
846.870178,449
846.988098,443
847.106079,451
847.22406,458
847.34198,468
847.4599,450
847.577881,441
847.695801,447
847.813782,454
847.931641,471
848.049561,464
848.167603,449
848.285461,458
848.403381,469
848.521362,436
848.639221,445
848.75708,460
848.875,448
848.99292,467
849.110901,465
849.22876,467
849.34668,460
849.464539,464
849.582458,462
849.700317,454
849.818176,459
849.936096,466
850.053955,454
850.171875,452
850.289673,455
850.407593,437
850.525452,444
850.643311,461
850.761169,437
850.878967,454
850.996887,453
851.114746,453
851.232544,453
851.350403,445
851.468262,457
851.58606,463
851.703979,456
851.821777,450
851.939636,438
852.057434,451
852.175232,449
852.293091,470
852.410889,436
852.528687,442
852.646545,474
852.764343,454
852.88208,439
852.999939,446
853.117676,459
853.235535,447
853.353271,445
853.471069,445
853.588928,447
853.706604,436
853.824402,473
853.9422,460
854.059998,448
854.177734,456
854.295532,471
854.413269,458
854.531006,461
854.648804,462
854.766541,451
854.884277,470
855.002014,455
855.119751,443
855.237549,462
855.355225,449
855.473022,468
855.590698,457
855.708435,469
855.826172,454
855.943848,460
856.061646,446
856.179321,465
856.296997,459
856.414795,453
856.53241,452
856.650085,454
856.767822,475
856.885559,460
857.003174,458
857.120911,463
857.238586,481
857.356201,464
857.473938,452
857.591614,453
857.709351,466
857.826965,437
857.944641,458
858.062317,457
858.179993,474
858.297668,444
858.415283,453
858.532959,463
858.650574,466
858.768188,462
858.885803,459
859.003479,466
859.121094,473
859.23877,485
859.356384,452
859.473999,452
859.591675,459
859.709229,471
859.826843,445
859.944458,447
860.062012,458
860.179626,465
860.297302,461
860.414856,443
860.532471,459
860.650024,462
860.767639,453
860.885193,477
861.002808,433
861.120361,451
861.237976,467
861.35553,452
861.473022,462
861.590698,442
861.708191,459
861.825745,436
861.943298,440
862.060852,461
862.178406,464
862.295959,457
862.413513,464
862.531006,457
862.64856,458
862.766113,462
862.883667,439
863.00116,454
863.118713,450
863.236206,448
863.353699,462
863.471252,465
863.588745,441
863.706177,461
863.82373,441
863.941162,449
864.058716,470
864.176208,464
864.29364,456
864.411194,436
864.528687,475
864.646118,472
864.763611,466
864.881042,458
864.998535,442
865.116028,475
865.233459,455
865.350891,452
865.468384,456
865.585754,460
865.703308,460
865.820679,456
865.938171,448
866.055542,459
866.173035,457
866.290466,466
866.407837,460
866.52533,464
866.6427,458
866.760071,468
866.877563,483
866.994934,445
867.112305,441
867.229736,457
867.347107,468
867.464539,467
867.58197,439
867.699341,453
867.81665,456
867.934082,464
868.051453,444
868.168823,483
868.286194,463
868.403564,469
868.520935,446
868.638306,440
868.755676,446
868.872986,469
868.990295,484
869.107727,467
869.225037,456
869.342346,473
869.459717,469
869.577026,457
869.694336,464
869.811707,453
869.929016,454
870.046326,462
870.163635,448
870.280945,459
870.398254,442
870.515564,458
870.632812,465
870.750183,457
870.867432,469
870.984741,472
871.102051,474
871.219299,450
871.336609,473
871.453918,472
871.571106,449
871.688416,442
871.805664,466
871.922852,462
872.040222,462
872.157471,476
872.274719,461
872.391968,456
872.509155,453
872.626465,484
872.743652,472
872.860962,454
872.978149,448
873.095337,481
873.212646,469
873.329834,485
873.44696,466
873.564209,475
873.681396,457
873.798645,444
873.915894,441
874.03302,451
874.150208,452
874.267456,444
874.384583,471
874.501831,477
874.618958,439
874.736145,467
874.853333,464
874.970459,461
875.087646,460
875.204834,446
875.32196,452
875.439148,431
875.556274,479
875.673401,467
875.790527,459
875.907715,456
876.024841,438
876.141968,457
876.259094,479
876.376282,452
876.493347,458
876.610474,470
876.7276,485
876.844727,453
876.961853,453
877.078918,462
877.195984,465
877.313171,478
877.430237,447
877.547302,480
877.664368,463
877.781433,464
877.898499,468
878.015625,449
878.13269,467
878.249695,491
878.366821,489
878.483887,464
878.600952,454
878.717957,457
878.834961,467
878.952087,467
879.069092,477
879.186157,462
879.303162,473
879.420227,442
879.537231,479
879.654236,466
879.77124,477
879.888306,472
880.005249,468
880.122314,449
880.239319,455
880.356323,464
880.473328,460
880.590271,467
880.707275,479
880.824341,469
880.941284,463
881.058228,456
881.175232,465
881.292236,441
881.40918,462
881.526123,467
881.643066,467
881.760071,461
881.877014,461
881.993958,472
882.11084,461
882.227783,466
882.344727,470
882.46167,466
882.578613,480
882.695618,447
882.812439,475
882.929382,466
883.046326,474
883.163208,461
883.280151,455
883.397034,471
883.513916,476
883.630798,460
883.747742,469
883.864563,448
883.981506,457
884.098389,446
884.21521,474
884.332153,472
884.448975,486
884.565796,469
884.682678,479
884.7995,457
884.916443,467
885.033264,476
885.150085,456
885.266968,489
885.383789,470
885.500671,472
885.617493,481
885.734314,490
885.851196,487
885.967896,477
886.084717,485
886.201599,480
886.318359,476
886.435181,458
886.552002,478
886.668762,460
886.785645,468
886.902344,470
887.019165,464
887.135925,466
887.252747,467
887.369446,471
887.486267,463
887.603027,471
887.719788,485
887.836548,465
887.953247,462
888.070068,482
888.186829,454
888.303528,485
888.420288,475
888.536987,468
888.653687,468
888.770447,492
888.887146,474
889.003967,488
889.120667,482
889.237305,460
889.354065,453
889.470703,487
889.587463,486
889.704163,468
889.820862,473
889.937561,462
890.054199,494
890.170837,461
890.287598,472
890.404236,450
890.520874,464
890.637634,472
890.754211,486
890.87085,478
890.987549,466
891.104187,468
891.220886,459
891.337463,469
891.454102,470
891.57074,486
891.687378,475
891.804077,472
891.920654,457
892.037231,473
892.15387,481
892.270447,461
892.387085,476
892.503723,480
892.6203,481
892.736877,468
892.853516,491
892.970032,453
893.08667,466
893.203186,464
893.319763,464
893.43634,477
893.552917,463
893.669556,479
893.786011,496
893.902588,474
894.019165,465
894.135681,470
894.252197,495
894.368835,472
894.485291,485
894.601868,484
894.718384,474
894.8349,480
894.951355,499
895.067932,467
895.184448,453
895.300964,470
895.417419,475
895.533936,474
895.650452,474
895.766907,476
895.883423,473
895.999878,475
896.116333,479
896.232849,484
896.349304,470
896.465759,461
896.582214,472
896.698669,475
896.815125,474
896.931641,481
897.048035,478
897.164551,458
897.280884,475
897.397339,468
897.513794,471
897.630249,459
897.746582,489
897.863098,466
897.979431,472
898.095886,481
898.212341,476
898.328674,492
898.445129,479
898.561462,459
898.677795,472
898.794312,473
898.910645,476
899.026978,476
899.143433,485
899.259766,462
899.37616,482
899.492493,467
899.608765,458
899.725159,469
899.841553,459
899.957947,479
900.07428,472
900.190552,470
900.306946,470
900.423157,468
900.53949,480
900.655884,493
900.772156,476
900.888489,474
901.004822,467
901.121033,479
901.237366,478
901.353699,466
901.46991,475
901.586304,477
901.702515,471
901.818787,450
901.93512,480
902.051331,472
902.167603,466
902.283875,484
902.400085,476
902.516418,465
902.632629,476
902.74884,490
902.865112,463
902.981384,480
903.097595,492
903.213867,476
903.330017,470
903.446289,494
903.5625,483
903.67865,458
903.794922,483
903.911072,448
904.027344,489
904.143494,483
904.259705,480
904.375916,467
904.492065,470
904.608215,466
904.724426,493
904.840576,496
904.956726,479
905.072876,487
905.189087,467
905.305176,495
905.421387,492
905.537537,475
905.653687,468
905.769775,478
905.885925,477
906.002014,468
906.118164,487
906.234314,475
906.350403,498
906.466492,488
906.582642,482
906.69873,476
906.814758,493
906.930908,473
907.046936,483
907.163086,491
907.279175,483
907.395264,468
907.511353,460
907.62738,496
907.743408,490
907.859497,455
907.975525,464
908.091553,486
908.207703,477
908.32373,491
908.439758,477
908.555786,472
908.671814,492
908.787842,489
908.90387,471
909.019775,474
909.135864,489
909.251892,472
909.367859,480
909.483826,494
909.599854,473
909.715881,481
909.831848,479
909.947815,481
910.063782,494
910.179749,478
910.295776,470
910.411743,485
910.527649,482
910.643616,477
910.759583,487
910.875488,493
910.991455,484
911.107361,487
911.223267,475
911.339294,471
911.4552,496
911.571106,476
911.687073,484
911.802979,492
911.918823,476
912.034729,469
912.150635,480
912.266602,480
912.382446,489
912.498352,485
912.614197,462
912.730103,468
912.846008,489
792.44574,609
792.56488,622
792.68396,683
792.80304,642
792.92218,618
793.041199,613
793.160339,609
793.279419,619
793.398499,594
793.517578,591
793.636658,591
793.755737,586
793.874817,609
793.993896,617
794.112976,604
794.232056,583
794.351074,572
794.470215,615
794.589233,592
794.708313,570
794.827393,574
794.946411,577
795.065552,573
795.18457,585
795.303589,590
795.422668,566
795.541687,580
795.660767,559
795.779846,568
795.898865,578
796.017883,584
796.136963,559
796.255981,564
796.375061,545
796.49408,569
796.613037,566
796.732117,581
796.851135,578
796.970154,590
797.089233,564
797.208191,578
797.327271,603
797.446228,572
797.565186,593
797.684265,579
797.803223,569
797.922241,559
798.04126,556
798.160278,585
798.279297,562
798.398315,552
798.517273,575
798.636292,564
798.75531,554
798.874268,543
798.993286,559
799.112244,562
799.231323,561
799.350281,575
799.469238,568
799.588257,572
799.707153,564
799.826111,563
799.945129,587
800.064087,552
800.183044,589
800.302063,565
800.421021,569
800.539978,576
800.658936,567
800.777893,563
800.896912,575
801.015747,548
801.134705,579
801.253723,570
801.37262,565
801.491638,550
801.610535,574
801.729492,554
801.84845,569
801.967407,577
802.086243,571
802.205261,551
802.324158,557
802.443115,556
802.562073,549
802.680969,614
802.799927,562
802.918762,582
803.037659,542
803.156677,574
803.275574,561
803.39447,600
803.513428,572
803.632263,550
803.751221,574
803.870117,566
803.989014,576
804.107971,593
804.226746,596
804.345642,583
804.4646,582
804.583496,588
804.702393,563
804.821228,588
804.940125,586
805.059021,591
805.177917,606
805.296814,590
805.415649,593
805.534546,597
805.653442,565
805.772278,588
805.891113,584
806.01001,587
806.128906,589
806.247742,585
806.366577,606
806.485413,596
806.604309,590
806.723145,580
806.84198,575
806.960876,588
807.079712,601
807.198486,598
807.317383,593
807.436218,601
807.554993,602
807.673889,597
807.792725,592
807.91156,616
808.030396,623
808.14917,587
808.268005,587
808.386841,603
808.505676,583
808.624451,601
808.743286,601
808.862122,601
808.980896,616
809.099731,597
809.218506,609
809.337341,599
809.456116,613
809.57489,583
809.693726,600
809.8125,605
809.931274,608
810.050049,611
810.168884,604
810.287659,617
810.406372,603
810.525269,627
810.643982,616
810.762756,566
810.881531,613
811.000305,594
811.11908,601
811.237854,610
811.356567,607
811.475403,611
811.594116,594
811.71283,598
811.831604,602
811.950378,626
812.069153,604
812.187927,611
812.30658,654
812.425415,596
812.544128,611
812.662781,613
812.781616,612
812.900269,632
813.019043,621
813.137756,614
813.256531,607
813.375244,603
813.493896,613
813.612671,604
813.731384,602
813.850037,595
813.96875,615
814.087524,606
814.206238,597
814.324951,603
814.443604,619
814.562256,588
814.68103,604
814.799683,609
814.918335,605
815.037109,574
815.155762,587
815.274475,585
815.393188,597
815.511841,600
815.630554,583
815.749146,596
815.867859,574
815.986572,588
816.105164,601
816.223877,598
816.342529,588
816.461182,604
816.579895,606
816.698486,598
816.817139,590
816.935791,589
817.054504,609
817.173096,581
817.291748,600
817.4104,553
817.529053,555
817.647644,568
817.766235,577
817.884949,543
818.00354,531
818.122192,542
818.240845,551
818.359436,522
818.478088,506
818.59668,532
818.715271,522
818.833923,506
818.952515,516
819.071106,489
819.189758,522
819.30835,509
819.426941,502
819.545532,514
819.664124,504
819.782715,505
819.901306,485
820.019897,483
820.138489,496
820.25708,500
820.375671,499
820.494202,509
820.612732,509
820.731384,487
820.849915,494
820.968506,484
821.087097,509
821.205627,483
821.324158,497
821.442749,472
821.561279,475
821.679871,494
821.798401,474
821.916931,505
822.035461,474
822.154053,492
822.272583,486
822.391174,490
822.509583,492
822.628174,494
822.746704,481
822.865234,470
822.983765,498
823.102295,465
823.220825,463
823.339294,483
823.457825,478
823.576355,472
823.694824,480
823.813354,484
823.931885,475
824.050354,477
824.168884,493
824.287354,495
824.405823,468
824.524353,472
824.642822,489
824.761353,505
824.879822,507
824.998291,474
825.116699,482
825.235291,487
825.353699,486
825.472168,473
825.590637,475
825.709106,475
825.827576,477
825.946045,483
826.064453,490
826.182983,465
826.301392,464
826.4198,461
826.53833,488
826.656738,465
826.775208,477
826.893677,475
827.012024,455
827.130493,445
827.248962,472
827.36731,463
827.485779,475
827.604248,452
827.722595,462
827.841064,467
827.959412,480
828.077942,469
828.196289,465
828.314636,473
828.433105,462
828.551514,461
828.669861,453
828.78833,470
828.906677,455
829.025085,469
829.143433,470
829.261841,462
829.38031,452
829.498657,464
829.617004,463
829.735413,460
829.85376,466
829.972107,460
830.090515,479
830.208862,466
830.327209,442
830.445557,457
830.563904,469
830.682312,448
830.800659,462
830.919006,455
831.037354,468
831.155701,450
831.274048,497
831.392395,454
831.51062,463
831.629028,452
831.747314,461
831.865662,455
831.984009,472
832.102356,448
832.220642,468
832.338928,454
832.457275,485
832.575623,474
832.693909,454
832.812134,446
832.930481,453
833.048828,450
833.167114,465
833.2854,470
833.403687,473
833.521973,442
833.640259,449
833.758545,480
833.876831,450
833.995056,466
834.113281,465
834.231628,452
834.349915,491
834.468201,468
834.586426,488
834.704651,455
834.822998,451
834.941162,466
835.059448,459
835.177673,464
835.295959,476
835.414246,462
835.53241,464
835.650635,453
835.768921,471
835.887146,454
836.005371,461
836.123596,459
836.241821,479
836.360046,446
836.478271,461
836.596497,464
836.714722,479
836.832886,472
836.95105,454
837.069336,479
837.1875,470
837.305725,484
837.423889,488
837.542053,485
837.660339,476
837.778503,502
837.896667,476
838.014832,476
838.132996,486
838.25116,483
838.369385,477
838.487488,477
838.605713,487
838.723877,474
838.84198,468
838.960205,475
839.078308,476
839.196472,480
839.314636,474
839.4328,468
839.550964,465
839.669067,462
839.787231,472
839.905396,464
840.023499,462
840.141602,465
840.259766,465
840.377869,474
840.495972,466
840.614136,464
840.732239,461
840.850342,487
840.968445,471
841.086548,468
841.204651,451
841.322754,457
841.440918,470
841.55896,457
841.677002,475
841.795166,451
841.913208,476
842.031311,465
842.149353,461
842.267456,462
842.385498,464
842.503601,455
842.621643,456
842.739746,447
842.857788,455
842.97583,463
843.093933,467
843.211975,462
843.330017,469
843.44812,460
843.566101,466
843.684204,445
843.802246,452
843.920227,459
844.038269,454
844.156311,466
844.274292,472
844.392395,485
844.510376,451
844.628357,459
844.74646,462
844.864441,455
844.982422,469
845.100403,447
845.218384,470
845.336426,452
845.454468,474
845.572449,460
845.69043,467
845.808411,477
845.926453,454
846.044373,450
846.162354,463
846.280396,452
846.398315,475
846.516296,442
846.634216,455
846.752197,460
846.870178,437
846.988098,457
847.106079,471
847.22406,452
847.34198,445
847.4599,446
847.577881,454
847.695801,443
847.813782,481
847.931641,461
848.049561,458
848.167603,456
848.285461,441
848.403381,468
848.521362,459
848.639221,454
848.75708,456
848.875,463
848.99292,462
849.110901,441
849.22876,447
849.34668,449
849.464539,440
849.582458,475
849.700317,464
849.818176,451
849.936096,454
850.053955,454
850.171875,472
850.289673,460
850.407593,442
850.525452,443
850.643311,448
850.761169,444
850.878967,463
850.996887,474
851.114746,454
851.232544,445
851.350403,450
851.468262,464
851.58606,443
851.703979,469
851.821777,443
851.939636,449
852.057434,446
852.175232,446
852.293091,457
852.410889,458
852.528687,461
852.646545,471
852.764343,451
852.88208,440
852.999939,455
853.117676,464
853.235535,447
853.353271,461
853.471069,459
853.588928,466
853.706604,442
853.824402,442
853.9422,466
854.059998,469
854.177734,483
854.295532,453
854.413269,450
854.531006,467
854.648804,477
854.766541,447
854.884277,458
855.002014,449
855.119751,465
855.237549,481
855.355225,471
855.473022,468
855.590698,469
855.708435,456
855.826172,451
855.943848,469
856.061646,459
856.179321,469
856.296997,478
856.414795,462
856.53241,458
856.650085,466
856.767822,458
856.885559,477
857.003174,477
857.120911,454
857.238586,473
857.356201,467
857.473938,445
857.591614,459
857.709351,459
857.826965,466
857.944641,469
858.062317,447
858.179993,464
858.297668,455
858.415283,466
858.532959,466
858.650574,455
858.768188,467
858.885803,463
859.003479,472
859.121094,462
859.23877,480
859.356384,451
859.473999,450
859.591675,465
859.709229,443
859.826843,462
859.944458,470
860.062012,458
860.179626,444
860.297302,445
860.414856,439
860.532471,474
860.650024,451
860.767639,461
860.885193,464
861.002808,453
861.120361,473
861.237976,458
861.35553,456
861.473022,450
861.590698,468
861.708191,448
861.825745,445
861.943298,455
862.060852,466
862.178406,450
862.295959,454
862.413513,462
862.531006,463
862.64856,465
862.766113,457
862.883667,457
863.00116,464
863.118713,452
863.236206,480
863.353699,463
863.471252,480
863.588745,459
863.706177,457
863.82373,454
863.941162,438
864.058716,465
864.176208,446
864.29364,456
864.411194,461
864.528687,447
864.646118,458
864.763611,466
864.881042,471
864.998535,461
865.116028,460
865.233459,474
865.350891,461
865.468384,479
865.585754,484
865.703308,467
865.820679,444
865.938171,470
866.055542,472
866.173035,452
866.290466,449
866.407837,450
866.52533,457
866.6427,487
866.760071,462
866.877563,468
866.994934,458
867.112305,472
867.229736,456
867.347107,459
867.464539,473
867.58197,466
867.699341,472
867.81665,472
867.934082,462
868.051453,450
868.168823,453
868.286194,464
868.403564,473
868.520935,458
868.638306,459
868.755676,475
868.872986,460
868.990295,473
869.107727,468
869.225037,451
869.342346,461
869.459717,456
869.577026,467
869.694336,478
869.811707,446
869.929016,471
870.046326,462
870.163635,465
870.280945,479
870.398254,475
870.515564,474
870.632812,462
870.750183,491
870.867432,459
870.984741,445
871.102051,459
871.219299,464
871.336609,469
871.453918,460
871.571106,465
871.688416,458
871.805664,467
871.922852,467
872.040222,483
872.157471,469
872.274719,491
872.391968,455
872.509155,454
872.626465,459
872.743652,458
872.860962,469
872.978149,472
873.095337,468
873.212646,465
873.329834,466
873.44696,468
873.564209,470
873.681396,462
873.798645,472
873.915894,477
874.03302,445
874.150208,473
874.267456,465
874.384583,470
874.501831,464
874.618958,452
874.736145,465
874.853333,471
874.970459,456
875.087646,491
875.204834,457
875.32196,474
875.439148,478
875.556274,486
875.673401,461
875.790527,459
875.907715,464
876.024841,445
876.141968,451
876.259094,471
876.376282,457
876.493347,475
876.610474,476
876.7276,492
876.844727,451
876.961853,462
877.078918,458
877.195984,468
877.313171,463
877.430237,452
877.547302,475
877.664368,451
877.781433,461
877.898499,462
878.015625,444
878.13269,456
878.249695,470
878.366821,442
878.483887,470
878.600952,460
878.717957,473
878.834961,461
878.952087,478
879.069092,462
879.186157,468
879.303162,468
879.420227,463
879.537231,474
879.654236,460
879.77124,463
879.888306,472
880.005249,480
880.122314,461
880.239319,462
880.356323,463
880.473328,466
880.590271,460
880.707275,475
880.824341,473
880.941284,453
881.058228,473
881.175232,452
881.292236,468
881.40918,465
881.526123,465
881.643066,467
881.760071,449
881.877014,485
881.993958,466
882.11084,459
882.227783,471
882.344727,461
882.46167,474
882.578613,447
882.695618,447
882.812439,461
882.929382,476
883.046326,461
883.163208,459
883.280151,463
883.397034,471
883.513916,454
883.630798,465
883.747742,464
883.864563,440
883.981506,465
884.098389,472
884.21521,472
884.332153,481
884.448975,457
884.565796,462
884.682678,485
884.7995,464
884.916443,455
885.033264,463
885.150085,468
885.266968,463
885.383789,461
885.500671,469
885.617493,485
885.734314,464
885.851196,469
885.967896,472
886.084717,477
886.201599,450
886.318359,474
886.435181,469
886.552002,480
886.668762,463
886.785645,476
886.902344,479
887.019165,466
887.135925,456
887.252747,466
887.369446,464
887.486267,489
887.603027,483
887.719788,459
887.836548,469
887.953247,485
888.070068,482
888.186829,463
888.303528,475
888.420288,477
888.536987,465
888.653687,477
888.770447,483
888.887146,442
889.003967,491
889.120667,469
889.237305,500
889.354065,467
889.470703,488
889.587463,472
889.704163,474
889.820862,462
889.937561,480
890.054199,484
890.170837,467
890.287598,486
890.404236,479
890.520874,474
890.637634,490
890.754211,472
890.87085,478
890.987549,466
891.104187,483
891.220886,476
891.337463,466
891.454102,470
891.57074,499
891.687378,479
891.804077,480
891.920654,486
892.037231,471
892.15387,460
892.270447,471
892.387085,483
892.503723,457
892.6203,467
892.736877,451
892.853516,493
892.970032,477
893.08667,469
893.203186,462
893.319763,479
893.43634,464
893.552917,488
893.669556,490
893.786011,473
893.902588,467
894.019165,485
894.135681,468
894.252197,489
894.368835,493
894.485291,482
894.601868,479
894.718384,487
894.8349,482
894.951355,482
895.067932,459
895.184448,493
895.300964,466
895.417419,470
895.533936,494
895.650452,484
895.766907,489
895.883423,477
895.999878,485
896.116333,491
896.232849,461
896.349304,465
896.465759,459
896.582214,488
896.698669,467
896.815125,477
896.931641,453
897.048035,487
897.164551,479
897.280884,481
897.397339,458
897.513794,451
897.630249,464
897.746582,488
897.863098,485
897.979431,465
898.095886,467
898.212341,475
898.328674,475
898.445129,471
898.561462,486
898.677795,472
898.794312,495
898.910645,483
899.026978,472
899.143433,485
899.259766,466
899.37616,496
899.492493,490
899.608765,486
899.725159,489
899.841553,468
899.957947,458
900.07428,485
900.190552,483
900.306946,480
900.423157,472
900.53949,485
900.655884,482
900.772156,492
900.888489,464
901.004822,488
901.121033,488
901.237366,485
901.353699,478
901.46991,472
901.586304,463
901.702515,496
901.818787,474
901.93512,482
902.051331,484
902.167603,493
902.283875,483
902.400085,480
902.516418,480
902.632629,473
902.74884,480
902.865112,500
902.981384,480
903.097595,486
903.213867,481
903.330017,501
903.446289,470
903.5625,474
903.67865,479
903.794922,516
903.911072,468
904.027344,483
904.143494,468
904.259705,486
904.375916,469
904.492065,491
904.608215,472
904.724426,498
904.840576,483
904.956726,492
905.072876,485
905.189087,496
905.305176,483
905.421387,503
905.537537,482
905.653687,490
905.769775,478
905.885925,486
906.002014,487
906.118164,477
906.234314,466
906.350403,476
906.466492,469
906.582642,446
906.69873,510
906.814758,466
906.930908,494
907.046936,486
907.163086,470
907.279175,477
907.395264,486
907.511353,464
907.62738,483
907.743408,462
907.859497,482
907.975525,473
908.091553,490
908.207703,488
908.32373,486
908.439758,484
908.555786,497
908.671814,485
908.787842,476
908.90387,486
909.019775,491
909.135864,479
909.251892,486
909.367859,492
909.483826,480
909.599854,494
909.715881,471
909.831848,489
909.947815,499
910.063782,487
910.179749,472
910.295776,497
910.411743,492
910.527649,477
910.643616,488
910.759583,502
910.875488,476
910.991455,507
911.107361,484
911.223267,484
911.339294,488
911.4552,501
911.571106,474
911.687073,489
911.802979,480
911.918823,494
912.034729,462
912.150635,482
912.266602,493
912.382446,479
912.498352,478
912.614197,480
912.730103,470
912.846008,481
792.44574,595
792.56488,631
792.68396,676
792.80304,676
792.92218,613
793.041199,596
793.160339,613
793.279419,606
793.398499,621
793.517578,615
793.636658,587
793.755737,616
793.874817,606
793.993896,624
794.112976,581
794.232056,595
794.351074,584
794.470215,610
794.589233,593
794.708313,569
794.827393,595
794.946411,576
795.065552,576
795.18457,621
795.303589,611
795.422668,590
795.541687,581
795.660767,602
795.779846,577
795.898865,561
796.017883,580
796.136963,570
796.255981,559
796.375061,575
796.49408,579
796.613037,593
796.732117,565
796.851135,551
796.970154,588
797.089233,561
797.208191,563
797.327271,582
797.446228,558
797.565186,558
797.684265,559
797.803223,575
797.922241,575
798.04126,575
798.160278,583
798.279297,573
798.398315,579
798.517273,566
798.636292,546
798.75531,574
798.874268,563
798.993286,560
799.112244,570
799.231323,586
799.350281,575
799.469238,580
799.588257,572
799.707153,568
799.826111,582
799.945129,578
800.064087,588
800.183044,546
800.302063,578
800.421021,579
800.539978,582
800.658936,557
800.777893,580
800.896912,554
801.015747,541
801.134705,577
801.253723,583
801.37262,560
801.491638,577
801.610535,576
801.729492,568
801.84845,584
801.967407,559
802.086243,563
802.205261,573
802.324158,572
802.443115,580
802.562073,567
802.680969,576
802.799927,563
802.918762,571
803.037659,585
803.156677,566
803.275574,573
803.39447,563
803.513428,598
803.632263,594
803.751221,590
803.870117,589
803.989014,582
804.107971,555
804.226746,587
804.345642,578
804.4646,612
804.583496,576
804.702393,585
804.821228,584
804.940125,601
805.059021,578
805.177917,608
805.296814,589
805.415649,578
805.534546,581
805.653442,588
805.772278,597
805.891113,589
806.01001,579
806.128906,589
806.247742,595
806.366577,595
806.485413,589
806.604309,590
806.723145,601
806.84198,587
806.960876,576
807.079712,604
807.198486,592
807.317383,582
807.436218,569
807.554993,601
807.673889,598
807.792725,603
807.91156,578
808.030396,579
808.14917,608
808.268005,586
808.386841,607
808.505676,640
808.624451,592
808.743286,609
808.862122,589
808.980896,599
809.099731,613
809.218506,607
809.337341,620
809.456116,611
809.57489,614
809.693726,610
809.8125,589
809.931274,620
810.050049,592
810.168884,604
810.287659,611
810.406372,587
810.525269,607
810.643982,602
810.762756,624
810.881531,612
811.000305,607
811.11908,592
811.237854,593
811.356567,628
811.475403,601
811.594116,627
811.71283,605
811.831604,597
811.950378,608
812.069153,621
812.187927,600
812.30658,605
812.425415,640
812.544128,601
812.662781,611
812.781616,604
812.900269,609
813.019043,608
813.137756,608
813.256531,615
813.375244,628
813.493896,618
813.612671,613
813.731384,616
813.850037,610
813.96875,590
814.087524,592
814.206238,604
814.324951,607
814.443604,614
814.562256,606
814.68103,596
814.799683,614
814.918335,586
815.037109,601
815.155762,610
815.274475,588
815.393188,631
815.511841,598
815.630554,596
815.749146,597
815.867859,586
815.986572,618
816.105164,583
816.223877,577
816.342529,608
816.461182,604
816.579895,582
816.698486,583
816.817139,584
816.935791,585
817.054504,584
817.173096,586
817.291748,573
817.4104,574
817.529053,578
817.647644,576
817.766235,564
817.884949,539
818.00354,567
818.122192,553
818.240845,556
818.359436,522
818.478088,539
818.59668,532
818.715271,513
818.833923,512
818.952515,516
819.071106,524
819.189758,504
819.30835,498
819.426941,506
819.545532,496
819.664124,477
819.782715,477
819.901306,505
820.019897,506
820.138489,505
820.25708,498
820.375671,510
820.494202,497
820.612732,486
820.731384,496
820.849915,497
820.968506,489
821.087097,485
821.205627,491
821.324158,483
821.442749,470
821.561279,482
821.679871,498
821.798401,495
821.916931,494
822.035461,498
822.154053,488
822.272583,498
822.391174,472
822.509583,488
822.628174,468
822.746704,505
822.865234,490
822.983765,478
823.102295,487
823.220825,489
823.339294,494
823.457825,504
823.576355,490
823.694824,479
823.813354,484
823.931885,475
824.050354,472
824.168884,476
824.287354,487
824.405823,480
824.524353,511
824.642822,478
824.761353,485
824.879822,479
824.998291,471
825.116699,501
825.235291,465
825.353699,488
825.472168,485
825.590637,479
825.709106,467
825.827576,463
825.946045,469
826.064453,485
826.182983,472
826.301392,476
826.4198,486
826.53833,484
826.656738,477
826.775208,477
826.893677,471
827.012024,467
827.130493,466
827.248962,467
827.36731,456
827.485779,470
827.604248,487
827.722595,459
827.841064,475
827.959412,478
828.077942,468
828.196289,472
828.314636,462
828.433105,448
828.551514,471
828.669861,469
828.78833,451
828.906677,477
829.025085,471
829.143433,455
829.261841,468
829.38031,438
829.498657,445
829.617004,465
829.735413,460
829.85376,470
829.972107,445
830.090515,458
830.208862,459
830.327209,461
830.445557,445
830.563904,457
830.682312,442
830.800659,466
830.919006,458
831.037354,463
831.155701,472
831.274048,444
831.392395,470
831.51062,466
831.629028,474
831.747314,444
831.865662,468
831.984009,457
832.102356,453
832.220642,446
832.338928,448
832.457275,446
832.575623,454
832.693909,459
832.812134,457
832.930481,462
833.048828,475
833.167114,465
833.2854,461
833.403687,464
833.521973,476
833.640259,455
833.758545,465
833.876831,462
833.995056,450
834.113281,484
834.231628,469
834.349915,460
834.468201,470
834.586426,471
834.704651,440
834.822998,459
834.941162,466
835.059448,452
835.177673,450
835.295959,459
835.414246,463
835.53241,452
835.650635,473
835.768921,462
835.887146,444
836.005371,454
836.123596,449
836.241821,472
836.360046,459
836.478271,467
836.596497,479
836.714722,449
836.832886,461
836.95105,493
837.069336,469
837.1875,482
837.305725,501
837.423889,493
837.542053,466
837.660339,485
837.778503,490
837.896667,483
838.014832,482
838.132996,482
838.25116,486
838.369385,491
838.487488,454
838.605713,469
838.723877,460
838.84198,476
838.960205,474
839.078308,485
839.196472,476
839.314636,463
839.4328,475
839.550964,444
839.669067,481
839.787231,475
839.905396,489
840.023499,470
840.141602,457
840.259766,479
840.377869,459
840.495972,447
840.614136,446
840.732239,459
840.850342,472
840.968445,473
841.086548,479
841.204651,474
841.322754,470
841.440918,465
841.55896,439
841.677002,467
841.795166,462
841.913208,454
842.031311,460
842.149353,457
842.267456,461
842.385498,468
842.503601,467
842.621643,461
842.739746,464
842.857788,446
842.97583,456
843.093933,468
843.211975,459
843.330017,443
843.44812,469
843.566101,460
843.684204,450
843.802246,452
843.920227,454
844.038269,451
844.156311,449
844.274292,464
844.392395,452
844.510376,467
844.628357,436
844.74646,460
844.864441,455
844.982422,468
845.100403,462
845.218384,464
845.336426,447
845.454468,481
845.572449,457
845.69043,466
845.808411,467
845.926453,460
846.044373,447
846.162354,451
846.280396,456
846.398315,471
846.516296,468
846.634216,437
846.752197,466
846.870178,452
846.988098,443
847.106079,467
847.22406,450
847.34198,452
847.4599,461
847.577881,457
847.695801,457
847.813782,470
847.931641,456
848.049561,449
848.167603,455
848.285461,450
848.403381,448
848.521362,457
848.639221,452
848.75708,450
848.875,451
848.99292,461
849.110901,450
849.22876,460
849.34668,455
849.464539,445
849.582458,470
849.700317,443
849.818176,457
849.936096,465
850.053955,457
850.171875,456
850.289673,437
850.407593,459
850.525452,475
850.643311,441
850.761169,443
850.878967,446
850.996887,463
851.114746,464
851.232544,447
851.350403,454
851.468262,450
851.58606,439
851.703979,468
851.821777,459
851.939636,428
852.057434,472
852.175232,450
852.293091,459
852.410889,448
852.528687,450
852.646545,447
852.764343,475
852.88208,471
852.999939,460
853.117676,437
853.235535,463
853.353271,462
853.471069,453
853.588928,457
853.706604,459
853.824402,454
853.9422,479
854.059998,456
854.177734,442
854.295532,439
854.413269,457
854.531006,436
854.648804,459
854.766541,454
854.884277,470
855.002014,454
855.119751,445
855.237549,485
855.355225,461
855.473022,455
855.590698,453
855.708435,462
855.826172,458
855.943848,455
856.061646,462
856.179321,473
856.296997,467
856.414795,447
856.53241,454
856.650085,463
856.767822,467
856.885559,462
857.003174,448
857.120911,466
857.238586,468
857.356201,458
857.473938,472
857.591614,475
857.709351,472
857.826965,464
857.944641,456
858.062317,459
858.179993,471
858.297668,480
858.415283,466
858.532959,450
858.650574,459
858.768188,466
858.885803,464
859.003479,448
859.121094,453
859.23877,463
859.356384,483
859.473999,466
859.591675,464
859.709229,479
859.826843,448
859.944458,463
860.062012,467
860.179626,447
860.297302,468
860.414856,464
860.532471,469
860.650024,460
860.767639,470
860.885193,451
861.002808,453
861.120361,451
861.237976,463
861.35553,472
861.473022,470
861.590698,449
861.708191,457
861.825745,469
861.943298,458
862.060852,447
862.178406,461
862.295959,446
862.413513,473
862.531006,450
862.64856,451
862.766113,458
862.883667,471
863.00116,444
863.118713,465
863.236206,463
863.353699,466
863.471252,481
863.588745,438
863.706177,454
863.82373,453
863.941162,449
864.058716,477
864.176208,459
864.29364,440
864.411194,458
864.528687,477
864.646118,466
864.763611,482
864.881042,465
864.998535,445
865.116028,476
865.233459,483
865.350891,447
865.468384,459
865.585754,477
865.703308,470
865.820679,461
865.938171,461
866.055542,444
866.173035,475
866.290466,470
866.407837,451
866.52533,468
866.6427,457
866.760071,457
866.877563,463
866.994934,464
867.112305,469
867.229736,460
867.347107,468
867.464539,438
867.58197,472
867.699341,470
867.81665,468
867.934082,474
868.051453,458
868.168823,468
868.286194,456
868.403564,474
868.520935,463
868.638306,458
868.755676,459
868.872986,472
868.990295,465
869.107727,466
869.225037,471
869.342346,475
869.459717,456
869.577026,487
869.694336,461
869.811707,456
869.929016,459
870.046326,469
870.163635,454
870.280945,478
870.398254,479
870.515564,481
870.632812,461
870.750183,478
870.867432,452
870.984741,461
871.102051,482
871.219299,459
871.336609,455
871.453918,473
871.571106,441
871.688416,462
871.805664,459
871.922852,459
872.040222,472
872.157471,454
872.274719,467
872.391968,477
872.509155,476
872.626465,447
872.743652,457
872.860962,473
872.978149,457
873.095337,437
873.212646,473
873.329834,487
873.44696,475
873.564209,466
873.681396,464
873.798645,458
873.915894,477
874.03302,477
874.150208,460
874.267456,459
874.384583,458
874.501831,468
874.618958,463
874.736145,469
874.853333,450
874.970459,464
875.087646,470
875.204834,478
875.32196,473
875.439148,461
875.556274,476
875.673401,446
875.790527,456
875.907715,478
876.024841,456
876.141968,462
876.259094,470
876.376282,453
876.493347,465
876.610474,463
876.7276,456
876.844727,452
876.961853,473
877.078918,458
877.195984,465
877.313171,452
877.430237,469
877.547302,478
877.664368,483
877.781433,479
877.898499,467
878.015625,461
878.13269,464
878.249695,461
878.366821,454
878.483887,446
878.600952,488
878.717957,467
878.834961,471
878.952087,469
879.069092,450
879.186157,457
879.303162,460
879.420227,467
879.537231,443
879.654236,459
879.77124,469
879.888306,461
880.005249,450
880.122314,462
880.239319,459
880.356323,489
880.473328,459
880.590271,453
880.707275,455
880.824341,475
880.941284,456
881.058228,472
881.175232,456
881.292236,477
881.40918,455
881.526123,461
881.643066,479
881.760071,478
881.877014,469
881.993958,458
882.11084,443
882.227783,457
882.344727,465
882.46167,455
882.578613,469
882.695618,481
882.812439,467
882.929382,460
883.046326,459
883.163208,466
883.280151,465
883.397034,476
883.513916,449
883.630798,468
883.747742,459
883.864563,456
883.981506,484
884.098389,447
884.21521,486
884.332153,462
884.448975,470
884.565796,471
884.682678,483
884.7995,471
884.916443,484
885.033264,480
885.150085,475
885.266968,468
885.383789,459
885.500671,466
885.617493,479
885.734314,464
885.851196,471
885.967896,487
886.084717,463
886.201599,471
886.318359,468
886.435181,468
886.552002,460
886.668762,470
886.785645,468
886.902344,467
887.019165,469
887.135925,455
887.252747,474
887.369446,480
887.486267,465
887.603027,458
887.719788,466
887.836548,477
887.953247,463
888.070068,471
888.186829,472
888.303528,455
888.420288,470
888.536987,472
888.653687,469
888.770447,449
888.887146,490
889.003967,478
889.120667,463
889.237305,461
889.354065,469
889.470703,493
889.587463,480
889.704163,463
889.820862,466
889.937561,467
890.054199,475
890.170837,459
890.287598,469
890.404236,463
890.520874,483
890.637634,465
890.754211,469
890.87085,484
890.987549,480
891.104187,471
891.220886,468
891.337463,472
891.454102,482
891.57074,465
891.687378,472
891.804077,469
891.920654,455
892.037231,472
892.15387,475
892.270447,457
892.387085,469
892.503723,482
892.6203,469
892.736877,485
892.853516,459
892.970032,462
893.08667,474
893.203186,452
893.319763,463
893.43634,471
893.552917,471
893.669556,498
893.786011,485
893.902588,483
894.019165,477
894.135681,469
894.252197,501
894.368835,463
894.485291,481
894.601868,468
894.718384,483
894.8349,463
894.951355,483
895.067932,492
895.184448,487
895.300964,456
895.417419,465
895.533936,478
895.650452,471
895.766907,465
895.883423,478
895.999878,474
896.116333,484
896.232849,484
896.349304,481
896.465759,468
896.582214,482
896.698669,484
896.815125,470
896.931641,471
897.048035,489
897.164551,469
897.280884,481
897.397339,485
897.513794,474
897.630249,485
897.746582,490
897.863098,471
897.979431,486
898.095886,476
898.212341,477
898.328674,489
898.445129,485
898.561462,467
898.677795,500
898.794312,469
898.910645,470
899.026978,479
899.143433,468
899.259766,482
899.37616,466
899.492493,507
899.608765,482
899.725159,486
899.841553,482
899.957947,483
900.07428,502
900.190552,503
900.306946,512
900.423157,491
900.53949,474
900.655884,479
900.772156,471
900.888489,487
901.004822,467
901.121033,477
901.237366,494
901.353699,482
901.46991,502
901.586304,475
901.702515,482
901.818787,475
901.93512,486
902.051331,495
902.167603,485
902.283875,477
902.400085,491
902.516418,466
902.632629,492
902.74884,485
902.865112,482
902.981384,482
903.097595,491
903.213867,480
903.330017,483
903.446289,480
903.5625,484
903.67865,483
903.794922,493
903.911072,481
904.027344,482
904.143494,478
904.259705,476
904.375916,484
904.492065,497
904.608215,482
904.724426,467
904.840576,487
904.956726,493
905.072876,475
905.189087,477
905.305176,483
905.421387,494
905.537537,501
905.653687,482
905.769775,499
905.885925,468
906.002014,492
906.118164,476
906.234314,494
906.350403,477
906.466492,488
906.582642,475
906.69873,490
906.814758,488
906.930908,471
907.046936,469
907.163086,475
907.279175,486
907.395264,508
907.511353,473
907.62738,486
907.743408,481
907.859497,485
907.975525,504
908.091553,479
908.207703,485
908.32373,496
908.439758,489
908.555786,496
908.671814,487
908.787842,472
908.90387,489
909.019775,471
909.135864,480
909.251892,477
909.367859,493
909.483826,484
909.599854,485
909.715881,466
909.831848,493
909.947815,496
910.063782,487
910.179749,494
910.295776,482
910.411743,509
910.527649,469
910.643616,476
910.759583,495
910.875488,461
910.991455,497
911.107361,500
911.223267,476
911.339294,507
911.4552,495
911.571106,483
911.687073,500
911.802979,494
911.918823,488
912.034729,483
912.150635,501
912.266602,481
912.382446,499
912.498352,497
912.614197,509
912.730103,489
912.846008,492
