792.44574,619
792.56488,649
792.68396,663
792.80304,639
792.92218,609
793.041199,596
793.160339,573
793.279419,584
793.398499,583
793.517578,568
793.636658,576
793.755737,580
793.874817,598
793.993896,601
794.112976,577
794.232056,575
794.351074,598
794.470215,563
794.589233,582
794.708313,575
794.827393,586
794.946411,578
795.065552,559
795.18457,585
795.303589,599
795.422668,565
795.541687,578
795.660767,578
795.779846,571
795.898865,586
796.017883,577
796.136963,590
796.255981,579
796.375061,588
796.49408,594
796.613037,565
796.732117,565
796.851135,561
796.970154,568
797.089233,584
797.208191,569
797.327271,568
797.446228,565
797.565186,562
797.684265,588
797.803223,549
797.922241,563
798.04126,568
798.160278,566
798.279297,567
798.398315,535
798.517273,544
798.636292,546
798.75531,573
798.874268,553
798.993286,583
799.112244,564
799.231323,571
799.350281,543
799.469238,566
799.588257,540
799.707153,554
799.826111,550
799.945129,575
800.064087,567
800.183044,572
800.302063,557
800.421021,550
800.539978,576
800.658936,575
800.777893,567
800.896912,583
801.015747,566
801.134705,579
801.253723,567
801.37262,575
801.491638,574
801.610535,582
801.729492,563
801.84845,581
801.967407,554
802.086243,570
802.205261,558
802.324158,555
802.443115,598
802.562073,602
802.680969,584
802.799927,588
802.918762,578
803.037659,574
803.156677,594
803.275574,571
803.39447,565
803.513428,589
803.632263,573
803.751221,566
803.870117,585
803.989014,600
804.107971,571
804.226746,597
804.345642,579
804.4646,592
804.583496,581
804.702393,616
804.821228,568
804.940125,565
805.059021,578
805.177917,575
805.296814,612
805.415649,613
805.534546,595
805.653442,603
805.772278,578
805.891113,593
806.01001,568
806.128906,596
806.247742,608
806.366577,627
806.485413,612
806.604309,610
806.723145,598
806.84198,615
806.960876,601
807.079712,612
807.198486,602
807.317383,609
807.436218,613
807.554993,618
807.673889,627
807.792725,614
807.91156,613
808.030396,615
808.14917,615
808.268005,626
808.386841,633
808.505676,611
808.624451,584
808.743286,608
808.862122,639
808.980896,616
809.099731,604
809.218506,613
809.337341,616
809.456116,610
809.57489,628
809.693726,624
809.8125,614
809.931274,625
810.050049,648
810.168884,589
810.287659,594
810.406372,623
810.525269,615
810.643982,644
810.762756,606
810.881531,604
811.000305,629
811.11908,591
811.237854,623
811.356567,628
811.475403,644
811.594116,628
811.71283,631
811.831604,615
811.950378,619
812.069153,609
812.187927,624
812.30658,635
812.425415,621
812.544128,617
812.662781,612
812.781616,607
812.900269,622
813.019043,637
813.137756,625
813.256531,622
813.375244,631
813.493896,637
813.612671,642
813.731384,614
813.850037,632
813.96875,640
814.087524,612
814.206238,654
814.324951,617
814.443604,624
814.562256,620
814.68103,633
814.799683,613
814.918335,623
815.037109,610
815.155762,612
815.274475,600
815.393188,632
815.511841,625
815.630554,603
815.749146,600
815.867859,586
815.986572,601
816.105164,615
816.223877,568
816.342529,605
816.461182,614
816.579895,612
816.698486,614
816.817139,615
816.935791,600
817.054504,615
817.173096,610
817.291748,615
817.4104,587
817.529053,586
817.647644,574
817.766235,598
817.884949,587
818.00354,566
818.122192,560
818.240845,569
818.359436,554
818.478088,525
818.59668,507
818.715271,526
818.833923,542
818.952515,536
819.071106,500
819.189758,509
819.30835,536
819.426941,503
819.545532,488
819.664124,501
819.782715,490
819.901306,499
820.019897,486
820.138489,497
820.25708,504
820.375671,516
820.494202,487
820.612732,498
820.731384,492
820.849915,506
820.968506,496
821.087097,516
821.205627,485
821.324158,508
821.442749,492
821.561279,473
821.679871,486
821.798401,494
821.916931,495
822.035461,485
822.154053,486
822.272583,497
822.391174,483
822.509583,497
822.628174,479
822.746704,495
822.865234,480
822.983765,492
823.102295,503
823.220825,491
823.339294,473
823.457825,465
823.576355,482
823.694824,474
823.813354,479
823.931885,493
824.050354,480
824.168884,496
824.287354,502
824.405823,502
824.524353,470
824.642822,481
824.761353,469
824.879822,491
824.998291,485
825.116699,491
825.235291,483
825.353699,482
825.472168,475
825.590637,469
825.709106,472
825.827576,494
825.946045,471
826.064453,474
826.182983,488
826.301392,478
826.4198,461
826.53833,469
826.656738,463
826.775208,475
826.893677,455
827.012024,483
827.130493,484
827.248962,481
827.36731,458
827.485779,484
827.604248,455
827.722595,470
827.841064,471
827.959412,480
828.077942,461
828.196289,470
828.314636,452
828.433105,482
828.551514,470
828.669861,462
828.78833,448
828.906677,445
829.025085,478
829.143433,461
829.261841,450
829.38031,482
829.498657,457
829.617004,475
829.735413,481
829.85376,466
829.972107,465
830.090515,466
830.208862,468
830.327209,450
830.445557,469
830.563904,448
830.682312,464
830.800659,463
830.919006,456
831.037354,472
831.155701,458
831.274048,470
831.392395,456
831.51062,459
831.629028,460
831.747314,466
831.865662,452
831.984009,471
832.102356,466
832.220642,442
832.338928,440
832.457275,488
832.575623,443
832.693909,460
832.812134,450
832.930481,466
833.048828,479
833.167114,465
833.2854,466
833.403687,459
833.521973,448
833.640259,450
833.758545,467
833.876831,460
833.995056,463
834.113281,453
834.231628,464
834.349915,458
834.468201,461
834.586426,463
834.704651,467
834.822998,463
834.941162,475
835.059448,466
835.177673,449
835.295959,463
835.414246,469
835.53241,444
835.650635,461
835.768921,441
835.887146,452
836.005371,467
836.123596,478
836.241821,463
836.360046,471
836.478271,463
836.596497,476
836.714722,471
836.832886,485
836.95105,474
837.069336,469
837.1875,475
837.305725,492
837.423889,479
837.542053,481
837.660339,485
837.778503,475
837.896667,490
838.014832,477
838.132996,461
838.25116,473
838.369385,500
838.487488,501
838.605713,489
838.723877,460
838.84198,475
838.960205,476
839.078308,484
839.196472,474
839.314636,467
839.4328,442
839.550964,469
839.669067,490
839.787231,472
839.905396,472
840.023499,460
840.141602,468
840.259766,487
840.377869,465
840.495972,477
840.614136,467
840.732239,465
840.850342,461
840.968445,455
841.086548,468
841.204651,479
841.322754,458
841.440918,467
841.55896,470
841.677002,487
841.795166,454
841.913208,463
842.031311,465
842.149353,462
842.267456,462
842.385498,466
842.503601,470
842.621643,462
842.739746,450
842.857788,444
842.97583,454
843.093933,455
843.211975,450
843.330017,463
843.44812,458
843.566101,462
843.684204,449
843.802246,452
843.920227,463
844.038269,450
844.156311,452
844.274292,458
844.392395,448
844.510376,479
844.628357,449
844.74646,465
844.864441,426
844.982422,447
845.100403,470
845.218384,475
845.336426,459
845.454468,466
845.572449,481
845.69043,460
845.808411,439
845.926453,453
846.044373,447
846.162354,467
846.280396,449
846.398315,442
846.516296,462
846.634216,468
846.752197,458
846.870178,437
846.988098,465
847.106079,467
847.22406,451
847.34198,447
847.4599,454
847.577881,457
847.695801,452
847.813782,460
847.931641,458
848.049561,457
848.167603,455
848.285461,466
848.403381,449
848.521362,471
848.639221,438
848.75708,456
848.875,456
848.99292,460
849.110901,457
849.22876,468
849.34668,445
849.464539,455
849.582458,457
849.700317,455
849.818176,449
849.936096,439
850.053955,450
850.171875,476
850.289673,439
850.407593,464
850.525452,448
850.643311,481
850.761169,442
850.878967,471
850.996887,459
851.114746,435
851.232544,457
851.350403,456
851.468262,472
851.58606,469
851.703979,444
851.821777,432
851.939636,443
852.057434,464
852.175232,454
852.293091,443
852.410889,458
852.528687,457
852.646545,445
852.764343,457
852.88208,453
852.999939,463
853.117676,445
853.235535,468
853.353271,469
853.471069,469
853.588928,450
853.706604,458
853.824402,470
853.9422,459
854.059998,432
854.177734,471
854.295532,459
854.413269,468
854.531006,457
854.648804,480
854.766541,457
854.884277,463
855.002014,469
855.119751,489
855.237549,470
855.355225,472
855.473022,488
855.590698,461
855.708435,454
855.826172,474
855.943848,443
856.061646,467
856.179321,451
856.296997,466
856.414795,462
856.53241,473
856.650085,464
856.767822,469
856.885559,462
857.003174,463
857.120911,469
857.238586,448
857.356201,466
857.473938,464
857.591614,462
857.709351,475
857.826965,477
857.944641,462
858.062317,452
858.179993,455
858.297668,469
858.415283,470
858.532959,449
858.650574,477
858.768188,468
858.885803,477
859.003479,452
859.121094,471
859.23877,456
859.356384,484
859.473999,456
859.591675,476
859.709229,460
859.826843,467
859.944458,467
860.062012,463
860.179626,449
860.297302,461
860.414856,450
860.532471,466
860.650024,452
860.767639,453
860.885193,454
861.002808,477
861.120361,465
861.237976,463
861.35553,471
861.473022,464
861.590698,477
861.708191,482
861.825745,467
861.943298,460
862.060852,469
862.178406,471
862.295959,462
862.413513,466
862.531006,457
862.64856,461
862.766113,449
862.883667,457
863.00116,474
863.118713,455
863.236206,473
863.353699,458
863.471252,452
863.588745,478
863.706177,473
863.82373,463
863.941162,463
864.058716,470
864.176208,464
864.29364,459
864.411194,469
864.528687,464
864.646118,466
864.763611,463
864.881042,466
864.998535,479
865.116028,460
865.233459,464
865.350891,482
865.468384,467
865.585754,457
865.703308,469
865.820679,451
865.938171,464
866.055542,449
866.173035,459
866.290466,456
866.407837,469
866.52533,474
866.6427,460
866.760071,461
866.877563,457
866.994934,461
867.112305,475
867.229736,468
867.347107,462
867.464539,464
867.58197,470
867.699341,464
867.81665,468
867.934082,456
868.051453,467
868.168823,472
868.286194,466
868.403564,453
868.520935,476
868.638306,481
868.755676,454
868.872986,475
868.990295,447
869.107727,475
869.225037,466
869.342346,466
869.459717,477
869.577026,472
869.694336,463
869.811707,473
869.929016,479
870.046326,466
870.163635,458
870.280945,462
870.398254,467
870.515564,466
870.632812,479
870.750183,477
870.867432,483
870.984741,478
871.102051,477
871.219299,472
871.336609,458
871.453918,471
871.571106,460
871.688416,445
871.805664,468
871.922852,457
872.040222,471
872.157471,469
872.274719,459
872.391968,480
872.509155,471
872.626465,457
872.743652,457
872.860962,472
872.978149,477
873.095337,463
873.212646,482
873.329834,459
873.44696,498
873.564209,467
873.681396,463
873.798645,486
873.915894,472
874.03302,470
874.150208,462
874.267456,464
874.384583,471
874.501831,484
874.618958,451
874.736145,470
874.853333,468
874.970459,472
875.087646,468
875.204834,478
875.32196,471
875.439148,479
875.556274,483
875.673401,453
875.790527,468
875.907715,451
876.024841,468
876.141968,481
876.259094,485
876.376282,464
876.493347,489
876.610474,478
876.7276,467
876.844727,482
876.961853,467
877.078918,475
877.195984,469
877.313171,468
877.430237,476
877.547302,461
877.664368,461
877.781433,467
877.898499,477
878.015625,475
878.13269,472
878.249695,486
878.366821,480
878.483887,471
878.600952,458
878.717957,456
878.834961,461
878.952087,471
879.069092,463
879.186157,477
879.303162,471
879.420227,450
879.537231,471
879.654236,470
879.77124,478
879.888306,453
880.005249,475
880.122314,462
880.239319,478
880.356323,462
880.473328,444
880.590271,480
880.707275,458
880.824341,461
880.941284,473
881.058228,478
881.175232,482
881.292236,467
881.40918,459
881.526123,462
881.643066,481
881.760071,468
881.877014,482
881.993958,471
882.11084,477
882.227783,493
882.344727,461
882.46167,461
882.578613,482
882.695618,490
882.812439,471
882.929382,473
883.046326,471
883.163208,480
883.280151,457
883.397034,469
883.513916,477
883.630798,476
883.747742,473
883.864563,478
883.981506,483
884.098389,449
884.21521,462
884.332153,469
884.448975,495
884.565796,466
884.682678,468
884.7995,476
884.916443,469
885.033264,462
885.150085,482
885.266968,480
885.383789,468
885.500671,485
885.617493,492
885.734314,463
885.851196,480
885.967896,470
886.084717,501
886.201599,471
886.318359,477
886.435181,469
886.552002,472
886.668762,474
886.785645,512
886.902344,452
887.019165,471
887.135925,456
887.252747,495
887.369446,468
887.486267,484
887.603027,501
887.719788,475
887.836548,485
887.953247,486
888.070068,483
888.186829,476
888.303528,465
888.420288,489
888.536987,480
888.653687,489
888.770447,482
888.887146,481
889.003967,487
889.120667,497
889.237305,477
889.354065,486
889.470703,477
889.587463,488
889.704163,458
889.820862,474
889.937561,480
890.054199,484
890.170837,500
890.287598,470
890.404236,462
890.520874,479
890.637634,497
890.754211,498
890.87085,506
890.987549,478
891.104187,479
891.220886,452
891.337463,493
891.454102,493
891.57074,488
891.687378,472
891.804077,487
891.920654,500
892.037231,470
892.15387,476
892.270447,460
892.387085,484
892.503723,493
892.6203,471
892.736877,488
892.853516,480
892.970032,486
893.08667,492
893.203186,486
893.319763,474
893.43634,465
893.552917,495
893.669556,468
893.786011,479
893.902588,482
894.019165,481
894.135681,464
894.252197,492
894.368835,469
894.485291,483
894.601868,480
894.718384,478
894.8349,483
894.951355,484
895.067932,488
895.184448,485
895.300964,478
895.417419,473
895.533936,486
895.650452,492
895.766907,484
895.883423,491
895.999878,479
896.116333,489
896.232849,482
896.349304,491
896.465759,475
896.582214,483
896.698669,481
896.815125,480
896.931641,476
897.048035,507
897.164551,494
897.280884,494
897.397339,463
897.513794,491
897.630249,488
897.746582,497
897.863098,488
897.979431,484
898.095886,477
898.212341,481
898.328674,498
898.445129,503
898.561462,482
898.677795,472
898.794312,471
898.910645,500
899.026978,467
899.143433,473
899.259766,486
899.37616,490
899.492493,474
899.608765,504
899.725159,492
899.841553,489
899.957947,472
900.07428,483
900.190552,475
900.306946,470
900.423157,496
900.53949,502
900.655884,496
900.772156,492
900.888489,484
901.004822,486
901.121033,485
901.237366,496
901.353699,470
901.46991,489
901.586304,499
901.702515,483
901.818787,500
901.93512,478
902.051331,499
902.167603,481
902.283875,483
902.400085,475
902.516418,489
902.632629,491
902.74884,468
902.865112,505
902.981384,485
903.097595,489
903.213867,491
903.330017,472
903.446289,480
903.5625,493
903.67865,475
903.794922,473
903.911072,488
904.027344,484
904.143494,500
904.259705,492
904.375916,484
904.492065,480
904.608215,491
904.724426,485
904.840576,481
904.956726,480
905.072876,483
905.189087,485
905.305176,491
905.421387,492
905.537537,502
905.653687,483
905.769775,483
905.885925,494
906.002014,500
906.118164,480
906.234314,480
906.350403,505
906.466492,490
906.582642,494
906.69873,483
906.814758,504
906.930908,491
907.046936,496
907.163086,489
907.279175,496
907.395264,482
907.511353,510
907.62738,501
907.743408,512
907.859497,484
907.975525,492
908.091553,488
908.207703,492
908.32373,531
908.439758,483
908.555786,490
908.671814,496
908.787842,492
908.90387,471
909.019775,474
909.135864,507
909.251892,487
909.367859,510
909.483826,469
909.599854,494
909.715881,487
909.831848,503
909.947815,498
910.063782,493
910.179749,496
910.295776,482
910.411743,473
910.527649,501
910.643616,501
910.759583,471
910.875488,492
910.991455,470
911.107361,482
911.223267,485
911.339294,491
911.4552,492
911.571106,490
911.687073,506
911.802979,507
911.918823,461
912.034729,486
912.150635,487
912.266602,494
912.382446,499
912.498352,497
912.614197,506
912.730103,514
912.846008,501
792.44574,590
792.56488,621
792.68396,687
792.80304,656
792.92218,617
793.041199,558
793.160339,601
793.279419,605
793.398499,578
793.517578,602
793.636658,560
793.755737,605
793.874817,631
793.993896,609
794.112976,593
794.232056,574
794.351074,599
794.470215,592
794.589233,600
794.708313,562
794.827393,571
794.946411,593
795.065552,609
795.18457,602
795.303589,583
795.422668,576
795.541687,601
795.660767,582
795.779846,586
795.898865,568
796.017883,574
796.136963,585
796.255981,585
796.375061,580
796.49408,576
796.613037,560
796.732117,575
796.851135,547
796.970154,555
797.089233,570
797.208191,591
797.327271,576
797.446228,560
797.565186,583
797.684265,559
797.803223,577
797.922241,555
798.04126,555
798.160278,566
798.279297,555
798.398315,571
798.517273,578
798.636292,590
798.75531,574
798.874268,579
798.993286,565
799.112244,588
799.231323,581
799.350281,553
799.469238,579
799.588257,586
799.707153,561
799.826111,569
799.945129,551
800.064087,580
800.183044,545
800.302063,573
800.421021,579
800.539978,568
800.658936,570
800.777893,571
800.896912,573
801.015747,573
801.134705,568
801.253723,553
801.37262,573
801.491638,593
801.610535,570
801.729492,567
801.84845,561
801.967407,592
802.086243,578
802.205261,598
802.324158,587
802.443115,558
802.562073,565
802.680969,590
802.799927,584
802.918762,575
803.037659,574
803.156677,576
803.275574,586
803.39447,599
803.513428,558
803.632263,580
803.751221,578
803.870117,574
803.989014,568
804.107971,565
804.226746,575
804.345642,591
804.4646,620
804.583496,616
804.702393,583
804.821228,622
804.940125,597
805.059021,604
805.177917,590
805.296814,577
805.415649,608
805.534546,606
805.653442,587
805.772278,619
805.891113,592
806.01001,604
806.128906,603
806.247742,598
806.366577,599
806.485413,605
806.604309,588
806.723145,567
806.84198,602
806.960876,619
807.079712,591
807.198486,624
807.317383,616
807.436218,606
807.554993,613
807.673889,582
807.792725,579
807.91156,610
808.030396,610
808.14917,602
808.268005,615
808.386841,619
808.505676,602
808.624451,616
808.743286,587
808.862122,608
808.980896,608
809.099731,617
809.218506,637
809.337341,605
809.456116,623
809.57489,628
809.693726,635
809.8125,619
809.931274,600
810.050049,651
810.168884,622
810.287659,626
810.406372,628
810.525269,607
810.643982,628
810.762756,617
810.881531,584
811.000305,625
811.11908,610
811.237854,619
811.356567,622
811.475403,649
811.594116,600
811.71283,608
811.831604,600
811.950378,634
812.069153,625
812.187927,617
812.30658,619
812.425415,609
812.544128,616
812.662781,598
812.781616,607
812.900269,631
813.019043,632
813.137756,629
813.256531,632
813.375244,619
813.493896,621
813.612671,646
813.731384,620
813.850037,622
813.96875,621
814.087524,633
814.206238,603
814.324951,615
814.443604,602
814.562256,617
814.68103,635
814.799683,619
814.918335,602
815.037109,611
815.155762,607
815.274475,602
815.393188,614
815.511841,626
815.630554,598
815.749146,620
815.867859,580
815.986572,633
816.105164,593
816.223877,603
816.342529,591
816.461182,608
816.579895,605
816.698486,623
816.817139,598
816.935791,641
817.054504,581
817.173096,593
817.291748,600
817.4104,601
817.529053,568
817.647644,587
817.766235,576
817.884949,582
818.00354,576
818.122192,565
818.240845,533
818.359436,548
818.478088,526
818.59668,543
818.715271,539
818.833923,522
818.952515,533
819.071106,522
819.189758,522
819.30835,507
819.426941,521
819.545532,506
819.664124,489
819.782715,524
819.901306,501
820.019897,506
820.138489,524
820.25708,515
820.375671,492
820.494202,521
820.612732,505
820.731384,504
820.849915,496
820.968506,510
821.087097,521
821.205627,479
821.324158,481
821.442749,484
821.561279,481
821.679871,491
821.798401,473
821.916931,505
822.035461,479
822.154053,501
822.272583,468
822.391174,494
822.509583,485
822.628174,499
822.746704,472
822.865234,486
822.983765,484
823.102295,486
823.220825,474
823.339294,481
823.457825,484
823.576355,503
823.694824,481
823.813354,503
823.931885,481
824.050354,503
824.168884,488
824.287354,486
824.405823,508
824.524353,486
824.642822,486
824.761353,490
824.879822,488
824.998291,484
825.116699,486
825.235291,470
825.353699,490
825.472168,481
825.590637,477
825.709106,487
825.827576,483
825.946045,449
826.064453,469
826.182983,470
826.301392,466
826.4198,477
826.53833,457
826.656738,477
826.775208,481
826.893677,464
827.012024,480
827.130493,480
827.248962,479
827.36731,470
827.485779,462
827.604248,484
827.722595,476
827.841064,474
827.959412,443
828.077942,455
828.196289,480
828.314636,469
828.433105,475
828.551514,468
828.669861,465
828.78833,460
828.906677,447
829.025085,463
829.143433,456
829.261841,462
829.38031,474
829.498657,471
829.617004,463
829.735413,474
829.85376,469
829.972107,465
830.090515,452
830.208862,451
830.327209,467
830.445557,462
830.563904,462
830.682312,466
830.800659,472
830.919006,473
831.037354,469
831.155701,451
831.274048,466
831.392395,439
831.51062,468
831.629028,453
831.747314,476
831.865662,459
831.984009,465
832.102356,468
832.220642,467
832.338928,474
832.457275,448
832.575623,457
832.693909,478
832.812134,464
832.930481,470
833.048828,497
833.167114,451
833.2854,450
833.403687,463
833.521973,469
833.640259,452
833.758545,476
833.876831,455
833.995056,469
834.113281,474
834.231628,455
834.349915,468
834.468201,457
834.586426,455
834.704651,460
834.822998,450
834.941162,476
835.059448,469
835.177673,469
835.295959,467
835.414246,469
835.53241,461
835.650635,478
835.768921,477
835.887146,475
836.005371,461
836.123596,466
836.241821,470
836.360046,461
836.478271,477
836.596497,469
836.714722,473
836.832886,474
836.95105,471
837.069336,474
837.1875,470
837.305725,493
837.423889,492
837.542053,478
837.660339,481
837.778503,487
837.896667,468
838.014832,473
838.132996,487
838.25116,467
838.369385,466
838.487488,504
838.605713,485
838.723877,460
838.84198,484
838.960205,462
839.078308,479
839.196472,473
839.314636,445
839.4328,488
839.550964,473
839.669067,470
839.787231,480
839.905396,470
840.023499,468
840.141602,489
840.259766,455
840.377869,482
840.495972,470
840.614136,473
840.732239,459
840.850342,459
840.968445,490
841.086548,451
841.204651,468
841.322754,473
841.440918,472
841.55896,484
841.677002,463
841.795166,468
841.913208,474
842.031311,456
842.149353,464
842.267456,454
842.385498,458
842.503601,455
842.621643,461
842.739746,454
842.857788,445
842.97583,461
843.093933,462
843.211975,475
843.330017,447
843.44812,450
843.566101,448
843.684204,465
843.802246,459
843.920227,452
844.038269,476
844.156311,448
844.274292,470
844.392395,475
844.510376,458
844.628357,463
844.74646,464
844.864441,450
844.982422,464
845.100403,449
845.218384,468
845.336426,469
845.454468,458
845.572449,456
845.69043,451
845.808411,448
845.926453,456
846.044373,464
846.162354,448
846.280396,445
846.398315,432
846.516296,472
846.634216,466
846.752197,461
846.870178,457
846.988098,456
847.106079,458
847.22406,468
847.34198,460
847.4599,443
847.577881,450
847.695801,452
847.813782,449
847.931641,463
848.049561,451
848.167603,471
848.285461,461
848.403381,455
848.521362,446
848.639221,445
848.75708,447
848.875,454
848.99292,473
849.110901,470
849.22876,469
849.34668,464
849.464539,444
849.582458,449
849.700317,447
849.818176,475
849.936096,440
850.053955,464
850.171875,454
850.289673,460
850.407593,465
850.525452,438
850.643311,457
850.761169,453
850.878967,455
850.996887,468
851.114746,457
851.232544,455
851.350403,456
851.468262,459
851.58606,466
851.703979,457
851.821777,463
851.939636,473
852.057434,434
852.175232,455
852.293091,457
852.410889,474
852.528687,468
852.646545,467
852.764343,451
852.88208,475
852.999939,461
853.117676,473
853.235535,476
853.353271,468
853.471069,480
853.588928,448
853.706604,461
853.824402,464
853.9422,455
854.059998,449
854.177734,461
854.295532,466
854.413269,439
854.531006,472
854.648804,466
854.766541,468
854.884277,460
855.002014,461
855.119751,466
855.237549,479
855.355225,454
855.473022,459
855.590698,470
855.708435,458
855.826172,472
855.943848,481
856.061646,453
856.179321,471
856.296997,447
856.414795,489
856.53241,466
856.650085,452
856.767822,453
856.885559,459
857.003174,452
857.120911,491
857.238586,454
857.356201,462
857.473938,466
857.591614,483
857.709351,457
857.826965,457
857.944641,460
858.062317,461
858.179993,464
858.297668,467
858.415283,478
858.532959,451
858.650574,472
858.768188,465
858.885803,488
859.003479,468
859.121094,465
859.23877,437
859.356384,461
859.473999,464
859.591675,468
859.709229,479
859.826843,450
859.944458,461
860.062012,453
860.179626,457
860.297302,453
860.414856,469
860.532471,463
860.650024,476
860.767639,452
860.885193,482
861.002808,471
861.120361,474
861.237976,450
861.35553,461
861.473022,470
861.590698,470
861.708191,454
861.825745,472
861.943298,478
862.060852,456
862.178406,460
862.295959,454
862.413513,465
862.531006,445
862.64856,459
862.766113,486
862.883667,444
863.00116,447
863.118713,460
863.236206,475
863.353699,476
863.471252,469
863.588745,454
863.706177,485
863.82373,440
863.941162,475
864.058716,474
864.176208,466
864.29364,459
864.411194,474
864.528687,472
864.646118,468
864.763611,471
864.881042,470
864.998535,474
865.116028,472
865.233459,470
865.350891,471
865.468384,463
865.585754,464
865.703308,478
865.820679,464
865.938171,463
866.055542,462
866.173035,448
866.290466,447
866.407837,458
866.52533,469
866.6427,482
866.760071,452
866.877563,473
866.994934,463
867.112305,465
867.229736,481
867.347107,486
867.464539,478
867.58197,473
867.699341,472
867.81665,464
867.934082,458
868.051453,459
868.168823,472
868.286194,446
868.403564,464
868.520935,470
868.638306,457
868.755676,472
868.872986,489
868.990295,463
869.107727,487
869.225037,460
869.342346,482
869.459717,467
869.577026,460
869.694336,471
869.811707,490
869.929016,471
870.046326,463
870.163635,464
870.280945,478
870.398254,462
870.515564,460
870.632812,466
870.750183,484
870.867432,469
870.984741,491
871.102051,467
871.219299,452
871.336609,458
871.453918,459
871.571106,472
871.688416,449
871.805664,469
871.922852,471
872.040222,451
872.157471,463
872.274719,455
872.391968,476
872.509155,464
872.626465,457
872.743652,470
872.860962,489
872.978149,464
873.095337,467
873.212646,472
873.329834,487
873.44696,469
873.564209,484
873.681396,488
873.798645,476
873.915894,455
874.03302,443
874.150208,463
874.267456,461
874.384583,459
874.501831,471
874.618958,471
874.736145,483
874.853333,481
874.970459,459
875.087646,460
875.204834,468
875.32196,474
875.439148,454
875.556274,459
875.673401,487
875.790527,453
875.907715,471
876.024841,467
876.141968,480
876.259094,470
876.376282,474
876.493347,467
876.610474,479
876.7276,477
876.844727,456
876.961853,462
877.078918,480
877.195984,465
877.313171,468
877.430237,467
877.547302,466
877.664368,468
877.781433,468
877.898499,479
878.015625,463
878.13269,450
878.249695,491
878.366821,475
878.483887,479
878.600952,481
878.717957,469
878.834961,461
878.952087,477
879.069092,480
879.186157,463
879.303162,464
879.420227,470
879.537231,469
879.654236,480
879.77124,480
879.888306,477
880.005249,469
880.122314,477
880.239319,475
880.356323,480
880.473328,480
880.590271,480
880.707275,481
880.824341,490
880.941284,469
881.058228,482
881.175232,465
881.292236,490
881.40918,462
881.526123,475
881.643066,457
881.760071,463
881.877014,499
881.993958,496
882.11084,486
882.227783,488
882.344727,465
882.46167,472
882.578613,477
882.695618,449
882.812439,460
882.929382,475
883.046326,489
883.163208,463
883.280151,467
883.397034,486
883.513916,472
883.630798,442
883.747742,491
883.864563,489
883.981506,472
884.098389,473
884.21521,474
884.332153,493
884.448975,468
884.565796,491
884.682678,473
884.7995,497
884.916443,460
885.033264,493
885.150085,457
885.266968,478
885.383789,474
885.500671,482
885.617493,492
885.734314,484
885.851196,468
885.967896,501
886.084717,476
886.201599,475
886.318359,457
886.435181,496
886.552002,485
886.668762,475
886.785645,460
886.902344,492
887.019165,480
887.135925,470
887.252747,473
887.369446,484
887.486267,455
887.603027,497
887.719788,478
887.836548,457
887.953247,467
888.070068,473
888.186829,483
888.303528,491
888.420288,443
888.536987,474
888.653687,484
888.770447,492
888.887146,485
889.003967,465
889.120667,482
889.237305,497
889.354065,479
889.470703,468
889.587463,477
889.704163,471
889.820862,466
889.937561,495
890.054199,490
890.170837,467
890.287598,478
890.404236,481
890.520874,506
890.637634,492
890.754211,476
890.87085,479
890.987549,475
891.104187,488
891.220886,485
891.337463,480
891.454102,487
891.57074,491
891.687378,475
891.804077,488
891.920654,483
892.037231,471
892.15387,479
892.270447,488
892.387085,497
892.503723,497
892.6203,482
892.736877,463
892.853516,502
892.970032,489
893.08667,477
893.203186,483
893.319763,481
893.43634,496
893.552917,462
893.669556,491
893.786011,477
893.902588,465
894.019165,480
894.135681,482
894.252197,494
894.368835,473
894.485291,488
894.601868,485
894.718384,501
894.8349,476
894.951355,480
895.067932,491
895.184448,490
895.300964,494
895.417419,474
895.533936,503
895.650452,472
895.766907,478
895.883423,475
895.999878,500
896.116333,484
896.232849,487
896.349304,470
896.465759,482
896.582214,495
896.698669,497
896.815125,491
896.931641,499
897.048035,493
897.164551,480
897.280884,483
897.397339,503
897.513794,481
897.630249,484
897.746582,495
897.863098,497
897.979431,492
898.095886,498
898.212341,469
898.328674,506
898.445129,464
898.561462,465
898.677795,498
898.794312,489
898.910645,486
899.026978,488
899.143433,467
899.259766,486
899.37616,496
899.492493,491
899.608765,481
899.725159,482
899.841553,478
899.957947,486
900.07428,466
900.190552,504
900.306946,469
900.423157,485
900.53949,479
900.655884,479
900.772156,489
900.888489,497
901.004822,502
901.121033,493
901.237366,482
901.353699,503
901.46991,484
901.586304,512
901.702515,475
901.818787,488
901.93512,495
902.051331,471
902.167603,484
902.283875,489
902.400085,496
902.516418,496
902.632629,471
902.74884,495
902.865112,495
902.981384,495
903.097595,493
903.213867,487
903.330017,503
903.446289,490
903.5625,489
903.67865,481
903.794922,502
903.911072,483
904.027344,477
904.143494,523
904.259705,488
904.375916,511
904.492065,470
904.608215,486
904.724426,494
904.840576,490
904.956726,479
905.072876,509
905.189087,489
905.305176,486
905.421387,501
905.537537,504
905.653687,476
905.769775,499
905.885925,502
906.002014,480
906.118164,482
906.234314,488
906.350403,489
906.466492,506
906.582642,496
906.69873,499
906.814758,497
906.930908,510
907.046936,496
907.163086,475
907.279175,484
907.395264,480
907.511353,486
907.62738,490
907.743408,486
907.859497,509
907.975525,504
908.091553,496
908.207703,492
908.32373,494
908.439758,491
908.555786,502
908.671814,502
908.787842,484
908.90387,479
909.019775,481
909.135864,497
909.251892,509
909.367859,480
909.483826,487
909.599854,476
909.715881,510
909.831848,507
909.947815,505
910.063782,517
910.179749,502
910.295776,493
910.411743,482
910.527649,511
910.643616,518
910.759583,498
910.875488,500
910.991455,500
911.107361,503
911.223267,508
911.339294,494
911.4552,494
911.571106,510
911.687073,500
911.802979,521
911.918823,508
912.034729,508
912.150635,478
912.266602,502
912.382446,475
912.498352,511
912.614197,511
912.730103,525
912.846008,472
792.44574,591
792.56488,625
792.68396,688
792.80304,677
792.92218,611
793.041199,591
793.160339,600
793.279419,578
793.398499,634
793.517578,573
793.636658,593
793.755737,608
793.874817,608
793.993896,610
794.112976,584
794.232056,571
794.351074,580
794.470215,582
794.589233,577
794.708313,566
794.827393,566
794.946411,583
795.065552,598
795.18457,594
795.303589,602
795.422668,594
795.541687,579
795.660767,595
795.779846,582
795.898865,587
796.017883,580
796.136963,562
796.255981,580
796.375061,574
796.49408,570
796.613037,602
796.732117,569
796.851135,592
796.970154,569
797.089233,575
797.208191,587
797.327271,568
797.446228,588
797.565186,585
797.684265,585
797.803223,578
797.922241,574
798.04126,553
798.160278,586
798.279297,561
798.398315,584
798.517273,577
798.636292,604
798.75531,574
798.874268,563
798.993286,582
799.112244,580
799.231323,578
799.350281,563
799.469238,579
799.588257,578
799.707153,577
799.826111,583
799.945129,551
800.064087,580
800.183044,584
800.302063,580
800.421021,553
800.539978,579
800.658936,567
800.777893,568
800.896912,570
801.015747,582
801.134705,580
801.253723,593
801.37262,548
801.491638,590
801.610535,584
801.729492,573
801.84845,556
801.967407,584
802.086243,570
802.205261,577
802.324158,579
802.443115,592
802.562073,580
802.680969,579
802.799927,588
802.918762,577
803.037659,569
803.156677,592
803.275574,587
803.39447,590
803.513428,597
803.632263,577
803.751221,589
803.870117,606
803.989014,616
804.107971,590
804.226746,582
804.345642,594
804.4646,581
804.583496,593
804.702393,589
804.821228,606
804.940125,608
805.059021,595
805.177917,600
805.296814,600
805.415649,591
805.534546,590
805.653442,604
805.772278,602
805.891113,619
806.01001,613
806.128906,598
806.247742,598
806.366577,603
806.485413,617
806.604309,600
806.723145,624
806.84198,603
806.960876,607
807.079712,622
807.198486,591
807.317383,611
807.436218,596
807.554993,584
807.673889,593
807.792725,612
807.91156,599
808.030396,590
808.14917,611
808.268005,606
808.386841,613
808.505676,610
808.624451,610
808.743286,615
808.862122,625
808.980896,614
809.099731,624
809.218506,589
809.337341,628
809.456116,608
809.57489,604
809.693726,613
809.8125,631
809.931274,599
810.050049,625
810.168884,615
810.287659,649
810.406372,630
810.525269,604
810.643982,609
810.762756,622
810.881531,630
811.000305,608
811.11908,602
811.237854,601
811.356567,620
811.475403,621
811.594116,602
811.71283,628
811.831604,619
811.950378,615
812.069153,630
812.187927,626
812.30658,618
812.425415,637
812.544128,611
812.662781,623
812.781616,609
812.900269,658
813.019043,645
813.137756,619
813.256531,621
813.375244,632
813.493896,638
813.612671,629
813.731384,599
813.850037,628
813.96875,625
814.087524,633
814.206238,623
814.324951,626
814.443604,605
814.562256,621
814.68103,618
814.799683,626
814.918335,610
815.037109,613
815.155762,596
815.274475,625
815.393188,626
815.511841,598
815.630554,642
815.749146,625
815.867859,615
815.986572,609
816.105164,611
816.223877,616
816.342529,625
816.461182,619
816.579895,628
816.698486,602
816.817139,620
816.935791,609
817.054504,598
817.173096,633
817.291748,594
817.4104,595
817.529053,596
817.647644,595
817.766235,581
817.884949,561
818.00354,572
818.122192,568
818.240845,552
818.359436,541
818.478088,550
818.59668,518
818.715271,544
818.833923,530
818.952515,526
819.071106,521
819.189758,507
819.30835,507
819.426941,506
819.545532,507
819.664124,486
819.782715,520
819.901306,514
820.019897,480
820.138489,480
820.25708,526
820.375671,500
820.494202,504
820.612732,514
820.731384,501
820.849915,495
820.968506,499
821.087097,495
821.205627,504
821.324158,507
821.442749,496
821.561279,489
821.679871,505
821.798401,488
821.916931,486
822.035461,476
822.154053,470
822.272583,498
822.391174,478
822.509583,493
822.628174,486
822.746704,480
822.865234,481
822.983765,457
823.102295,476
823.220825,476
823.339294,497
823.457825,477
823.576355,503
823.694824,471
823.813354,496
823.931885,491
824.050354,505
824.168884,482
824.287354,480
824.405823,484
824.524353,500
824.642822,494
824.761353,500
824.879822,487
824.998291,484
825.116699,511
825.235291,491
825.353699,480
825.472168,487
825.590637,467
825.709106,453
825.827576,472
825.946045,471
826.064453,485
826.182983,469
826.301392,485
826.4198,480
826.53833,478
826.656738,457
826.775208,480
826.893677,482
827.012024,491
827.130493,488
827.248962,480
827.36731,455
827.485779,477
827.604248,470
827.722595,471
827.841064,458
827.959412,462
828.077942,477
828.196289,457
828.314636,481
828.433105,468
828.551514,462
828.669861,474
828.78833,465
828.906677,481
829.025085,490
829.143433,453
829.261841,475
829.38031,469
829.498657,470
829.617004,447
829.735413,470
829.85376,462
829.972107,449
830.090515,471
830.208862,473
830.327209,454
830.445557,464
830.563904,468
830.682312,473
830.800659,461
830.919006,471
831.037354,459
831.155701,453
831.274048,449
831.392395,444
831.51062,454
831.629028,473
831.747314,444
831.865662,482
831.984009,478
832.102356,469
832.220642,470
832.338928,477
832.457275,453
832.575623,459
832.693909,439
832.812134,446
832.930481,471
833.048828,468
833.167114,469
833.2854,460
833.403687,468
833.521973,471
833.640259,473
833.758545,461
833.876831,450
833.995056,469
834.113281,454
834.231628,478
834.349915,449
834.468201,464
834.586426,466
834.704651,459
834.822998,461
834.941162,469
835.059448,467
835.177673,458
835.295959,469
835.414246,471
835.53241,468
835.650635,480
835.768921,465
835.887146,479
836.005371,455
836.123596,465
836.241821,471
836.360046,477
836.478271,490
836.596497,487
836.714722,461
836.832886,473
836.95105,471
837.069336,468
837.1875,465
837.305725,459
837.423889,503
837.542053,461
837.660339,491
837.778503,474
837.896667,493
838.014832,492
838.132996,492
838.25116,488
838.369385,480
838.487488,469
838.605713,476
838.723877,482
838.84198,469
838.960205,474
839.078308,466
839.196472,470
839.314636,464
839.4328,463
839.550964,475
839.669067,501
839.787231,464
839.905396,489
840.023499,454
840.141602,466
840.259766,478
840.377869,469
840.495972,460
840.614136,466
840.732239,468
840.850342,477
840.968445,468
841.086548,468
841.204651,494
841.322754,469
841.440918,485
841.55896,475
841.677002,459
841.795166,465
841.913208,460
842.031311,490
842.149353,467
842.267456,477
842.385498,449
842.503601,461
842.621643,455
842.739746,457
842.857788,463
842.97583,462
843.093933,471
843.211975,471
843.330017,445
843.44812,473
843.566101,453
843.684204,464
843.802246,447
843.920227,475
844.038269,456
844.156311,454
844.274292,462
844.392395,452
844.510376,461
844.628357,461
844.74646,444
844.864441,448
844.982422,458
845.100403,433
845.218384,471
845.336426,444
845.454468,455
845.572449,465
845.69043,443
845.808411,479
845.926453,445
846.044373,460
846.162354,449
846.280396,460
846.398315,447
846.516296,456
846.634216,458
846.752197,462
846.870178,447
846.988098,445
847.106079,461
847.22406,445
847.34198,459
847.4599,465
847.577881,445
847.695801,458
847.813782,468
847.931641,468
848.049561,450
848.167603,458
848.285461,458
848.403381,449
848.521362,462
848.639221,440
848.75708,438
848.875,479
848.99292,452
849.110901,437
849.22876,444
849.34668,465
849.464539,430
849.582458,465
849.700317,459
849.818176,455
849.936096,453
850.053955,470
850.171875,442
850.289673,438
850.407593,455
850.525452,448
850.643311,432
850.761169,472
850.878967,456
850.996887,443
851.114746,459
851.232544,458
851.350403,459
851.468262,466
851.58606,455
851.703979,454
851.821777,453
851.939636,475
852.057434,474
852.175232,447
852.293091,469
852.410889,462
852.528687,463
852.646545,473
852.764343,443
852.88208,451
852.999939,455
853.117676,464
853.235535,459
853.353271,462
853.471069,467
853.588928,454
853.706604,462
853.824402,460
853.9422,478
854.059998,467
854.177734,449
854.295532,458
854.413269,454
854.531006,475
854.648804,462
854.766541,453
854.884277,473
855.002014,457
855.119751,444
855.237549,475
855.355225,463
855.473022,461
855.590698,466
855.708435,494
855.826172,463
855.943848,474
856.061646,461
856.179321,465
856.296997,465
856.414795,456
856.53241,454
856.650085,489
856.767822,473
856.885559,487
857.003174,462
857.120911,465
857.238586,471
857.356201,465
857.473938,470
857.591614,474
857.709351,449
857.826965,459
857.944641,465
858.062317,467
858.179993,463
858.297668,452
858.415283,457
858.532959,459
858.650574,453
858.768188,484
858.885803,454
859.003479,464
859.121094,475
859.23877,470
859.356384,460
859.473999,470
859.591675,468
859.709229,457
859.826843,468
859.944458,446
860.062012,477
860.179626,459
860.297302,461
860.414856,463
860.532471,462
860.650024,479
860.767639,448
860.885193,474
861.002808,456
861.120361,485
861.237976,469
861.35553,468
861.473022,473
861.590698,460
861.708191,459
861.825745,466
861.943298,472
862.060852,481
862.178406,460
862.295959,478
862.413513,457
862.531006,485
862.64856,475
862.766113,474
862.883667,463
863.00116,464
863.118713,467
863.236206,458
863.353699,457
863.471252,482
863.588745,457
863.706177,469
863.82373,471
863.941162,465
864.058716,470
864.176208,472
864.29364,467
864.411194,468
864.528687,479
864.646118,472
864.763611,458
864.881042,476
864.998535,471
865.116028,459
865.233459,465
865.350891,454
865.468384,465
865.585754,467
865.703308,452
865.820679,469
865.938171,458
866.055542,454
866.173035,480
866.290466,476
866.407837,479
866.52533,474
866.6427,463
866.760071,478
866.877563,462
866.994934,483
867.112305,461
867.229736,469
867.347107,463
867.464539,470
867.58197,479
867.699341,464
867.81665,469
867.934082,484
868.051453,481
868.168823,479
868.286194,443
868.403564,470
868.520935,476
868.638306,464
868.755676,468
868.872986,468
868.990295,439
869.107727,475
869.225037,480
869.342346,480
869.459717,465
869.577026,477
869.694336,474
869.811707,472
869.929016,472
870.046326,465
870.163635,470
870.280945,476
870.398254,475
870.515564,457
870.632812,456
870.750183,472
870.867432,478
870.984741,456
871.102051,472
871.219299,462
871.336609,476
871.453918,502
871.571106,468
871.688416,473
871.805664,474
871.922852,485
872.040222,474
872.157471,471
872.274719,463
872.391968,487
872.509155,465
872.626465,467
872.743652,452
872.860962,467
872.978149,450
873.095337,469
873.212646,460
873.329834,477
873.44696,464
873.564209,484
873.681396,465
873.798645,487
873.915894,461
874.03302,465
874.150208,462
874.267456,475
874.384583,462
874.501831,463
874.618958,484
874.736145,474
874.853333,455
874.970459,473
875.087646,465
875.204834,471
875.32196,469
875.439148,486
875.556274,468
875.673401,485
875.790527,470
875.907715,487
876.024841,466
876.141968,459
876.259094,463
876.376282,462
876.493347,466
876.610474,494
876.7276,471
876.844727,472
876.961853,473
877.078918,486
877.195984,469
877.313171,480
877.430237,457
877.547302,478
877.664368,460
877.781433,494
877.898499,465
878.015625,483
878.13269,472
878.249695,471
878.366821,458
878.483887,453
878.600952,451
878.717957,481
878.834961,477
878.952087,489
879.069092,472
879.186157,483
879.303162,471
879.420227,475
879.537231,467
879.654236,445
879.77124,447
879.888306,493
880.005249,477
880.122314,492
880.239319,464
880.356323,458
880.473328,458
880.590271,494
880.707275,479
880.824341,471
880.941284,462
881.058228,491
881.175232,474
881.292236,474
881.40918,471
881.526123,466
881.643066,480
881.760071,473
881.877014,466
881.993958,482
882.11084,470
882.227783,468
882.344727,469
882.46167,459
882.578613,462
882.695618,464
882.812439,481
882.929382,471
883.046326,477
883.163208,489
883.280151,467
883.397034,472
883.513916,456
883.630798,488
883.747742,490
883.864563,481
883.981506,475
884.098389,486
884.21521,472
884.332153,497
884.448975,490
884.565796,469
884.682678,477
884.7995,492
884.916443,470
885.033264,471
885.150085,469
885.266968,481
885.383789,482
885.500671,474
885.617493,481
885.734314,484
885.851196,482
885.967896,498
886.084717,484
886.201599,488
886.318359,471
886.435181,488
886.552002,493
886.668762,473
886.785645,484
886.902344,495
887.019165,479
887.135925,479
887.252747,473
887.369446,456
887.486267,487
887.603027,465
887.719788,474
887.836548,468
887.953247,477
888.070068,491
888.186829,475
888.303528,485
888.420288,475
888.536987,477
888.653687,484
888.770447,474
888.887146,488
889.003967,492
889.120667,466
889.237305,484
889.354065,492
889.470703,474
889.587463,472
889.704163,485
889.820862,468
889.937561,499
890.054199,475
890.170837,473
890.287598,478
890.404236,486
890.520874,476
890.637634,478
890.754211,483
890.87085,474
890.987549,486
891.104187,468
891.220886,485
891.337463,483
891.454102,484
891.57074,487
891.687378,494
891.804077,508
891.920654,487
892.037231,482
892.15387,507
892.270447,488
892.387085,481
892.503723,483
892.6203,474
892.736877,505
892.853516,480
892.970032,485
893.08667,504
893.203186,475
893.319763,493
893.43634,485
893.552917,479
893.669556,484
893.786011,489
893.902588,476
894.019165,464
894.135681,486
894.252197,480
894.368835,502
894.485291,490
894.601868,491
894.718384,489
894.8349,487
894.951355,475
895.067932,480
895.184448,470
895.300964,509
895.417419,483
895.533936,474
895.650452,504
895.766907,501
895.883423,488
895.999878,504
896.116333,498
896.232849,475
896.349304,465
896.465759,500
896.582214,504
896.698669,497
896.815125,475
896.931641,499
897.048035,503
897.164551,506
897.280884,475
897.397339,494
897.513794,477
897.630249,483
897.746582,492
897.863098,476
897.979431,490
898.095886,482
898.212341,485
898.328674,488
898.445129,475
898.561462,494
898.677795,478
898.794312,490
898.910645,503
899.026978,498
899.143433,508
899.259766,484
899.37616,511
899.492493,498
899.608765,483
899.725159,476
899.841553,474
899.957947,515
900.07428,501
900.190552,522
900.306946,464
900.423157,500
900.53949,486
900.655884,512
900.772156,498
900.888489,493
901.004822,479
901.121033,494
901.237366,466
901.353699,508
901.46991,495
901.586304,479
901.702515,488
901.818787,499
901.93512,494
902.051331,493
902.167603,497
902.283875,475
902.400085,487
902.516418,504
902.632629,488
902.74884,494
902.865112,505
902.981384,500
903.097595,495
903.213867,510
903.330017,492
903.446289,493
903.5625,516
903.67865,503
903.794922,492
903.911072,491
904.027344,490
904.143494,494
904.259705,505
904.375916,481
904.492065,486
904.608215,510
904.724426,495
904.840576,501
904.956726,480
905.072876,494
905.189087,482
905.305176,511
905.421387,481
905.537537,502
905.653687,492
905.769775,517
905.885925,498
906.002014,502
906.118164,494
906.234314,493
906.350403,486
906.466492,496
906.582642,497
906.69873,519
906.814758,466
906.930908,504
907.046936,498
907.163086,488
907.279175,495
907.395264,487
907.511353,482
907.62738,500
907.743408,486
907.859497,498
907.975525,496
908.091553,502
908.207703,488
908.32373,489
908.439758,494
908.555786,490
908.671814,488
908.787842,519
908.90387,510
909.019775,499
909.135864,493
909.251892,478
909.367859,485
909.483826,491
909.599854,492
909.715881,494
909.831848,490
909.947815,525
910.063782,507
910.179749,491
910.295776,478
910.411743,506
910.527649,477
910.643616,507
910.759583,492
910.875488,508
910.991455,521
911.107361,497
911.223267,491
911.339294,486
911.4552,476
911.571106,506
911.687073,489
911.802979,492
911.918823,497
912.034729,495
912.150635,490
912.266602,511
912.382446,490
912.498352,501
912.614197,489
912.730103,505
912.846008,487
