792.44574,622
792.56488,630
792.68396,692
792.80304,634
792.92218,621
793.041199,581
793.160339,599
793.279419,615
793.398499,591
793.517578,589
793.636658,587
793.755737,608
793.874817,590
793.993896,608
794.112976,622
794.232056,593
794.351074,601
794.470215,580
794.589233,595
794.708313,584
794.827393,589
794.946411,569
795.065552,600
795.18457,603
795.303589,560
795.422668,590
795.541687,610
795.660767,574
795.779846,566
795.898865,585
796.017883,589
796.136963,569
796.255981,589
796.375061,578
796.49408,575
796.613037,553
796.732117,570
796.851135,556
796.970154,569
797.089233,583
797.208191,558
797.327271,580
797.446228,591
797.565186,573
797.684265,565
797.803223,557
797.922241,574
798.04126,576
798.160278,568
798.279297,561
798.398315,585
798.517273,569
798.636292,595
798.75531,564
798.874268,581
798.993286,559
799.112244,578
799.231323,572
799.350281,593
799.469238,565
799.588257,574
799.707153,575
799.826111,594
799.945129,580
800.064087,566
800.183044,555
800.302063,559
800.421021,564
800.539978,570
800.658936,573
800.777893,558
800.896912,545
801.015747,566
801.134705,552
801.253723,556
801.37262,591
801.491638,578
801.610535,571
801.729492,588
801.84845,556
801.967407,587
802.086243,590
802.205261,576
802.324158,566
802.443115,574
802.562073,589
802.680969,579
802.799927,571
802.918762,563
803.037659,571
803.156677,573
803.275574,585
803.39447,581
803.513428,594
803.632263,581
803.751221,588
803.870117,588
803.989014,568
804.107971,571
804.226746,585
804.345642,571
804.4646,600
804.583496,590
804.702393,546
804.821228,562
804.940125,599
805.059021,606
805.177917,602
805.296814,604
805.415649,586
805.534546,599
805.653442,592
805.772278,600
805.891113,590
806.01001,597
806.128906,586
806.247742,594
806.366577,601
806.485413,593
806.604309,596
806.723145,609
806.84198,607
806.960876,584
807.079712,621
807.198486,588
807.317383,617
807.436218,621
807.554993,587
807.673889,582
807.792725,588
807.91156,609
808.030396,602
808.14917,612
808.268005,626
808.386841,611
808.505676,607
808.624451,608
808.743286,606
808.862122,591
808.980896,643
809.099731,615
809.218506,602
809.337341,619
809.456116,605
809.57489,608
809.693726,615
809.8125,604
809.931274,629
810.050049,625
810.168884,610
810.287659,604
810.406372,623
810.525269,616
810.643982,619
810.762756,607
810.881531,621
811.000305,622
811.11908,611
811.237854,637
811.356567,615
811.475403,625
811.594116,617
811.71283,605
811.831604,623
811.950378,635
812.069153,615
812.187927,628
812.30658,614
812.425415,631
812.544128,626
812.662781,612
812.781616,610
812.900269,617
813.019043,602
813.137756,616
813.256531,592
813.375244,631
813.493896,610
813.612671,649
813.731384,629
813.850037,603
813.96875,624
814.087524,607
814.206238,602
814.324951,619
814.443604,587
814.562256,612
814.68103,602
814.799683,609
814.918335,592
815.037109,613
815.155762,600
815.274475,602
815.393188,623
815.511841,596
815.630554,594
815.749146,604
815.867859,612
815.986572,581
816.105164,573
816.223877,596
816.342529,611
816.461182,588
816.579895,590
816.698486,616
816.817139,607
816.935791,583
817.054504,597
817.173096,605
817.291748,565
817.4104,599
817.529053,578
817.647644,601
817.766235,560
817.884949,575
818.00354,558
818.122192,552
818.240845,534
818.359436,550
818.478088,542
818.59668,533
818.715271,513
818.833923,533
818.952515,503
819.071106,514
819.189758,498
819.30835,524
819.426941,503
819.545532,517
819.664124,490
819.782715,506
819.901306,498
820.019897,509
820.138489,484
820.25708,495
820.375671,491
820.494202,486
820.612732,478
820.731384,501
820.849915,500
820.968506,463
821.087097,489
821.205627,488
821.324158,500
821.442749,480
821.561279,496
821.679871,487
821.798401,493
821.916931,480
822.035461,478
822.154053,503
822.272583,489
822.391174,473
822.509583,468
822.628174,470
822.746704,478
822.865234,500
822.983765,479
823.102295,478
823.220825,460
823.339294,460
823.457825,489
823.576355,468
823.694824,474
823.813354,490
823.931885,467
824.050354,500
824.168884,487
824.287354,484
824.405823,493
824.524353,494
824.642822,493
824.761353,482
824.879822,469
824.998291,496
825.116699,482
825.235291,509
825.353699,467
825.472168,489
825.590637,464
825.709106,477
825.827576,476
825.946045,492
826.064453,476
826.182983,476
826.301392,463
826.4198,468
826.53833,468
826.656738,482
826.775208,469
826.893677,477
827.012024,454
827.130493,466
827.248962,461
827.36731,454
827.485779,474
827.604248,472
827.722595,450
827.841064,465
827.959412,448
828.077942,474
828.196289,460
828.314636,479
828.433105,467
828.551514,462
828.669861,450
828.78833,446
828.906677,475
829.025085,459
829.143433,456
829.261841,481
829.38031,464
829.498657,455
829.617004,477
829.735413,466
829.85376,438
829.972107,450
830.090515,431
830.208862,467
830.327209,463
830.445557,466
830.563904,471
830.682312,469
830.800659,457
830.919006,461
831.037354,458
831.155701,466
831.274048,443
831.392395,467
831.51062,461
831.629028,462
831.747314,453
831.865662,448
831.984009,442
832.102356,460
832.220642,459
832.338928,452
832.457275,461
832.575623,452
832.693909,472
832.812134,467
832.930481,456
833.048828,468
833.167114,462
833.2854,464
833.403687,447
833.521973,456
833.640259,449
833.758545,460
833.876831,441
833.995056,454
834.113281,461
834.231628,457
834.349915,454
834.468201,457
834.586426,449
834.704651,456
834.822998,449
834.941162,456
835.059448,485
835.177673,464
835.295959,466
835.414246,443
835.53241,471
835.650635,472
835.768921,459
835.887146,461
836.005371,450
836.123596,463
836.241821,459
836.360046,456
836.478271,475
836.596497,461
836.714722,475
836.832886,465
836.95105,461
837.069336,467
837.1875,474
837.305725,490
837.423889,481
837.542053,475
837.660339,488
837.778503,474
837.896667,455
838.014832,477
838.132996,470
838.25116,469
838.369385,476
838.487488,477
838.605713,459
838.723877,482
838.84198,449
838.960205,480
839.078308,462
839.196472,472
839.314636,473
839.4328,487
839.550964,472
839.669067,453
839.787231,466
839.905396,476
840.023499,485
840.141602,490
840.259766,474
840.377869,457
840.495972,496
840.614136,462
840.732239,462
840.850342,489
840.968445,482
841.086548,462
841.204651,474
841.322754,439
841.440918,451
841.55896,458
841.677002,482
841.795166,466
841.913208,466
842.031311,472
842.149353,464
842.267456,460
842.385498,459
842.503601,452
842.621643,460
842.739746,450
842.857788,454
842.97583,451
843.093933,460
843.211975,468
843.330017,445
843.44812,459
843.566101,456
843.684204,438
843.802246,452
843.920227,445
844.038269,460
844.156311,451
844.274292,456
844.392395,430
844.510376,462
844.628357,445
844.74646,447
844.864441,466
844.982422,446
845.100403,462
845.218384,457
845.336426,452
845.454468,449
845.572449,446
845.69043,439
845.808411,460
845.926453,442
846.044373,450
846.162354,454
846.280396,462
846.398315,444
846.516296,450
846.634216,441
846.752197,457
846.870178,437
846.988098,442
847.106079,439
847.22406,447
847.34198,452
847.4599,453
847.577881,452
847.695801,465
847.813782,443
847.931641,456
848.049561,444
848.167603,439
848.285461,449
848.403381,449
848.521362,441
848.639221,467
848.75708,457
848.875,455
848.99292,434
849.110901,457
849.22876,449
849.34668,442
849.464539,451
849.582458,456
849.700317,459
849.818176,445
849.936096,459
850.053955,469
850.171875,439
850.289673,455
850.407593,435
850.525452,460
850.643311,446
850.761169,472
850.878967,452
850.996887,471
851.114746,458
851.232544,459
851.350403,454
851.468262,458
851.58606,443
851.703979,469
851.821777,454
851.939636,446
852.057434,458
852.175232,465
852.293091,471
852.410889,468
852.528687,462
852.646545,463
852.764343,452
852.88208,462
852.999939,468
853.117676,456
853.235535,445
853.353271,464
853.471069,461
853.588928,432
853.706604,451
853.824402,456
853.9422,458
854.059998,458
854.177734,446
854.295532,456
854.413269,479
854.531006,460
854.648804,438
854.766541,454
854.884277,476
855.002014,470
855.119751,436
855.237549,456
855.355225,465
855.473022,448
855.590698,436
855.708435,461
855.826172,464
855.943848,456
856.061646,469
856.179321,447
856.296997,456
856.414795,462
856.53241,443
856.650085,464
856.767822,449
856.885559,467
857.003174,455
857.120911,463
857.238586,473
857.356201,472
857.473938,463
857.591614,486
857.709351,461
857.826965,483
857.944641,449
858.062317,478
858.179993,466
858.297668,458
858.415283,442
858.532959,462
858.650574,459
858.768188,472
858.885803,429
859.003479,453
859.121094,462
859.23877,453
859.356384,481
859.473999,450
859.591675,460
859.709229,450
859.826843,435
859.944458,453
860.062012,454
860.179626,455
860.297302,439
860.414856,451
860.532471,447
860.650024,445
860.767639,448
860.885193,451
861.002808,471
861.120361,464
861.237976,440
861.35553,464
861.473022,425
861.590698,443
861.708191,444
861.825745,455
861.943298,462
862.060852,456
862.178406,462
862.295959,482
862.413513,463
862.531006,429
862.64856,459
862.766113,456
862.883667,448
863.00116,466
863.118713,457
863.236206,466
863.353699,464
863.471252,452
863.588745,457
863.706177,451
863.82373,467
863.941162,475
864.058716,473
864.176208,472
864.29364,461
864.411194,460
864.528687,448
864.646118,483
864.763611,443
864.881042,466
864.998535,468
865.116028,461
865.233459,469
865.350891,470
865.468384,485
865.585754,476
865.703308,442
865.820679,461
865.938171,447
866.055542,449
866.173035,458
866.290466,461
866.407837,463
866.52533,487
866.6427,438
866.760071,467
866.877563,463
866.994934,452
867.112305,450
867.229736,468
867.347107,439
867.464539,468
867.58197,461
867.699341,486
867.81665,464
867.934082,484
868.051453,447
868.168823,460
868.286194,447
868.403564,468
868.520935,450
868.638306,454
868.755676,463
868.872986,468
868.990295,453
869.107727,483
869.225037,444
869.342346,460
869.459717,466
869.577026,464
869.694336,479
869.811707,450
869.929016,459
870.046326,461
870.163635,457
870.280945,460
870.398254,454
870.515564,458
870.632812,462
870.750183,473
870.867432,465
870.984741,457
871.102051,479
871.219299,449
871.336609,472
871.453918,449
871.571106,463
871.688416,482
871.805664,462
871.922852,462
872.040222,464
872.157471,464
872.274719,460
872.391968,487
872.509155,467
872.626465,461
872.743652,445
872.860962,476
872.978149,460
873.095337,447
873.212646,464
873.329834,464
873.44696,479
873.564209,470
873.681396,480
873.798645,476
873.915894,451
874.03302,474
874.150208,468
874.267456,457
874.384583,459
874.501831,459
874.618958,466
874.736145,473
874.853333,439
874.970459,451
875.087646,476
875.204834,460
875.32196,448
875.439148,461
875.556274,459
875.673401,483
875.790527,470
875.907715,465
876.024841,458
876.141968,466
876.259094,468
876.376282,484
876.493347,463
876.610474,447
876.7276,436
876.844727,457
876.961853,458
877.078918,463
877.195984,467
877.313171,476
877.430237,453
877.547302,475
877.664368,478
877.781433,477
877.898499,478
878.015625,453
878.13269,454
878.249695,477
878.366821,466
878.483887,470
878.600952,457
878.717957,473
878.834961,473
878.952087,464
879.069092,456
879.186157,487
879.303162,468
879.420227,477
879.537231,470
879.654236,438
879.77124,464
879.888306,455
880.005249,457
880.122314,450
880.239319,456
880.356323,467
880.473328,444
880.590271,459
880.707275,462
880.824341,452
880.941284,441
881.058228,471
881.175232,445
881.292236,440
881.40918,476
881.526123,448
881.643066,467
881.760071,459
881.877014,452
881.993958,478
882.11084,448
882.227783,474
882.344727,447
882.46167,467
882.578613,459
882.695618,472
882.812439,474
882.929382,482
883.046326,450
883.163208,479
883.280151,463
883.397034,450
883.513916,457
883.630798,469
883.747742,456
883.864563,476
883.981506,452
884.098389,455
884.21521,458
884.332153,458
884.448975,436
884.565796,455
884.682678,462
884.7995,467
884.916443,471
885.033264,441
885.150085,476
885.266968,472
885.383789,453
885.500671,467
885.617493,471
885.734314,474
885.851196,461
885.967896,468
886.084717,461
886.201599,475
886.318359,473
886.435181,471
886.552002,471
886.668762,471
886.785645,466
886.902344,481
887.019165,447
887.135925,467
887.252747,484
887.369446,482
887.486267,466
887.603027,474
887.719788,467
887.836548,461
887.953247,453
888.070068,484
888.186829,475
888.303528,462
888.420288,472
888.536987,477
888.653687,469
888.770447,481
888.887146,485
889.003967,459
889.120667,478
889.237305,478
889.354065,459
889.470703,465
889.587463,463
889.704163,491
889.820862,487
889.937561,473
890.054199,489
890.170837,469
890.287598,461
890.404236,473
890.520874,473
890.637634,490
890.754211,456
890.87085,462
890.987549,471
891.104187,473
891.220886,470
891.337463,479
891.454102,479
891.57074,466
891.687378,455
891.804077,466
891.920654,485
892.037231,480
892.15387,496
892.270447,465
892.387085,460
892.503723,481
892.6203,468
892.736877,485
892.853516,486
892.970032,463
893.08667,479
893.203186,462
893.319763,474
893.43634,489
893.552917,474
893.669556,479
893.786011,469
893.902588,472
894.019165,473
894.135681,467
894.252197,471
894.368835,473
894.485291,472
894.601868,476
894.718384,476
894.8349,482
894.951355,482
895.067932,489
895.184448,469
895.300964,459
895.417419,459
895.533936,485
895.650452,469
895.766907,477
895.883423,462
895.999878,494
896.116333,487
896.232849,477
896.349304,483
896.465759,489
896.582214,452
896.698669,460
896.815125,483
896.931641,461
897.048035,464
897.164551,490
897.280884,452
897.397339,471
897.513794,464
897.630249,482
897.746582,462
897.863098,492
897.979431,483
898.095886,475
898.212341,471
898.328674,473
898.445129,460
898.561462,466
898.677795,475
898.794312,467
898.910645,491
899.026978,460
899.143433,477
899.259766,461
899.37616,480
899.492493,485
899.608765,478
899.725159,467
899.841553,475
899.957947,477
900.07428,476
900.190552,476
900.306946,482
900.423157,489
900.53949,472
900.655884,497
900.772156,463
900.888489,476
901.004822,480
901.121033,493
901.237366,473
901.353699,479
901.46991,468
901.586304,497
901.702515,470
901.818787,478
901.93512,471
902.051331,480
902.167603,480
902.283875,487
902.400085,475
902.516418,470
902.632629,466
902.74884,496
902.865112,483
902.981384,493
903.097595,489
903.213867,466
903.330017,466
903.446289,479
903.5625,503
903.67865,477
903.794922,466
903.911072,460
904.027344,469
904.143494,474
904.259705,500
904.375916,495
904.492065,489
904.608215,481
904.724426,473
904.840576,466
904.956726,472
905.072876,482
905.189087,469
905.305176,487
905.421387,479
905.537537,478
905.653687,497
905.769775,474
905.885925,479
906.002014,488
906.118164,485
906.234314,483
906.350403,480
906.466492,491
906.582642,486
906.69873,490
906.814758,466
906.930908,465
907.046936,477
907.163086,472
907.279175,474
907.395264,465
907.511353,471
907.62738,490
907.743408,453
907.859497,481
907.975525,487
908.091553,464
908.207703,471
908.32373,484
908.439758,483
908.555786,491
908.671814,481
908.787842,468
908.90387,475
909.019775,480
909.135864,480
909.251892,490
909.367859,483
909.483826,502
909.599854,460
909.715881,490
909.831848,467
909.947815,497
910.063782,465
910.179749,483
910.295776,474
910.411743,489
910.527649,468
910.643616,501
910.759583,488
910.875488,477
910.991455,474
911.107361,483
911.223267,484
911.339294,470
911.4552,491
911.571106,475
911.687073,481
911.802979,494
911.918823,479
912.034729,484
912.150635,483
912.266602,475
912.382446,489
912.498352,487
912.614197,488
912.730103,492
912.846008,491
792.44574,607
792.56488,642
792.68396,673
792.80304,665
792.92218,609
793.041199,588
793.160339,594
793.279419,629
793.398499,570
793.517578,592
793.636658,582
793.755737,599
793.874817,618
793.993896,606
794.112976,606
794.232056,586
794.351074,597
794.470215,584
794.589233,599
794.708313,594
794.827393,596
794.946411,578
795.065552,588
795.18457,609
795.303589,580
795.422668,555
795.541687,595
795.660767,582
795.779846,587
795.898865,582
796.017883,569
796.136963,572
796.255981,568
796.375061,594
796.49408,592
796.613037,576
796.732117,582
796.851135,595
796.970154,575
797.089233,546
797.208191,582
797.327271,591
797.446228,583
797.565186,584
797.684265,578
797.803223,564
797.922241,537
798.04126,556
798.160278,563
798.279297,580
798.398315,562
798.517273,563
798.636292,574
798.75531,576
798.874268,578
798.993286,578
799.112244,570
799.231323,565
799.350281,564
799.469238,586
799.588257,576
799.707153,584
799.826111,544
799.945129,567
800.064087,580
800.183044,586
800.302063,590
800.421021,601
800.539978,581
800.658936,581
800.777893,587
800.896912,579
801.015747,582
801.134705,558
801.253723,562
801.37262,594
801.491638,576
801.610535,578
801.729492,571
801.84845,582
801.967407,582
802.086243,591
802.205261,564
802.324158,577
802.443115,592
802.562073,580
802.680969,569
802.799927,565
802.918762,575
803.037659,568
803.156677,590
803.275574,598
803.39447,591
803.513428,590
803.632263,609
803.751221,567
803.870117,614
803.989014,608
804.107971,589
804.226746,591
804.345642,602
804.4646,586
804.583496,599
804.702393,590
804.821228,633
804.940125,593
805.059021,599
805.177917,590
805.296814,602
805.415649,606
805.534546,604
805.653442,602
805.772278,595
805.891113,619
806.01001,608
806.128906,608
806.247742,583
806.366577,601
806.485413,590
806.604309,601
806.723145,597
806.84198,604
806.960876,609
807.079712,615
807.198486,581
807.317383,593
807.436218,618
807.554993,583
807.673889,591
807.792725,606
807.91156,596
808.030396,606
808.14917,611
808.268005,610
808.386841,610
808.505676,629
808.624451,606
808.743286,618
808.862122,590
808.980896,626
809.099731,607
809.218506,620
809.337341,616
809.456116,605
809.57489,631
809.693726,631
809.8125,593
809.931274,622
810.050049,611
810.168884,618
810.287659,613
810.406372,652
810.525269,621
810.643982,620
810.762756,638
810.881531,633
811.000305,613
811.11908,598
811.237854,632
811.356567,601
811.475403,623
811.594116,605
811.71283,621
811.831604,609
811.950378,632
812.069153,628
812.187927,613
812.30658,623
812.425415,661
812.544128,634
812.662781,622
812.781616,629
812.900269,610
813.019043,618
813.137756,615
813.256531,624
813.375244,613
813.493896,618
813.612671,601
813.731384,627
813.850037,627
813.96875,621
814.087524,622
814.206238,605
814.324951,633
814.443604,616
814.562256,633
814.68103,613
814.799683,616
814.918335,629
815.037109,611
815.155762,631
815.274475,619
815.393188,585
815.511841,599
815.630554,609
815.749146,602
815.867859,590
815.986572,590
816.105164,591
816.223877,594
816.342529,613
816.461182,609
816.579895,600
816.698486,616
816.817139,610
816.935791,618
817.054504,617
817.173096,599
817.291748,619
817.4104,579
817.529053,606
817.647644,607
817.766235,575
817.884949,619
818.00354,556
818.122192,560
818.240845,544
818.359436,541
818.478088,553
818.59668,531
818.715271,510
818.833923,523
818.952515,525
819.071106,497
819.189758,532
819.30835,537
819.426941,516
819.545532,510
819.664124,492
819.782715,503
819.901306,497
820.019897,511
820.138489,515
820.25708,481
820.375671,497
820.494202,474
820.612732,500
820.731384,494
820.849915,512
820.968506,496
821.087097,488
821.205627,477
821.324158,508
821.442749,503
821.561279,484
821.679871,500
821.798401,493
821.916931,474
822.035461,491
822.154053,464
822.272583,487
822.391174,475
822.509583,483
822.628174,479
822.746704,474
822.865234,499
822.983765,476
823.102295,467
823.220825,462
823.339294,466
823.457825,474
823.576355,481
823.694824,467
823.813354,487
823.931885,502
824.050354,488
824.168884,490
824.287354,485
824.405823,487
824.524353,503
824.642822,477
824.761353,500
824.879822,491
824.998291,486
825.116699,490
825.235291,479
825.353699,471
825.472168,475
825.590637,476
825.709106,492
825.827576,490
825.946045,473
826.064453,465
826.182983,497
826.301392,467
826.4198,466
826.53833,458
826.656738,483
826.775208,470
826.893677,467
827.012024,463
827.130493,464
827.248962,452
827.36731,476
827.485779,494
827.604248,452
827.722595,456
827.841064,451
827.959412,459
828.077942,444
828.196289,476
828.314636,469
828.433105,487
828.551514,467
828.669861,478
828.78833,475
828.906677,460
829.025085,476
829.143433,450
829.261841,471
829.38031,479
829.498657,475
829.617004,483
829.735413,473
829.85376,471
829.972107,467
830.090515,452
830.208862,459
830.327209,443
830.445557,453
830.563904,447
830.682312,476
830.800659,459
830.919006,467
831.037354,449
831.155701,477
831.274048,470
831.392395,464
831.51062,459
831.629028,471
831.747314,479
831.865662,468
831.984009,472
832.102356,452
832.220642,456
832.338928,454
832.457275,464
832.575623,449
832.693909,462
832.812134,460
832.930481,453
833.048828,457
833.167114,450
833.2854,459
833.403687,458
833.521973,452
833.640259,448
833.758545,469
833.876831,463
833.995056,472
834.113281,460
834.231628,447
834.349915,455
834.468201,459
834.586426,470
834.704651,462
834.822998,479
834.941162,455
835.059448,459
835.177673,453
835.295959,468
835.414246,455
835.53241,460
835.650635,459
835.768921,464
835.887146,450
836.005371,477
836.123596,474
836.241821,460
836.360046,476
836.478271,452
836.596497,473
836.714722,462
836.832886,477
836.95105,474
837.069336,478
837.1875,474
837.305725,485
837.423889,479
837.542053,495
837.660339,472
837.778503,487
837.896667,485
838.014832,489
838.132996,453
838.25116,490
838.369385,473
838.487488,472
838.605713,482
838.723877,500
838.84198,491
838.960205,459
839.078308,482
839.196472,456
839.314636,468
839.4328,478
839.550964,480
839.669067,460
839.787231,484
839.905396,468
840.023499,487
840.141602,476
840.259766,468
840.377869,451
840.495972,462
840.614136,486
840.732239,485
840.850342,469
840.968445,458
841.086548,471
841.204651,458
841.322754,463
841.440918,450
841.55896,466
841.677002,475
841.795166,462
841.913208,470
842.031311,447
842.149353,469
842.267456,467
842.385498,462
842.503601,456
842.621643,463
842.739746,462
842.857788,475
842.97583,461
843.093933,452
843.211975,472
843.330017,451
843.44812,454
843.566101,466
843.684204,441
843.802246,439
843.920227,467
844.038269,460
844.156311,461
844.274292,469
844.392395,440
844.510376,464
844.628357,438
844.74646,444
844.864441,456
844.982422,466
845.100403,446
845.218384,453
845.336426,480
845.454468,452
845.572449,443
845.69043,446
845.808411,460
845.926453,463
846.044373,459
846.162354,465
846.280396,449
846.398315,455
846.516296,443
846.634216,462
846.752197,444
846.870178,452
846.988098,461
847.106079,452
847.22406,453
847.34198,443
847.4599,442
847.577881,454
847.695801,457
847.813782,464
847.931641,454
848.049561,452
848.167603,455
848.285461,451
848.403381,450
848.521362,445
848.639221,437
848.75708,482
848.875,468
848.99292,449
849.110901,453
849.22876,456
849.34668,457
849.464539,453
849.582458,457
849.700317,438
849.818176,445
849.936096,461
850.053955,466
850.171875,462
850.289673,438
850.407593,443
850.525452,461
850.643311,469
850.761169,469
850.878967,449
850.996887,457
851.114746,454
851.232544,454
851.350403,462
851.468262,446
851.58606,439
851.703979,440
851.821777,446
851.939636,466
852.057434,467
852.175232,471
852.293091,463
852.410889,462
852.528687,454
852.646545,467
852.764343,452
852.88208,466
852.999939,464
853.117676,458
853.235535,455
853.353271,459
853.471069,462
853.588928,483
853.706604,471
853.824402,453
853.9422,460
854.059998,436
854.177734,458
854.295532,451
854.413269,450
854.531006,468
854.648804,470
854.766541,447
854.884277,464
855.002014,465
855.119751,480
855.237549,460
855.355225,478
855.473022,452
855.590698,464
855.708435,458
855.826172,456
855.943848,477
856.061646,470
856.179321,460
856.296997,458
856.414795,454
856.53241,453
856.650085,462
856.767822,473
856.885559,458
857.003174,460
857.120911,447
857.238586,455
857.356201,468
857.473938,447
857.591614,458
857.709351,461
857.826965,456
857.944641,453
858.062317,441
858.179993,456
858.297668,473
858.415283,446
858.532959,460
858.650574,480
858.768188,462
858.885803,476
859.003479,454
859.121094,469
859.23877,450
859.356384,439
859.473999,459
859.591675,470
859.709229,438
859.826843,469
859.944458,456
860.062012,452
860.179626,441
860.297302,450
860.414856,457
860.532471,469
860.650024,468
860.767639,465
860.885193,457
861.002808,476
861.120361,471
861.237976,472
861.35553,470
861.473022,460
861.590698,450
861.708191,470
861.825745,461
861.943298,455
862.060852,450
862.178406,440
862.295959,455
862.413513,453
862.531006,451
862.64856,459
862.766113,468
862.883667,457
863.00116,455
863.118713,465
863.236206,471
863.353699,467
863.471252,461
863.588745,474
863.706177,470
863.82373,442
863.941162,471
864.058716,464
864.176208,465
864.29364,464
864.411194,453
864.528687,466
864.646118,459
864.763611,444
864.881042,460
864.998535,467
865.116028,466
865.233459,469
865.350891,467
865.468384,463
865.585754,460
865.703308,451
865.820679,489
865.938171,477
866.055542,466
866.173035,463
866.290466,463
866.407837,469
866.52533,472
866.6427,456
866.760071,462
866.877563,456
866.994934,451
867.112305,475
867.229736,456
867.347107,442
867.464539,466
867.58197,468
867.699341,455
867.81665,470
867.934082,460
868.051453,440
868.168823,450
868.286194,473
868.403564,463
868.520935,500
868.638306,459
868.755676,438
868.872986,468
868.990295,480
869.107727,493
869.225037,476
869.342346,465
869.459717,467
869.577026,469
869.694336,464
869.811707,463
869.929016,462
870.046326,470
870.163635,448
870.280945,474
870.398254,459
870.515564,437
870.632812,464
870.750183,448
870.867432,463
870.984741,459
871.102051,459
871.219299,470
871.336609,475
871.453918,478
871.571106,475
871.688416,474
871.805664,490
871.922852,473
872.040222,475
872.157471,471
872.274719,453
872.391968,457
872.509155,454
872.626465,445
872.743652,473
872.860962,486
872.978149,448
873.095337,489
873.212646,470
873.329834,470
873.44696,456
873.564209,468
873.681396,476
873.798645,477
873.915894,474
874.03302,478
874.150208,460
874.267456,464
874.384583,470
874.501831,475
874.618958,464
874.736145,459
874.853333,453
874.970459,474
875.087646,471
875.204834,475
875.32196,451
875.439148,454
875.556274,451
875.673401,469
875.790527,462
875.907715,460
876.024841,456
876.141968,474
876.259094,466
876.376282,463
876.493347,458
876.610474,470
876.7276,465
876.844727,469
876.961853,465
877.078918,460
877.195984,462
877.313171,471
877.430237,475
877.547302,488
877.664368,455
877.781433,454
877.898499,450
878.015625,492
878.13269,461
878.249695,480
878.366821,470
878.483887,475
878.600952,465
878.717957,464
878.834961,465
878.952087,462
879.069092,461
879.186157,452
879.303162,457
879.420227,451
879.537231,476
879.654236,447
879.77124,458
879.888306,483
880.005249,464
880.122314,462
880.239319,451
880.356323,436
880.473328,473
880.590271,462
880.707275,480
880.824341,464
880.941284,463
881.058228,450
881.175232,488
881.292236,463
881.40918,471
881.526123,465
881.643066,464
881.760071,478
881.877014,458
881.993958,470
882.11084,470
882.227783,467
882.344727,463
882.46167,476
882.578613,466
882.695618,464
882.812439,470
882.929382,462
883.046326,476
883.163208,470
883.280151,450
883.397034,464
883.513916,448
883.630798,455
883.747742,480
883.864563,465
883.981506,479
884.098389,470
884.21521,494
884.332153,472
884.448975,457
884.565796,476
884.682678,479
884.7995,459
884.916443,464
885.033264,478
885.150085,453
885.266968,481
885.383789,468
885.500671,452
885.617493,483
885.734314,470
885.851196,490
885.967896,486
886.084717,466
886.201599,482
886.318359,476
886.435181,474
886.552002,465
886.668762,461
886.785645,457
886.902344,473
887.019165,472
887.135925,478
887.252747,468
887.369446,468
887.486267,489
887.603027,470
887.719788,481
887.836548,475
887.953247,464
888.070068,477
888.186829,474
888.303528,475
888.420288,454
888.536987,475
888.653687,483
888.770447,474
888.887146,455
889.003967,473
889.120667,456
889.237305,464
889.354065,502
889.470703,460
889.587463,452
889.704163,469
889.820862,464
889.937561,481
890.054199,468
890.170837,476
890.287598,461
890.404236,463
890.520874,490
890.637634,487
890.754211,479
890.87085,474
890.987549,463
891.104187,452
891.220886,472
891.337463,451
891.454102,460
891.57074,460
891.687378,491
891.804077,468
891.920654,466
892.037231,446
892.15387,471
892.270447,472
892.387085,474
892.503723,482
892.6203,479
892.736877,482
892.853516,480
892.970032,465
893.08667,480
893.203186,488
893.319763,491
893.43634,470
893.552917,464
893.669556,481
893.786011,480
893.902588,481
894.019165,487
894.135681,469
894.252197,475
894.368835,464
894.485291,469
894.601868,481
894.718384,501
894.8349,474
894.951355,482
895.067932,464
895.184448,485
895.300964,466
895.417419,487
895.533936,482
895.650452,483
895.766907,497
895.883423,474
895.999878,470
896.116333,466
896.232849,473
896.349304,482
896.465759,495
896.582214,463
896.698669,477
896.815125,484
896.931641,482
897.048035,470
897.164551,469
897.280884,502
897.397339,486
897.513794,464
897.630249,463
897.746582,479
897.863098,465
897.979431,462
898.095886,472
898.212341,481
898.328674,490
898.445129,466
898.561462,480
898.677795,467
898.794312,477
898.910645,504
899.026978,487
899.143433,474
899.259766,487
899.37616,493
899.492493,479
899.608765,498
899.725159,477
899.841553,483
899.957947,469
900.07428,473
900.190552,474
900.306946,483
900.423157,487
900.53949,484
900.655884,465
900.772156,479
900.888489,483
901.004822,499
901.121033,488
901.237366,486
901.353699,475
901.46991,467
901.586304,488
901.702515,476
901.818787,486
901.93512,481
902.051331,482
902.167603,499
902.283875,468
902.400085,477
902.516418,497
902.632629,493
902.74884,478
902.865112,484
902.981384,488
903.097595,485
903.213867,488
903.330017,492
903.446289,488
903.5625,489
903.67865,503
903.794922,475
903.911072,496
904.027344,492
904.143494,463
904.259705,479
904.375916,479
904.492065,478
904.608215,496
904.724426,513
904.840576,488
904.956726,494
905.072876,489
905.189087,478
905.305176,458
905.421387,502
905.537537,475
905.653687,473
905.769775,475
905.885925,476
906.002014,496
906.118164,466
906.234314,470
906.350403,507
906.466492,468
906.582642,476
906.69873,497
906.814758,492
906.930908,501
907.046936,487
907.163086,490
907.279175,473
907.395264,476
907.511353,474
907.62738,479
907.743408,483
907.859497,487
907.975525,494
908.091553,476
908.207703,488
908.32373,478
908.439758,495
908.555786,473
908.671814,480
908.787842,493
908.90387,485
909.019775,472
909.135864,490
909.251892,496
909.367859,492
909.483826,505
909.599854,461
909.715881,500
909.831848,468
909.947815,483
910.063782,480
910.179749,470
910.295776,490
910.411743,487
910.527649,482
910.643616,473
910.759583,501
910.875488,496
910.991455,478
911.107361,497
911.223267,485
911.339294,487
911.4552,500
911.571106,473
911.687073,494
911.802979,474
911.918823,494
912.034729,480
912.150635,486
912.266602,488
912.382446,489
912.498352,488
912.614197,481
912.730103,472
912.846008,466
792.44574,629
792.56488,656
792.68396,672
792.80304,665
792.92218,599
793.041199,587
793.160339,597
793.279419,579
793.398499,609
793.517578,596
793.636658,604
793.755737,597
793.874817,608
793.993896,610
794.112976,583
794.232056,591
794.351074,606
794.470215,615
794.589233,585
794.708313,571
794.827393,583
794.946411,592
795.065552,579
795.18457,597
795.303589,602
795.422668,602
795.541687,577
795.660767,585
795.779846,582
795.898865,586
796.017883,575
796.136963,566
796.255981,593
796.375061,586
796.49408,582
796.613037,578
796.732117,564
796.851135,591
796.970154,580
797.089233,551
797.208191,584
797.327271,588
797.446228,565
797.565186,579
797.684265,577
797.803223,585
797.922241,582
798.04126,578
798.160278,562
798.279297,605
798.398315,567
798.517273,583
798.636292,553
798.75531,569
798.874268,589
798.993286,578
799.112244,595
799.231323,578
799.350281,576
799.469238,570
799.588257,572
799.707153,576
799.826111,564
799.945129,584
800.064087,591
800.183044,568
800.302063,570
800.421021,589
800.539978,577
800.658936,573
800.777893,558
800.896912,570
801.015747,583
801.134705,578
801.253723,555
801.37262,601
801.491638,568
801.610535,554
801.729492,569
801.84845,560
801.967407,570
802.086243,574
802.205261,569
802.324158,583
802.443115,561
802.562073,593
802.680969,586
802.799927,577
802.918762,561
803.037659,583
803.156677,602
803.275574,598
803.39447,574
803.513428,588
803.632263,570
803.751221,569
803.870117,605
803.989014,584
804.107971,591
804.226746,587
804.345642,601
804.4646,602
804.583496,598
804.702393,603
804.821228,598
804.940125,584
805.059021,598
805.177917,604
805.296814,595
805.415649,599
805.534546,600
805.653442,595
805.772278,600
805.891113,590
806.01001,597
806.128906,608
806.247742,598
806.366577,606
806.485413,608
806.604309,611
806.723145,597
806.84198,614
806.960876,612
807.079712,617
807.198486,593
807.317383,602
807.436218,632
807.554993,606
807.673889,602
807.792725,584
807.91156,615
808.030396,619
808.14917,615
808.268005,622
808.386841,619
808.505676,604
808.624451,600
808.743286,630
808.862122,592
808.980896,588
809.099731,619
809.218506,624
809.337341,597
809.456116,614
809.57489,631
809.693726,632
809.8125,612
809.931274,604
810.050049,609
810.168884,616
810.287659,615
810.406372,627
810.525269,619
810.643982,618
810.762756,611
810.881531,628
811.000305,626
811.11908,657
811.237854,617
811.356567,627
811.475403,637
811.594116,636
811.71283,624
811.831604,630
811.950378,592
812.069153,631
812.187927,625
812.30658,628
812.425415,620
812.544128,630
812.662781,615
812.781616,632
812.900269,606
813.019043,628
813.137756,600
813.256531,603
813.375244,623
813.493896,617
813.612671,626
813.731384,620
813.850037,621
813.96875,629
814.087524,644
814.206238,621
814.324951,622
814.443604,606
814.562256,607
814.68103,610
814.799683,615
814.918335,622
815.037109,614
815.155762,650
815.274475,616
815.393188,611
815.511841,613
815.630554,586
815.749146,613
815.867859,588
815.986572,584
816.105164,605
816.223877,605
816.342529,602
816.461182,604
816.579895,595
816.698486,619
816.817139,612
816.935791,622
817.054504,611
817.173096,595
817.291748,601
817.4104,593
817.529053,593
817.647644,594
817.766235,578
817.884949,579
818.00354,563
818.122192,537
818.240845,555
818.359436,552
818.478088,531
818.59668,557
818.715271,513
818.833923,511
818.952515,538
819.071106,534
819.189758,533
819.30835,506
819.426941,510
819.545532,525
819.664124,493
819.782715,533
819.901306,512
820.019897,514
820.138489,513
820.25708,518
820.375671,504
820.494202,510
820.612732,482
820.731384,504
820.849915,494
820.968506,477
821.087097,478
821.205627,496
821.324158,486
821.442749,498
821.561279,484
821.679871,475
821.798401,496
821.916931,468
822.035461,497
822.154053,484
822.272583,471
822.391174,489
822.509583,482
822.628174,479
822.746704,494
822.865234,466
822.983765,493
823.102295,490
823.220825,488
823.339294,471
823.457825,479
823.576355,472
823.694824,470
823.813354,473
823.931885,472
824.050354,483
824.168884,487
824.287354,482
824.405823,494
824.524353,489
824.642822,505
824.761353,464
824.879822,487
824.998291,482
825.116699,491
825.235291,481
825.353699,492
825.472168,496
825.590637,490
825.709106,485
825.827576,471
825.946045,473
826.064453,448
826.182983,472
826.301392,484
826.4198,488
826.53833,486
826.656738,464
826.775208,471
826.893677,477
827.012024,457
827.130493,457
827.248962,451
827.36731,472
827.485779,472
827.604248,459
827.722595,482
827.841064,477
827.959412,467
828.077942,467
828.196289,445
828.314636,469
828.433105,461
828.551514,470
828.669861,477
828.78833,466
828.906677,469
829.025085,456
829.143433,466
829.261841,463
829.38031,452
829.498657,468
829.617004,456
829.735413,481
829.85376,472
829.972107,470
830.090515,438
830.208862,468
830.327209,458
830.445557,456
830.563904,451
830.682312,475
830.800659,454
830.919006,474
831.037354,455
831.155701,463
831.274048,476
831.392395,456
831.51062,462
831.629028,452
831.747314,458
831.865662,447
831.984009,463
832.102356,471
832.220642,464
832.338928,467
832.457275,476
832.575623,461
832.693909,469
832.812134,465
832.930481,457
833.048828,453
833.167114,465
833.2854,464
833.403687,451
833.521973,460
833.640259,460
833.758545,472
833.876831,455
833.995056,466
834.113281,470
834.231628,459
834.349915,484
834.468201,458
834.586426,462
834.704651,462
834.822998,454
834.941162,475
835.059448,484
835.177673,483
835.295959,451
835.414246,461
835.53241,487
835.650635,460
835.768921,455
835.887146,461
836.005371,460
836.123596,462
836.241821,469
836.360046,468
836.478271,477
836.596497,476
836.714722,480
836.832886,464
836.95105,479
837.069336,479
837.1875,475
837.305725,491
837.423889,498
837.542053,488
837.660339,482
837.778503,500
837.896667,481
838.014832,472
838.132996,490
838.25116,467
838.369385,496
838.487488,486
838.605713,473
838.723877,475
838.84198,486
838.960205,474
839.078308,463
839.196472,481
839.314636,486
839.4328,485
839.550964,444
839.669067,474
839.787231,478
839.905396,473
840.023499,468
840.141602,443
840.259766,475
840.377869,475
840.495972,496
840.614136,452
840.732239,456
840.850342,456
840.968445,477
841.086548,442
841.204651,446
841.322754,463
841.440918,466
841.55896,478
841.677002,451
841.795166,469
841.913208,447
842.031311,489
842.149353,443
842.267456,450
842.385498,443
842.503601,461
842.621643,471
842.739746,460
842.857788,466
842.97583,452
843.093933,457
843.211975,459
843.330017,460
843.44812,459
843.566101,449
843.684204,468
843.802246,447
843.920227,451
844.038269,471
844.156311,447
844.274292,473
844.392395,461
844.510376,463
844.628357,456
844.74646,470
844.864441,459
844.982422,460
845.100403,439
845.218384,478
845.336426,446
845.454468,460
845.572449,451
845.69043,447
845.808411,469
845.926453,433
846.044373,451
846.162354,454
846.280396,454
846.398315,453
846.516296,454
846.634216,445
846.752197,443
846.870178,448
846.988098,458
847.106079,438
847.22406,445
847.34198,463
847.4599,447
847.577881,448
847.695801,435
847.813782,454
847.931641,473
848.049561,450
848.167603,443
848.285461,453
848.403381,452
848.521362,465
848.639221,460
848.75708,463
848.875,448
848.99292,451
849.110901,465
849.22876,455
849.34668,430
849.464539,463
849.582458,468
849.700317,461
849.818176,458
849.936096,456
850.053955,435
850.171875,459
850.289673,446
850.407593,446
850.525452,444
850.643311,460
850.761169,465
850.878967,461
850.996887,471
851.114746,463
851.232544,455
851.350403,450
851.468262,463
851.58606,466
851.703979,466
851.821777,463
851.939636,451
852.057434,463
852.175232,433
852.293091,471
852.410889,448
852.528687,468
852.646545,459
852.764343,441
852.88208,450
852.999939,460
853.117676,459
853.235535,455
853.353271,459
853.471069,468
853.588928,452
853.706604,469
853.824402,429
853.9422,463
854.059998,449
854.177734,449
854.295532,439
854.413269,457
854.531006,445
854.648804,464
854.766541,452
854.884277,460
855.002014,480
855.119751,472
855.237549,449
855.355225,460
855.473022,467
855.590698,465
855.708435,461
855.826172,466
855.943848,462
856.061646,469
856.179321,454
856.296997,455
856.414795,464
856.53241,471
856.650085,468
856.767822,442
856.885559,470
857.003174,450
857.120911,445
857.238586,471
857.356201,448
857.473938,465
857.591614,455
857.709351,466
857.826965,469
857.944641,452
858.062317,473
858.179993,471
858.297668,450
858.415283,471
858.532959,451
858.650574,455
858.768188,461
858.885803,460
859.003479,457
859.121094,462
859.23877,456
859.356384,465
859.473999,465
859.591675,469
859.709229,475
859.826843,466
859.944458,464
860.062012,460
860.179626,482
860.297302,468
860.414856,440
860.532471,478
860.650024,450
860.767639,467
860.885193,461
861.002808,472
861.120361,439
861.237976,468
861.35553,460
861.473022,451
861.590698,461
861.708191,462
861.825745,440
861.943298,476
862.060852,470
862.178406,470
862.295959,448
862.413513,469
862.531006,474
862.64856,472
862.766113,439
862.883667,467
863.00116,458
863.118713,460
863.236206,454
863.353699,472
863.471252,453
863.588745,451
863.706177,466
863.82373,472
863.941162,464
864.058716,476
864.176208,473
864.29364,471
864.411194,443
864.528687,481
864.646118,467
864.763611,464
864.881042,462
864.998535,462
865.116028,458
865.233459,464
865.350891,479
865.468384,473
865.585754,465
865.703308,492
865.820679,468
865.938171,472
866.055542,458
866.173035,468
866.290466,466
866.407837,471
866.52533,453
866.6427,460
866.760071,462
866.877563,452
866.994934,467
867.112305,460
867.229736,491
867.347107,455
867.464539,456
867.58197,473
867.699341,464
867.81665,445
867.934082,468
868.051453,447
868.168823,462
868.286194,476
868.403564,450
868.520935,469
868.638306,474
868.755676,469
868.872986,470
868.990295,479
869.107727,474
869.225037,464
869.342346,458
869.459717,476
869.577026,455
869.694336,480
869.811707,461
869.929016,469
870.046326,461
870.163635,451
870.280945,471
870.398254,471
870.515564,481
870.632812,477
870.750183,453
870.867432,478
870.984741,467
871.102051,468
871.219299,472
871.336609,469
871.453918,470
871.571106,452
871.688416,480
871.805664,461
871.922852,444
872.040222,478
872.157471,450
872.274719,458
872.391968,477
872.509155,473
872.626465,456
872.743652,485
872.860962,475
872.978149,474
873.095337,450
873.212646,472
873.329834,461
873.44696,461
873.564209,462
873.681396,458
873.798645,461
873.915894,459
874.03302,482
874.150208,465
874.267456,459
874.384583,443
874.501831,443
874.618958,472
874.736145,458
874.853333,485
874.970459,461
875.087646,456
875.204834,451
875.32196,464
875.439148,467
875.556274,460
875.673401,473
875.790527,467
875.907715,452
876.024841,468
876.141968,480
876.259094,461
876.376282,470
876.493347,454
876.610474,484
876.7276,471
876.844727,459
876.961853,460
877.078918,464
877.195984,484
877.313171,470
877.430237,459
877.547302,448
877.664368,471
877.781433,476
877.898499,470
878.015625,467
878.13269,481
878.249695,447
878.366821,451
878.483887,474
878.600952,463
878.717957,463
878.834961,462
878.952087,478
879.069092,468
879.186157,466
879.303162,469
879.420227,455
879.537231,476
879.654236,448
879.77124,470
879.888306,465
880.005249,454
880.122314,454
880.239319,455
880.356323,436
880.473328,459
880.590271,468
880.707275,457
880.824341,462
880.941284,466
881.058228,457
881.175232,466
881.292236,446
881.40918,462
881.526123,443
881.643066,481
881.760071,465
881.877014,480
881.993958,481
882.11084,465
882.227783,467
882.344727,469
882.46167,442
882.578613,481
882.695618,458
882.812439,493
882.929382,469
883.046326,467
883.163208,471
883.280151,472
883.397034,447
883.513916,467
883.630798,461
883.747742,468
883.864563,471
883.981506,452
884.098389,441
884.21521,479
884.332153,469
884.448975,459
884.565796,480
884.682678,476
884.7995,462
884.916443,474
885.033264,474
885.150085,468
885.266968,474
885.383789,484
885.500671,493
885.617493,487
885.734314,463
885.851196,482
885.967896,466
886.084717,488
886.201599,484
886.318359,461
886.435181,464
886.552002,467
886.668762,493
886.785645,472
886.902344,459
887.019165,482
887.135925,475
887.252747,485
887.369446,467
887.486267,468
887.603027,441
887.719788,458
887.836548,476
887.953247,466
888.070068,480
888.186829,470
888.303528,463
888.420288,481
888.536987,454
888.653687,481
888.770447,465
888.887146,469
889.003967,471
889.120667,453
889.237305,469
889.354065,494
889.470703,481
889.587463,457
889.704163,475
889.820862,484
889.937561,484
890.054199,468
890.170837,476
890.287598,481
890.404236,486
890.520874,461
890.637634,464
890.754211,467
890.87085,463
890.987549,472
891.104187,470
891.220886,494
891.337463,476
891.454102,473
891.57074,477
891.687378,475
891.804077,470
891.920654,483
892.037231,474
892.15387,488
892.270447,450
892.387085,456
892.503723,475
892.6203,481
892.736877,491
892.853516,486
892.970032,469
893.08667,480
893.203186,490
893.319763,488
893.43634,478
893.552917,477
893.669556,484
893.786011,470
893.902588,477
894.019165,484
894.135681,464
894.252197,486
894.368835,460
894.485291,474
894.601868,460
894.718384,497
894.8349,470
894.951355,478
895.067932,466
895.184448,481
895.300964,481
895.417419,491
895.533936,475
895.650452,485
895.766907,468
895.883423,472
895.999878,465
896.116333,467
896.232849,486
896.349304,491
896.465759,478
896.582214,494
896.698669,482
896.815125,482
896.931641,467
897.048035,481
897.164551,495
897.280884,482
897.397339,498
897.513794,484
897.630249,470
897.746582,475
897.863098,475
897.979431,496
898.095886,470
898.212341,472
898.328674,506
898.445129,495
898.561462,485
898.677795,469
898.794312,479
898.910645,475
899.026978,486
899.143433,485
899.259766,499
899.37616,463
899.492493,483
899.608765,481
899.725159,486
899.841553,472
899.957947,503
900.07428,473
900.190552,493
900.306946,492
900.423157,464
900.53949,479
900.655884,470
900.772156,491
900.888489,468
901.004822,493
901.121033,489
901.237366,499
901.353699,482
901.46991,488
901.586304,493
901.702515,485
901.818787,485
901.93512,478
902.051331,482
902.167603,478
902.283875,495
902.400085,495
902.516418,457
902.632629,487
902.74884,502
902.865112,485
902.981384,462
903.097595,491
903.213867,456
903.330017,504
903.446289,478
903.5625,471
903.67865,466
903.794922,489
903.911072,479
904.027344,478
904.143494,468
904.259705,489
904.375916,473
904.492065,477
904.608215,475
904.724426,476
904.840576,475
904.956726,479
905.072876,492
905.189087,494
905.305176,500
905.421387,517
905.537537,468
905.653687,481
905.769775,483
905.885925,494
906.002014,497
906.118164,488
906.234314,473
906.350403,490
906.466492,504
906.582642,478
906.69873,477
906.814758,494
906.930908,490
907.046936,485
907.163086,482
907.279175,478
907.395264,492
907.511353,479
907.62738,474
907.743408,471
907.859497,498
907.975525,490
908.091553,488
908.207703,470
908.32373,486
908.439758,487
908.555786,475
908.671814,490
908.787842,489
908.90387,481
909.019775,487
909.135864,497
909.251892,487
909.367859,474
909.483826,500
909.599854,488
909.715881,491
909.831848,472
909.947815,481
910.063782,485
910.179749,476
910.295776,495
910.411743,489
910.527649,483
910.643616,487
910.759583,511
910.875488,490
910.991455,507
911.107361,455
911.223267,481
911.339294,495
911.4552,493
911.571106,500
911.687073,503
911.802979,491
911.918823,505
912.034729,482
912.150635,493
912.266602,491
912.382446,492
912.498352,466
912.614197,475
912.730103,496
912.846008,488
