792.44574,638
792.56488,689
792.68396,691
792.80304,681
792.92218,635
793.041199,636
793.160339,611
793.279419,631
793.398499,615
793.517578,628
793.636658,588
793.755737,649
793.874817,634
793.993896,623
794.112976,615
794.232056,621
794.351074,612
794.470215,613
794.589233,604
794.708313,595
794.827393,570
794.946411,593
795.065552,606
795.18457,620
795.303589,583
795.422668,599
795.541687,576
795.660767,611
795.779846,612
795.898865,616
796.017883,595
796.136963,580
796.255981,568
796.375061,593
796.49408,575
796.613037,568
796.732117,601
796.851135,591
796.970154,575
797.089233,571
797.208191,585
797.327271,576
797.446228,570
797.565186,575
797.684265,570
797.803223,548
797.922241,563
798.04126,594
798.160278,574
798.279297,588
798.398315,563
798.517273,570
798.636292,576
798.75531,584
798.874268,601
798.993286,587
799.112244,578
799.231323,576
799.350281,584
799.469238,592
799.588257,579
799.707153,571
799.826111,575
799.945129,572
800.064087,562
800.183044,578
800.302063,560
800.421021,592
800.539978,571
800.658936,558
800.777893,578
800.896912,575
801.015747,590
801.134705,575
801.253723,572
801.37262,562
801.491638,576
801.610535,562
801.729492,581
801.84845,588
801.967407,586
802.086243,588
802.205261,576
802.324158,573
802.443115,568
802.562073,561
802.680969,577
802.799927,595
802.918762,577
803.037659,555
803.156677,601
803.275574,590
803.39447,565
803.513428,592
803.632263,565
803.751221,591
803.870117,580
803.989014,589
804.107971,598
804.226746,609
804.345642,582
804.4646,600
804.583496,597
804.702393,608
804.821228,578
804.940125,592
805.059021,611
805.177917,578
805.296814,565
805.415649,587
805.534546,587
805.653442,611
805.772278,589
805.891113,590
806.01001,573
806.128906,604
806.247742,605
806.366577,591
806.485413,591
806.604309,618
806.723145,579
806.84198,576
806.960876,592
807.079712,592
807.198486,596
807.317383,607
807.436218,588
807.554993,611
807.673889,598
807.792725,592
807.91156,589
808.030396,614
808.14917,589
808.268005,609
808.386841,621
808.505676,600
808.624451,596
808.743286,595
808.862122,601
808.980896,605
809.099731,605
809.218506,599
809.337341,621
809.456116,618
809.57489,607
809.693726,609
809.8125,615
809.931274,595
810.050049,617
810.168884,610
810.287659,594
810.406372,608
810.525269,615
810.643982,618
810.762756,621
810.881531,624
811.000305,622
811.11908,585
811.237854,601
811.356567,606
811.475403,610
811.594116,608
811.71283,593
811.831604,621
811.950378,614
812.069153,611
812.187927,624
812.30658,617
812.425415,614
812.544128,604
812.662781,632
812.781616,613
812.900269,632
813.019043,611
813.137756,598
813.256531,603
813.375244,616
813.493896,603
813.612671,596
813.731384,604
813.850037,599
813.96875,599
814.087524,602
814.206238,603
814.324951,602
814.443604,574
814.562256,603
814.68103,597
814.799683,587
814.918335,609
815.037109,613
815.155762,630
815.274475,604
815.393188,614
815.511841,589
815.630554,624
815.749146,581
815.867859,572
815.986572,603
816.105164,582
816.223877,584
816.342529,602
816.461182,602
816.579895,591
816.698486,579
816.817139,587
816.935791,594
817.054504,604
817.173096,597
817.291748,617
817.4104,599
817.529053,575
817.647644,568
817.766235,562
817.884949,548
818.00354,550
818.122192,561
818.240845,542
818.359436,537
818.478088,549
818.59668,529
818.715271,539
818.833923,542
818.952515,533
819.071106,525
819.189758,517
819.30835,508
819.426941,517
819.545532,515
819.664124,496
819.782715,502
819.901306,506
820.019897,501
820.138489,488
820.25708,491
820.375671,491
820.494202,500
820.612732,498
820.731384,487
820.849915,478
820.968506,493
821.087097,472
821.205627,487
821.324158,475
821.442749,473
821.561279,489
821.679871,467
821.798401,477
821.916931,464
822.035461,487
822.154053,479
822.272583,481
822.391174,484
822.509583,493
822.628174,481
822.746704,485
822.865234,476
822.983765,509
823.102295,485
823.220825,472
823.339294,477
823.457825,483
823.576355,491
823.694824,493
823.813354,493
823.931885,469
824.050354,494
824.168884,491
824.287354,483
824.405823,476
824.524353,499
824.642822,495
824.761353,458
824.879822,503
824.998291,486
825.116699,492
825.235291,488
825.353699,467
825.472168,480
825.590637,479
825.709106,486
825.827576,472
825.946045,487
826.064453,458
826.182983,470
826.301392,479
826.4198,451
826.53833,469
826.656738,455
826.775208,461
826.893677,473
827.012024,458
827.130493,460
827.248962,474
827.36731,429
827.485779,451
827.604248,464
827.722595,447
827.841064,480
827.959412,458
828.077942,445
828.196289,483
828.314636,455
828.433105,459
828.551514,456
828.669861,471
828.78833,449
828.906677,454
829.025085,460
829.143433,458
829.261841,464
829.38031,472
829.498657,472
829.617004,454
829.735413,465
829.85376,468
829.972107,475
830.090515,470
830.208862,449
830.327209,471
830.445557,470
830.563904,473
830.682312,471
830.800659,470
830.919006,462
831.037354,467
831.155701,465
831.274048,476
831.392395,446
831.51062,473
831.629028,468
831.747314,457
831.865662,468
831.984009,477
832.102356,460
832.220642,458
832.338928,452
832.457275,481
832.575623,458
832.693909,461
832.812134,453
832.930481,447
833.048828,472
833.167114,456
833.2854,469
833.403687,446
833.521973,475
833.640259,489
833.758545,448
833.876831,472
833.995056,483
834.113281,462
834.231628,478
834.349915,477
834.468201,462
834.586426,468
834.704651,478
834.822998,472
834.941162,463
835.059448,470
835.177673,473
835.295959,487
835.414246,468
835.53241,474
835.650635,479
835.768921,447
835.887146,461
836.005371,483
836.123596,477
836.241821,470
836.360046,468
836.478271,475
836.596497,456
836.714722,478
836.832886,469
836.95105,468
837.069336,484
837.1875,476
837.305725,454
837.423889,480
837.542053,468
837.660339,474
837.778503,477
837.896667,472
838.014832,484
838.132996,462
838.25116,472
838.369385,477
838.487488,476
838.605713,462
838.723877,481
838.84198,475
838.960205,470
839.078308,467
839.196472,493
839.314636,490
839.4328,471
839.550964,468
839.669067,463
839.787231,460
839.905396,461
840.023499,470
840.141602,462
840.259766,451
840.377869,479
840.495972,466
840.614136,474
840.732239,478
840.850342,479
840.968445,480
841.086548,462
841.204651,470
841.322754,470
841.440918,466
841.55896,481
841.677002,477
841.795166,458
841.913208,466
842.031311,471
842.149353,472
842.267456,450
842.385498,466
842.503601,460
842.621643,480
842.739746,461
842.857788,477
842.97583,455
843.093933,469
843.211975,445
843.330017,472
843.44812,445
843.566101,468
843.684204,472
843.802246,469
843.920227,453
844.038269,448
844.156311,465
844.274292,464
844.392395,450
844.510376,460
844.628357,471
844.74646,468
844.864441,464
844.982422,449
845.100403,466
845.218384,454
845.336426,456
845.454468,468
845.572449,447
845.69043,442
845.808411,448
845.926453,451
846.044373,469
846.162354,454
846.280396,462
846.398315,431
846.516296,478
846.634216,453
846.752197,457
846.870178,456
846.988098,464
847.106079,483
847.22406,466
847.34198,465
847.4599,447
847.577881,467
847.695801,480
847.813782,439
847.931641,458
848.049561,460
848.167603,459
848.285461,448
848.403381,447
848.521362,458
848.639221,460
848.75708,475
848.875,463
848.99292,467
849.110901,449
849.22876,469
849.34668,456
849.464539,466
849.582458,460
849.700317,472
849.818176,466
849.936096,470
850.053955,467
850.171875,477
850.289673,458
850.407593,462
850.525452,449
850.643311,468
850.761169,447
850.878967,453
850.996887,468
851.114746,450
851.232544,461
851.350403,439
851.468262,463
851.58606,455
851.703979,448
851.821777,469
851.939636,462
852.057434,450
852.175232,451
852.293091,477
852.410889,476
852.528687,464
852.646545,462
852.764343,475
852.88208,462
852.999939,460
853.117676,462
853.235535,470
853.353271,473
853.471069,463
853.588928,478
853.706604,470
853.824402,472
853.9422,471
854.059998,468
854.177734,467
854.295532,465
854.413269,463
854.531006,471
854.648804,469
854.766541,454
854.884277,457
855.002014,471
855.119751,471
855.237549,454
855.355225,451
855.473022,451
855.590698,462
855.708435,466
855.826172,490
855.943848,458
856.061646,445
856.179321,486
856.296997,456
856.414795,475
856.53241,473
856.650085,485
856.767822,463
856.885559,467
857.003174,477
857.120911,474
857.238586,482
857.356201,460
857.473938,467
857.591614,451
857.709351,465
857.826965,470
857.944641,475
858.062317,472
858.179993,483
858.297668,456
858.415283,467
858.532959,486
858.650574,475
858.768188,478
858.885803,461
859.003479,488
859.121094,471
859.23877,471
859.356384,484
859.473999,472
859.591675,458
859.709229,465
859.826843,457
859.944458,473
860.062012,468
860.179626,461
860.297302,475
860.414856,441
860.532471,457
860.650024,452
860.767639,474
860.885193,462
861.002808,469
861.120361,475
861.237976,460
861.35553,446
861.473022,454
861.590698,438
861.708191,466
861.825745,466
861.943298,477
862.060852,455
862.178406,480
862.295959,437
862.413513,462
862.531006,477
862.64856,451
862.766113,457
862.883667,481
863.00116,463
863.118713,462
863.236206,451
863.353699,455
863.471252,469
863.588745,455
863.706177,457
863.82373,479
863.941162,464
864.058716,452
864.176208,461
864.29364,475
864.411194,458
864.528687,466
864.646118,476
864.763611,460
864.881042,466
864.998535,455
865.116028,454
865.233459,450
865.350891,470
865.468384,484
865.585754,464
865.703308,461
865.820679,471
865.938171,478
866.055542,469
866.173035,472
866.290466,443
866.407837,467
866.52533,467
866.6427,472
866.760071,475
866.877563,474
866.994934,461
867.112305,453
867.229736,473
867.347107,466
867.464539,450
867.58197,471
867.699341,489
867.81665,463
867.934082,456
868.051453,474
868.168823,450
868.286194,497
868.403564,464
868.520935,466
868.638306,473
868.755676,478
868.872986,469
868.990295,472
869.107727,470
869.225037,478
869.342346,468
869.459717,472
869.577026,482
869.694336,470
869.811707,476
869.929016,468
870.046326,458
870.163635,456
870.280945,472
870.398254,468
870.515564,481
870.632812,467
870.750183,475
870.867432,449
870.984741,484
871.102051,469
871.219299,473
871.336609,476
871.453918,473
871.571106,497
871.688416,473
871.805664,463
871.922852,472
872.040222,464
872.157471,470
872.274719,470
872.391968,467
872.509155,462
872.626465,461
872.743652,482
872.860962,467
872.978149,459
873.095337,486
873.212646,467
873.329834,479
873.44696,471
873.564209,466
873.681396,476
873.798645,470
873.915894,463
874.03302,484
874.150208,456
874.267456,472
874.384583,485
874.501831,459
874.618958,474
874.736145,475
874.853333,487
874.970459,467
875.087646,464
875.204834,492
875.32196,464
875.439148,468
875.556274,455
875.673401,463
875.790527,459
875.907715,466
876.024841,475
876.141968,457
876.259094,479
876.376282,452
876.493347,469
876.610474,472
876.7276,465
876.844727,464
876.961853,453
877.078918,450
877.195984,471
877.313171,467
877.430237,469
877.547302,476
877.664368,477
877.781433,448
877.898499,489
878.015625,484
878.13269,471
878.249695,469
878.366821,456
878.483887,482
878.600952,462
878.717957,477
878.834961,468
878.952087,464
879.069092,462
879.186157,458
879.303162,452
879.420227,461
879.537231,465
879.654236,479
879.77124,457
879.888306,468
880.005249,469
880.122314,492
880.239319,476
880.356323,462
880.473328,467
880.590271,484
880.707275,458
880.824341,458
880.941284,475
881.058228,460
881.175232,470
881.292236,475
881.40918,473
881.526123,460
881.643066,467
881.760071,464
881.877014,463
881.993958,468
882.11084,458
882.227783,470
882.344727,475
882.46167,473
882.578613,459
882.695618,468
882.812439,456
882.929382,478
883.046326,478
883.163208,473
883.280151,462
883.397034,469
883.513916,479
883.630798,446
883.747742,474
883.864563,462
883.981506,472
884.098389,478
884.21521,470
884.332153,476
884.448975,458
884.565796,469
884.682678,488
884.7995,476
884.916443,473
885.033264,474
885.150085,495
885.266968,489
885.383789,474
885.500671,475
885.617493,517
885.734314,480
885.851196,477
885.967896,493
886.084717,492
886.201599,482
886.318359,471
886.435181,496
886.552002,470
886.668762,473
886.785645,497
886.902344,487
887.019165,484
887.135925,471
887.252747,479
887.369446,475
887.486267,466
887.603027,481
887.719788,470
887.836548,465
887.953247,485
888.070068,472
888.186829,470
888.303528,475
888.420288,475
888.536987,470
888.653687,477
888.770447,474
888.887146,479
889.003967,481
889.120667,469
889.237305,459
889.354065,477
889.470703,471
889.587463,454
889.704163,475
889.820862,481
889.937561,477
890.054199,462
890.170837,486
890.287598,479
890.404236,476
890.520874,490
890.637634,471
890.754211,467
890.87085,471
890.987549,459
891.104187,466
891.220886,472
891.337463,491
891.454102,478
891.57074,495
891.687378,487
891.804077,470
891.920654,469
892.037231,463
892.15387,486
892.270447,480
892.387085,474
892.503723,475
892.6203,474
892.736877,472
892.853516,476
892.970032,487
893.08667,469
893.203186,471
893.319763,473
893.43634,468
893.552917,465
893.669556,474
893.786011,468
893.902588,470
894.019165,482
894.135681,472
894.252197,478
894.368835,471
894.485291,454
894.601868,482
894.718384,478
894.8349,478
894.951355,486
895.067932,501
895.184448,490
895.300964,465
895.417419,477
895.533936,480
895.650452,465
895.766907,481
895.883423,474
895.999878,486
896.116333,483
896.232849,470
896.349304,478
896.465759,465
896.582214,490
896.698669,462
896.815125,489
896.931641,485
897.048035,470
897.164551,499
897.280884,489
897.397339,477
897.513794,469
897.630249,477
897.746582,482
897.863098,482
897.979431,483
898.095886,464
898.212341,469
898.328674,489
898.445129,464
898.561462,468
898.677795,482
898.794312,460
898.910645,472
899.026978,475
899.143433,475
899.259766,475
899.37616,486
899.492493,477
899.608765,470
899.725159,470
899.841553,488
899.957947,464
900.07428,473
900.190552,482
900.306946,469
900.423157,470
900.53949,466
900.655884,463
900.772156,475
900.888489,476
901.004822,466
901.121033,484
901.237366,484
901.353699,469
901.46991,484
901.586304,486
901.702515,491
901.818787,478
901.93512,476
902.051331,474
902.167603,476
902.283875,496
902.400085,489
902.516418,480
902.632629,496
902.74884,481
902.865112,489
902.981384,496
903.097595,503
903.213867,470
903.330017,509
903.446289,489
903.5625,468
903.67865,485
903.794922,506
903.911072,497
904.027344,492
904.143494,475
904.259705,496
904.375916,479
904.492065,490
904.608215,495
904.724426,486
904.840576,480
904.956726,489
905.072876,466
905.189087,495
905.305176,475
905.421387,529
905.537537,489
905.653687,492
905.769775,498
905.885925,488
906.002014,489
906.118164,479
906.234314,492
906.350403,470
906.466492,475
906.582642,464
906.69873,482
906.814758,488
906.930908,494
907.046936,489
907.163086,494
907.279175,467
907.395264,472
907.511353,481
907.62738,493
907.743408,487
907.859497,489
907.975525,497
908.091553,483
908.207703,494
908.32373,491
908.439758,485
908.555786,476
908.671814,496
908.787842,492
908.90387,475
909.019775,491
909.135864,471
909.251892,493
909.367859,477
909.483826,483
909.599854,479
909.715881,488
909.831848,498
909.947815,482
910.063782,475
910.179749,474
910.295776,482
910.411743,495
910.527649,469
910.643616,454
910.759583,479
910.875488,481
910.991455,476
911.107361,509
911.223267,460
911.339294,486
911.4552,486
911.571106,471
911.687073,477
911.802979,473
911.918823,484
912.034729,462
912.150635,475
912.266602,473
912.382446,465
912.498352,497
912.614197,487
912.730103,479
912.846008,478
792.44574,670
792.56488,675
792.68396,707
792.80304,696
792.92218,619
793.041199,630
793.160339,602
793.279419,639
793.398499,627
793.517578,628
793.636658,615
793.755737,612
793.874817,641
793.993896,632
794.112976,645
794.232056,608
794.351074,596
794.470215,609
794.589233,608
794.708313,615
794.827393,587
794.946411,612
795.065552,614
795.18457,602
795.303589,615
795.422668,577
795.541687,564
795.660767,579
795.779846,590
795.898865,582
796.017883,590
796.136963,589
796.255981,587
796.375061,590
796.49408,595
796.613037,592
796.732117,598
796.851135,571
796.970154,559
797.089233,565
797.208191,560
797.327271,577
797.446228,595
797.565186,576
797.684265,577
797.803223,563
797.922241,582
798.04126,580
798.160278,566
798.279297,592
798.398315,580
798.517273,571
798.636292,568
798.75531,562
798.874268,586
798.993286,554
799.112244,558
799.231323,571
799.350281,573
799.469238,574
799.588257,565
799.707153,562
799.826111,574
799.945129,559
800.064087,593
800.183044,577
800.302063,572
800.421021,577
800.539978,559
800.658936,573
800.777893,572
800.896912,599
801.015747,566
801.134705,568
801.253723,567
801.37262,564
801.491638,563
801.610535,584
801.729492,601
801.84845,594
801.967407,587
802.086243,614
802.205261,579
802.324158,597
802.443115,586
802.562073,595
802.680969,567
802.799927,602
802.918762,586
803.037659,600
803.156677,594
803.275574,594
803.39447,589
803.513428,567
803.632263,600
803.751221,572
803.870117,588
803.989014,591
804.107971,592
804.226746,578
804.345642,584
804.4646,592
804.583496,595
804.702393,587
804.821228,576
804.940125,589
805.059021,592
805.177917,567
805.296814,580
805.415649,600
805.534546,616
805.653442,586
805.772278,639
805.891113,585
806.01001,597
806.128906,574
806.247742,600
806.366577,590
806.485413,586
806.604309,598
806.723145,611
806.84198,593
806.960876,627
807.079712,620
807.198486,591
807.317383,588
807.436218,593
807.554993,594
807.673889,583
807.792725,573
807.91156,633
808.030396,607
808.14917,604
808.268005,610
808.386841,601
808.505676,577
808.624451,572
808.743286,599
808.862122,590
808.980896,618
809.099731,593
809.218506,591
809.337341,606
809.456116,608
809.57489,625
809.693726,592
809.8125,596
809.931274,606
810.050049,613
810.168884,628
810.287659,615
810.406372,598
810.525269,619
810.643982,612
810.762756,615
810.881531,597
811.000305,592
811.11908,609
811.237854,606
811.356567,620
811.475403,605
811.594116,613
811.71283,611
811.831604,616
811.950378,628
812.069153,622
812.187927,589
812.30658,621
812.425415,616
812.544128,612
812.662781,612
812.781616,611
812.900269,605
813.019043,600
813.137756,606
813.256531,607
813.375244,601
813.493896,576
813.612671,626
813.731384,626
813.850037,626
813.96875,613
814.087524,615
814.206238,612
814.324951,604
814.443604,605
814.562256,633
814.68103,621
814.799683,603
814.918335,589
815.037109,605
815.155762,605
815.274475,603
815.393188,611
815.511841,609
815.630554,585
815.749146,602
815.867859,596
815.986572,575
816.105164,602
816.223877,633
816.342529,594
816.461182,595
816.579895,589
816.698486,613
816.817139,591
816.935791,595
817.054504,609
817.173096,578
817.291748,585
817.4104,591
817.529053,591
817.647644,582
817.766235,600
817.884949,598
818.00354,567
818.122192,531
818.240845,540
818.359436,542
818.478088,516
818.59668,553
818.715271,541
818.833923,541
818.952515,539
819.071106,514
819.189758,516
819.30835,504
819.426941,497
819.545532,520
819.664124,507
819.782715,534
819.901306,492
820.019897,520
820.138489,493
820.25708,503
820.375671,499
820.494202,499
820.612732,481
820.731384,513
820.849915,501
820.968506,494
821.087097,491
821.205627,500
821.324158,493
821.442749,516
821.561279,492
821.679871,509
821.798401,475
821.916931,478
822.035461,507
822.154053,481
822.272583,502
822.391174,491
822.509583,491
822.628174,496
822.746704,481
822.865234,504
822.983765,486
823.102295,486
823.220825,479
823.339294,477
823.457825,484
823.576355,474
823.694824,483
823.813354,488
823.931885,492
824.050354,488
824.168884,471
824.287354,519
824.405823,478
824.524353,505
824.642822,488
824.761353,498
824.879822,486
824.998291,487
825.116699,511
825.235291,479
825.353699,499
825.472168,478
825.590637,466
825.709106,512
825.827576,482
825.946045,486
826.064453,478
826.182983,491
826.301392,478
826.4198,475
826.53833,483
826.656738,466
826.775208,472
826.893677,453
827.012024,487
827.130493,480
827.248962,457
827.36731,467
827.485779,467
827.604248,488
827.722595,458
827.841064,475
827.959412,469
828.077942,457
828.196289,445
828.314636,468
828.433105,443
828.551514,462
828.669861,456
828.78833,465
828.906677,467
829.025085,470
829.143433,479
829.261841,472
829.38031,468
829.498657,465
829.617004,477
829.735413,466
829.85376,465
829.972107,453
830.090515,458
830.208862,452
830.327209,471
830.445557,451
830.563904,439
830.682312,469
830.800659,447
830.919006,460
831.037354,459
831.155701,453
831.274048,461
831.392395,456
831.51062,489
831.629028,479
831.747314,465
831.865662,478
831.984009,466
832.102356,475
832.220642,477
832.338928,476
832.457275,469
832.575623,442
832.693909,463
832.812134,489
832.930481,465
833.048828,463
833.167114,436
833.2854,462
833.403687,482
833.521973,468
833.640259,456
833.758545,466
833.876831,470
833.995056,442
834.113281,457
834.231628,476
834.349915,460
834.468201,451
834.586426,452
834.704651,462
834.822998,461
834.941162,482
835.059448,479
835.177673,455
835.295959,472
835.414246,462
835.53241,473
835.650635,474
835.768921,472
835.887146,460
836.005371,473
836.123596,456
836.241821,476
836.360046,464
836.478271,466
836.596497,472
836.714722,477
836.832886,485
836.95105,456
837.069336,482
837.1875,451
837.305725,489
837.423889,475
837.542053,497
837.660339,482
837.778503,494
837.896667,492
838.014832,489
838.132996,475
838.25116,479
838.369385,476
838.487488,453
838.605713,484
838.723877,502
838.84198,489
838.960205,478
839.078308,469
839.196472,478
839.314636,475
839.4328,480
839.550964,481
839.669067,479
839.787231,480
839.905396,477
840.023499,470
840.141602,495
840.259766,494
840.377869,495
840.495972,465
840.614136,484
840.732239,475
840.850342,484
840.968445,464
841.086548,483
841.204651,460
841.322754,489
841.440918,488
841.55896,462
841.677002,447
841.795166,470
841.913208,467
842.031311,463
842.149353,480
842.267456,472
842.385498,457
842.503601,454
842.621643,469
842.739746,465
842.857788,477
842.97583,485
843.093933,467
843.211975,448
843.330017,456
843.44812,477
843.566101,468
843.684204,454
843.802246,470
843.920227,474
844.038269,457
844.156311,461
844.274292,477
844.392395,462
844.510376,472
844.628357,457
844.74646,452
844.864441,472
844.982422,476
845.100403,473
845.218384,478
845.336426,452
845.454468,464
845.572449,469
845.69043,475
845.808411,452
845.926453,463
846.044373,475
846.162354,469
846.280396,475
846.398315,443
846.516296,472
846.634216,455
846.752197,447
846.870178,462
846.988098,461
847.106079,454
847.22406,473
847.34198,451
847.4599,459
847.577881,467
847.695801,447
847.813782,470
847.931641,479
848.049561,461
848.167603,463
848.285461,434
848.403381,476
848.521362,451
848.639221,460
848.75708,464
848.875,444
848.99292,454
849.110901,467
849.22876,473
849.34668,467
849.464539,446
849.582458,454
849.700317,469
849.818176,466
849.936096,456
850.053955,470
850.171875,461
850.289673,458
850.407593,457
850.525452,465
850.643311,453
850.761169,470
850.878967,456
850.996887,453
851.114746,463
851.232544,468
851.350403,465
851.468262,459
851.58606,471
851.703979,461
851.821777,460
851.939636,449
852.057434,463
852.175232,474
852.293091,479
852.410889,453
852.528687,454
852.646545,478
852.764343,471
852.88208,462
852.999939,444
853.117676,470
853.235535,481
853.353271,487
853.471069,459
853.588928,470
853.706604,482
853.824402,478
853.9422,456
854.059998,465
854.177734,452
854.295532,471
854.413269,459
854.531006,452
854.648804,479
854.766541,465
854.884277,463
855.002014,466
855.119751,486
855.237549,464
855.355225,451
855.473022,462
855.590698,468
855.708435,470
855.826172,463
855.943848,476
856.061646,458
856.179321,500
856.296997,474
856.414795,482
856.53241,463
856.650085,494
856.767822,454
856.885559,478
857.003174,458
857.120911,472
857.238586,463
857.356201,473
857.473938,472
857.591614,472
857.709351,473
857.826965,490
857.944641,459
858.062317,475
858.179993,481
858.297668,470
858.415283,471
858.532959,462
858.650574,488
858.768188,459
858.885803,465
859.003479,490
859.121094,453
859.23877,483
859.356384,468
859.473999,484
859.591675,467
859.709229,457
859.826843,463
859.944458,471
860.062012,457
860.179626,467
860.297302,457
860.414856,455
860.532471,465
860.650024,449
860.767639,470
860.885193,479
861.002808,465
861.120361,473
861.237976,454
861.35553,459
861.473022,479
861.590698,463
861.708191,480
861.825745,479
861.943298,455
862.060852,456
862.178406,457
862.295959,478
862.413513,449
862.531006,475
862.64856,462
862.766113,461
862.883667,442
863.00116,460
863.118713,473
863.236206,468
863.353699,460
863.471252,453
863.588745,465
863.706177,461
863.82373,486
863.941162,460
864.058716,458
864.176208,484
864.29364,476
864.411194,467
864.528687,463
864.646118,489
864.763611,456
864.881042,479
864.998535,473
865.116028,470
865.233459,474
865.350891,464
865.468384,474
865.585754,474
865.703308,469
865.820679,467
865.938171,464
866.055542,486
866.173035,474
866.290466,468
866.407837,470
866.52533,470
866.6427,478
866.760071,478
866.877563,459
866.994934,467
867.112305,461
867.229736,476
867.347107,474
867.464539,462
867.58197,469
867.699341,465
867.81665,467
867.934082,480
868.051453,445
868.168823,468
868.286194,479
868.403564,479
868.520935,477
868.638306,467
868.755676,451
868.872986,474
868.990295,467
869.107727,459
869.225037,454
869.342346,469
869.459717,462
869.577026,481
869.694336,473
869.811707,487
869.929016,467
870.046326,476
870.163635,470
870.280945,472
870.398254,469
870.515564,474
870.632812,461
870.750183,470
870.867432,493
870.984741,481
871.102051,466
871.219299,453
871.336609,466
871.453918,496
871.571106,482
871.688416,456
871.805664,469
871.922852,476
872.040222,477
872.157471,478
872.274719,456
872.391968,464
872.509155,483
872.626465,475
872.743652,466
872.860962,477
872.978149,468
873.095337,475
873.212646,456
873.329834,479
873.44696,469
873.564209,466
873.681396,463
873.798645,476
873.915894,460
874.03302,476
874.150208,475
874.267456,464
874.384583,467
874.501831,476
874.618958,456
874.736145,471
874.853333,465
874.970459,472
875.087646,470
875.204834,474
875.32196,463
875.439148,467
875.556274,456
875.673401,477
875.790527,465
875.907715,478
876.024841,471
876.141968,477
876.259094,470
876.376282,464
876.493347,483
876.610474,482
876.7276,486
876.844727,483
876.961853,482
877.078918,468
877.195984,475
877.313171,495
877.430237,462
877.547302,471
877.664368,467
877.781433,469
877.898499,453
878.015625,487
878.13269,467
878.249695,454
878.366821,467
878.483887,468
878.600952,484
878.717957,463
878.834961,451
878.952087,485
879.069092,463
879.186157,479
879.303162,474
879.420227,468
879.537231,457
879.654236,470
879.77124,457
879.888306,472
880.005249,462
880.122314,456
880.239319,464
880.356323,461
880.473328,478
880.590271,468
880.707275,460
880.824341,479
880.941284,483
881.058228,500
881.175232,480
881.292236,457
881.40918,462
881.526123,460
881.643066,464
881.760071,490
881.877014,470
881.993958,476
882.11084,462
882.227783,457
882.344727,464
882.46167,456
882.578613,472
882.695618,460
882.812439,471
882.929382,482
883.046326,474
883.163208,469
883.280151,476
883.397034,473
883.513916,460
883.630798,478
883.747742,469
883.864563,475
883.981506,472
884.098389,474
884.21521,489
884.332153,477
884.448975,461
884.565796,468
884.682678,494
884.7995,486
884.916443,472
885.033264,483
885.150085,473
885.266968,484
885.383789,485
885.500671,481
885.617493,494
885.734314,484
885.851196,485
885.967896,475
886.084717,488
886.201599,489
886.318359,472
886.435181,466
886.552002,474
886.668762,480
886.785645,501
886.902344,487
887.019165,468
887.135925,491
887.252747,484
887.369446,473
887.486267,500
887.603027,467
887.719788,487
887.836548,474
887.953247,488
888.070068,483
888.186829,462
888.303528,467
888.420288,467
888.536987,469
888.653687,467
888.770447,465
888.887146,489
889.003967,486
889.120667,483
889.237305,458
889.354065,483
889.470703,489
889.587463,463
889.704163,465
889.820862,472
889.937561,479
890.054199,475
890.170837,489
890.287598,478
890.404236,477
890.520874,478
890.637634,473
890.754211,463
890.87085,478
890.987549,474
891.104187,474
891.220886,467
891.337463,475
891.454102,476
891.57074,480
891.687378,503
891.804077,461
891.920654,433
892.037231,474
892.15387,462
892.270447,499
892.387085,472
892.503723,489
892.6203,479
892.736877,479
892.853516,468
892.970032,467
893.08667,491
893.203186,468
893.319763,467
893.43634,466
893.552917,473
893.669556,477
893.786011,469
893.902588,474
894.019165,467
894.135681,476
894.252197,441
894.368835,491
894.485291,466
894.601868,499
894.718384,465
894.8349,491
894.951355,461
895.067932,503
895.184448,450
895.300964,479
895.417419,469
895.533936,473
895.650452,473
895.766907,493
895.883423,470
895.999878,484
896.116333,476
896.232849,490
896.349304,476
896.465759,476
896.582214,464
896.698669,485
896.815125,468
896.931641,475
897.048035,468
897.164551,475
897.280884,480
897.397339,462
897.513794,478
897.630249,469
897.746582,479
897.863098,500
897.979431,448
898.095886,472
898.212341,470
898.328674,490
898.445129,483
898.561462,483
898.677795,475
898.794312,483
898.910645,474
899.026978,476
899.143433,489
899.259766,482
899.37616,491
899.492493,475
899.608765,460
899.725159,481
899.841553,458
899.957947,488
900.07428,475
900.190552,474
900.306946,477
900.423157,500
900.53949,495
900.655884,484
900.772156,488
900.888489,491
901.004822,483
901.121033,490
901.237366,466
901.353699,471
901.46991,473
901.586304,481
901.702515,498
901.818787,489
901.93512,492
902.051331,502
902.167603,485
902.283875,499
902.400085,468
902.516418,487
902.632629,516
902.74884,481
902.865112,478
902.981384,470
903.097595,502
903.213867,504
903.330017,500
903.446289,481
903.5625,478
903.67865,501
903.794922,508
903.911072,485
904.027344,483
904.143494,474
904.259705,474
904.375916,496
904.492065,475
904.608215,492
904.724426,483
904.840576,485
904.956726,496
905.072876,493
905.189087,510
905.305176,489
905.421387,471
905.537537,480
905.653687,486
905.769775,479
905.885925,497
906.002014,485
906.118164,489
906.234314,491
906.350403,479
906.466492,477
906.582642,478
906.69873,477
906.814758,469
906.930908,479
907.046936,497
907.163086,488
907.279175,489
907.395264,493
907.511353,487
907.62738,490
907.743408,472
907.859497,486
907.975525,485
908.091553,470
908.207703,481
908.32373,493
908.439758,486
908.555786,477
908.671814,491
908.787842,504
908.90387,494
909.019775,499
909.135864,494
909.251892,484
909.367859,470
909.483826,484
909.599854,492
909.715881,494
909.831848,476
909.947815,504
910.063782,486
910.179749,476
910.295776,492
910.411743,491
910.527649,493
910.643616,501
910.759583,487
910.875488,485
910.991455,491
911.107361,495
911.223267,483
911.339294,496
911.4552,494
911.571106,484
911.687073,484
911.802979,489
911.918823,496
912.034729,498
912.150635,491
912.266602,479
912.382446,483
912.498352,481
912.614197,486
912.730103,505
912.846008,482
792.44574,643
792.56488,679
792.68396,726
792.80304,688
792.92218,638
793.041199,630
793.160339,609
793.279419,651
793.398499,654
793.517578,631
793.636658,605
793.755737,642
793.874817,637
793.993896,635
794.112976,640
794.232056,607
794.351074,636
794.470215,588
794.589233,626
794.708313,599
794.827393,597
794.946411,598
795.065552,600
795.18457,624
795.303589,609
795.422668,610
795.541687,599
795.660767,594
795.779846,601
795.898865,593
796.017883,590
796.136963,574
796.255981,571
796.375061,613
796.49408,593
796.613037,584
796.732117,599
796.851135,607
796.970154,586
797.089233,571
797.208191,563
797.327271,573
797.446228,580
797.565186,577
797.684265,575
797.803223,628
797.922241,581
798.04126,578
798.160278,582
798.279297,580
798.398315,556
798.517273,595
798.636292,586
798.75531,561
798.874268,578
798.993286,571
799.112244,577
799.231323,563
799.350281,558
799.469238,583
799.588257,587
799.707153,588
799.826111,564
799.945129,578
800.064087,603
800.183044,577
800.302063,566
800.421021,575
800.539978,567
800.658936,586
800.777893,571
800.896912,570
801.015747,582
801.134705,575
801.253723,577
801.37262,579
801.491638,583
801.610535,570
801.729492,589
801.84845,597
801.967407,572
802.086243,577
802.205261,559
802.324158,613
802.443115,608
802.562073,576
802.680969,576
802.799927,615
802.918762,554
803.037659,594
803.156677,596
803.275574,572
803.39447,591
803.513428,605
803.632263,582
803.751221,588
803.870117,591
803.989014,570
804.107971,586
804.226746,588
804.345642,592
804.4646,591
804.583496,565
804.702393,608
804.821228,602
804.940125,591
805.059021,587
805.177917,599
805.296814,589
805.415649,604
805.534546,602
805.653442,599
805.772278,569
805.891113,607
806.01001,571
806.128906,594
806.247742,610
806.366577,585
806.485413,596
806.604309,597
806.723145,580
806.84198,585
806.960876,567
807.079712,594
807.198486,566
807.317383,593
807.436218,601
807.554993,580
807.673889,581
807.792725,601
807.91156,599
808.030396,592
808.14917,606
808.268005,610
808.386841,606
808.505676,613
808.624451,573
808.743286,618
808.862122,618
808.980896,586
809.099731,600
809.218506,585
809.337341,596
809.456116,594
809.57489,610
809.693726,625
809.8125,624
809.931274,628
810.050049,601
810.168884,609
810.287659,624
810.406372,612
810.525269,616
810.643982,592
810.762756,619
810.881531,626
811.000305,626
811.11908,619
811.237854,609
811.356567,606
811.475403,615
811.594116,594
811.71283,604
811.831604,596
811.950378,627
812.069153,666
812.187927,636
812.30658,601
812.425415,623
812.544128,602
812.662781,614
812.781616,589
812.900269,628
813.019043,601
813.137756,627
813.256531,593
813.375244,587
813.493896,611
813.612671,617
813.731384,655
813.850037,631
813.96875,611
814.087524,595
814.206238,619
814.324951,614
814.443604,609
814.562256,584
814.68103,616
814.799683,610
814.918335,606
815.037109,603
815.155762,626
815.274475,592
815.393188,596
815.511841,611
815.630554,594
815.749146,597
815.867859,599
815.986572,591
816.105164,594
816.223877,597
816.342529,599
816.461182,574
816.579895,592
816.698486,600
816.817139,603
816.935791,611
817.054504,612
817.173096,621
817.291748,580
817.4104,604
817.529053,577
817.647644,591
817.766235,562
817.884949,565
818.00354,559
818.122192,555
818.240845,558
818.359436,541
818.478088,540
818.59668,537
818.715271,541
818.833923,534
818.952515,526
819.071106,516
819.189758,521
819.30835,508
819.426941,510
819.545532,491
819.664124,516
819.782715,521
819.901306,514
820.019897,519
820.138489,508
820.25708,491
820.375671,513
820.494202,476
820.612732,487
820.731384,501
820.849915,489
820.968506,508
821.087097,502
821.205627,481
821.324158,496
821.442749,488
821.561279,483
821.679871,491
821.798401,495
821.916931,481
822.035461,488
822.154053,484
822.272583,483
822.391174,482
822.509583,495
822.628174,475
822.746704,487
822.865234,500
822.983765,448
823.102295,473
823.220825,478
823.339294,501
823.457825,482
823.576355,468
823.694824,492
823.813354,473
823.931885,495
824.050354,482
824.168884,480
824.287354,503
824.405823,498
824.524353,504
824.642822,492
824.761353,483
824.879822,485
824.998291,495
825.116699,491
825.235291,521
825.353699,470
825.472168,466
825.590637,484
825.709106,474
825.827576,477
825.946045,480
826.064453,451
826.182983,478
826.301392,461
826.4198,479
826.53833,467
826.656738,466
826.775208,465
826.893677,493
827.012024,456
827.130493,469
827.248962,463
827.36731,480
827.485779,449
827.604248,472
827.722595,466
827.841064,465
827.959412,456
828.077942,468
828.196289,471
828.314636,472
828.433105,484
828.551514,493
828.669861,450
828.78833,479
828.906677,465
829.025085,473
829.143433,464
829.261841,470
829.38031,463
829.498657,445
829.617004,457
829.735413,472
829.85376,480
829.972107,472
830.090515,456
830.208862,455
830.327209,467
830.445557,450
830.563904,472
830.682312,483
830.800659,448
830.919006,473
831.037354,477
831.155701,448
831.274048,456
831.392395,464
831.51062,485
831.629028,468
831.747314,460
831.865662,471
831.984009,480
832.102356,473
832.220642,466
832.338928,470
832.457275,479
832.575623,458
832.693909,481
832.812134,469
832.930481,472
833.048828,458
833.167114,451
833.2854,464
833.403687,470
833.521973,476
833.640259,463
833.758545,474
833.876831,473
833.995056,457
834.113281,463
834.231628,480
834.349915,468
834.468201,458
834.586426,483
834.704651,471
834.822998,465
834.941162,462
835.059448,462
835.177673,483
835.295959,481
835.414246,450
835.53241,467
835.650635,485
835.768921,454
835.887146,453
836.005371,461
836.123596,464
836.241821,495
836.360046,471
836.478271,473
836.596497,485
836.714722,486
836.832886,469
836.95105,470
837.069336,474
837.1875,473
837.305725,477
837.423889,484
837.542053,467
837.660339,490
837.778503,479
837.896667,461
838.014832,477
838.132996,487
838.25116,460
838.369385,486
838.487488,475
838.605713,488
838.723877,461
838.84198,480
838.960205,496
839.078308,499
839.196472,475
839.314636,499
839.4328,487
839.550964,476
839.669067,455
839.787231,476
839.905396,466
840.023499,446
840.141602,473
840.259766,460
840.377869,465
840.495972,502
840.614136,460
840.732239,472
840.850342,470
840.968445,435
841.086548,494
841.204651,475
841.322754,460
841.440918,468
841.55896,459
841.677002,490
841.795166,453
841.913208,464
842.031311,469
842.149353,466
842.267456,459
842.385498,466
842.503601,466
842.621643,466
842.739746,470
842.857788,478
842.97583,458
843.093933,466
843.211975,486
843.330017,475
843.44812,462
843.566101,458
843.684204,469
843.802246,458
843.920227,464
844.038269,473
844.156311,473
844.274292,459
844.392395,472
844.510376,463
844.628357,461
844.74646,456
844.864441,448
844.982422,460
845.100403,462
845.218384,466
845.336426,466
845.454468,474
845.572449,456
845.69043,464
845.808411,458
845.926453,472
846.044373,471
846.162354,460
846.280396,471
846.398315,446
846.516296,475
846.634216,454
846.752197,458
846.870178,460
846.988098,470
847.106079,445
847.22406,461
847.34198,467
847.4599,462
847.577881,466
847.695801,447
847.813782,468
847.931641,467
848.049561,475
848.167603,466
848.285461,473
848.403381,460
848.521362,481
848.639221,460
848.75708,468
848.875,458
848.99292,465
849.110901,456
849.22876,485
849.34668,461
849.464539,462
849.582458,474
849.700317,460
849.818176,468
849.936096,459
850.053955,473
850.171875,487
850.289673,466
850.407593,453
850.525452,485
850.643311,459
850.761169,457
850.878967,459
850.996887,447
851.114746,473
851.232544,461
851.350403,465
851.468262,457
851.58606,469
851.703979,448
851.821777,460
851.939636,443
852.057434,455
852.175232,463
852.293091,460
852.410889,453
852.528687,453
852.646545,455
852.764343,465
852.88208,463
852.999939,455
853.117676,472
853.235535,462
853.353271,458
853.471069,438
853.588928,460
853.706604,460
853.824402,459
853.9422,472
854.059998,469
854.177734,463
854.295532,473
854.413269,454
854.531006,480
854.648804,463
854.766541,451
854.884277,469
855.002014,458
855.119751,461
855.237549,434
855.355225,467
855.473022,433
855.590698,469
855.708435,469
855.826172,455
855.943848,472
856.061646,460
856.179321,470
856.296997,448
856.414795,458
856.53241,473
856.650085,473
856.767822,472
856.885559,473
857.003174,469
857.120911,443
857.238586,467
857.356201,475
857.473938,471
857.591614,475
857.709351,468
857.826965,466
857.944641,483
858.062317,473
858.179993,468
858.297668,463
858.415283,476
858.532959,456
858.650574,465
858.768188,455
858.885803,460
859.003479,461
859.121094,469
859.23877,470
859.356384,470
859.473999,453
859.591675,449
859.709229,490
859.826843,480
859.944458,458
860.062012,472
860.179626,467
860.297302,467
860.414856,463
860.532471,465
860.650024,462
860.767639,465
860.885193,459
861.002808,492
861.120361,457
861.237976,471
861.35553,471
861.473022,464
861.590698,447
861.708191,467
861.825745,457
861.943298,467
862.060852,452
862.178406,444
862.295959,451
862.413513,479
862.531006,465
862.64856,466
862.766113,454
862.883667,467
863.00116,456
863.118713,463
863.236206,468
863.353699,460
863.471252,456
863.588745,468
863.706177,460
863.82373,468
863.941162,473
864.058716,457
864.176208,489
864.29364,473
864.411194,464
864.528687,465
864.646118,473
864.763611,475
864.881042,473
864.998535,456
865.116028,460
865.233459,454
865.350891,461
865.468384,466
865.585754,467
865.703308,479
865.820679,456
865.938171,470
866.055542,473
866.173035,449
866.290466,471
866.407837,465
866.52533,476
866.6427,485
866.760071,471
866.877563,457
866.994934,464
867.112305,467
867.229736,452
867.347107,479
867.464539,471
867.58197,490
867.699341,454
867.81665,474
867.934082,469
868.051453,489
868.168823,460
868.286194,475
868.403564,467
868.520935,474
868.638306,452
868.755676,474
868.872986,452
868.990295,478
869.107727,486
869.225037,458
869.342346,464
869.459717,466
869.577026,454
869.694336,477
869.811707,492
869.929016,480
870.046326,469
870.163635,484
870.280945,488
870.398254,466
870.515564,469
870.632812,475
870.750183,484
870.867432,464
870.984741,482
871.102051,471
871.219299,477
871.336609,479
871.453918,468
871.571106,487
871.688416,481
871.805664,478
871.922852,470
872.040222,488
872.157471,482
872.274719,479
872.391968,465
872.509155,498
872.626465,477
872.743652,489
872.860962,460
872.978149,475
873.095337,469
873.212646,476
873.329834,481
873.44696,468
873.564209,455
873.681396,472
873.798645,463
873.915894,463
874.03302,447
874.150208,483
874.267456,478
874.384583,467
874.501831,475
874.618958,476
874.736145,472
874.853333,479
874.970459,449
875.087646,479
875.204834,469
875.32196,485
875.439148,458
875.556274,471
875.673401,473
875.790527,463
875.907715,463
876.024841,496
876.141968,480
876.259094,473
876.376282,464
876.493347,463
876.610474,471
876.7276,447
876.844727,467
876.961853,476
877.078918,458
877.195984,462
877.313171,468
877.430237,482
877.547302,466
877.664368,463
877.781433,468
877.898499,473
878.015625,471
878.13269,474
878.249695,465
878.366821,476
878.483887,468
878.600952,487
878.717957,471
878.834961,471
878.952087,459
879.069092,485
879.186157,484
879.303162,464
879.420227,470
879.537231,466
879.654236,451
879.77124,465
879.888306,464
880.005249,487
880.122314,456
880.239319,465
880.356323,488
880.473328,474
880.590271,465
880.707275,469
880.824341,463
880.941284,473
881.058228,468
881.175232,455
881.292236,456
881.40918,477
881.526123,482
881.643066,467
881.760071,479
881.877014,476
881.993958,469
882.11084,489
882.227783,450
882.344727,466
882.46167,454
882.578613,458
882.695618,485
882.812439,466
882.929382,497
883.046326,464
883.163208,457
883.280151,463
883.397034,482
883.513916,490
883.630798,459
883.747742,467
883.864563,456
883.981506,478
884.098389,468
884.21521,494
884.332153,495
884.448975,483
884.565796,471
884.682678,478
884.7995,500
884.916443,476
885.033264,469
885.150085,505
885.266968,496
885.383789,488
885.500671,473
885.617493,484
885.734314,483
885.851196,471
885.967896,490
886.084717,487
886.201599,498
886.318359,481
886.435181,483
886.552002,479
886.668762,482
886.785645,473
886.902344,489
887.019165,491
887.135925,478
887.252747,490
887.369446,479
887.486267,481
887.603027,460
887.719788,492
887.836548,480
887.953247,476
888.070068,474
888.186829,470
888.303528,479
888.420288,470
888.536987,465
888.653687,472
888.770447,474
888.887146,483
889.003967,458
889.120667,488
889.237305,485
889.354065,480
889.470703,470
889.587463,480
889.704163,482
889.820862,469
889.937561,473
890.054199,458
890.170837,483
890.287598,495
890.404236,484
890.520874,464
890.637634,472
890.754211,465
890.87085,481
890.987549,487
891.104187,483
891.220886,472
891.337463,454
891.454102,476
891.57074,488
891.687378,469
891.804077,481
891.920654,485
892.037231,482
892.15387,476
892.270447,459
892.387085,487
892.503723,475
892.6203,473
892.736877,483
892.853516,461
892.970032,488
893.08667,473
893.203186,460
893.319763,481
893.43634,494
893.552917,495
893.669556,478
893.786011,487
893.902588,484
894.019165,472
894.135681,478
894.252197,487
894.368835,487
894.485291,485
894.601868,465
894.718384,490
894.8349,463
894.951355,478
895.067932,470
895.184448,483
895.300964,506
895.417419,470
895.533936,473
895.650452,477
895.766907,475
895.883423,488
895.999878,478
896.116333,477
896.232849,489
896.349304,470
896.465759,451
896.582214,475
896.698669,487
896.815125,460
896.931641,471
897.048035,485
897.164551,479
897.280884,486
897.397339,461
897.513794,486
897.630249,483
897.746582,488
897.863098,482
897.979431,485
898.095886,469
898.212341,477
898.328674,474
898.445129,473
898.561462,499
898.677795,473
898.794312,472
898.910645,470
899.026978,470
899.143433,471
899.259766,496
899.37616,475
899.492493,483
899.608765,471
899.725159,480
899.841553,472
899.957947,469
900.07428,470
900.190552,478
900.306946,490
900.423157,499
900.53949,492
900.655884,494
900.772156,470
900.888489,507
901.004822,471
901.121033,488
901.237366,495
901.353699,475
901.46991,480
901.586304,468
901.702515,491
901.818787,476
901.93512,493
902.051331,485
902.167603,485
902.283875,510
902.400085,487
902.516418,500
902.632629,512
902.74884,477
902.865112,494
902.981384,494
903.097595,508
903.213867,486
903.330017,488
903.446289,484
903.5625,483
903.67865,502
903.794922,486
903.911072,491
904.027344,495
904.143494,496
904.259705,491
904.375916,505
904.492065,474
904.608215,475
904.724426,482
904.840576,487
904.956726,486
905.072876,488
905.189087,500
905.305176,474
905.421387,510
905.537537,478
905.653687,496
905.769775,506
905.885925,492
906.002014,479
906.118164,471
906.234314,474
906.350403,488
906.466492,476
906.582642,502
906.69873,476
906.814758,494
906.930908,493
907.046936,483
907.163086,475
907.279175,496
907.395264,465
907.511353,482
907.62738,471
907.743408,506
907.859497,469
907.975525,484
908.091553,483
908.207703,487
908.32373,484
908.439758,483
908.555786,479
908.671814,500
908.787842,474
908.90387,488
909.019775,475
909.135864,478
909.251892,485
909.367859,476
909.483826,502
909.599854,487
909.715881,487
909.831848,501
909.947815,478
910.063782,479
910.179749,494
910.295776,492
910.411743,474
910.527649,506
910.643616,502
910.759583,494
910.875488,487
910.991455,483
911.107361,477
911.223267,477
911.339294,491
911.4552,492
911.571106,476
911.687073,502
911.802979,479
911.918823,486
912.034729,466
912.150635,480
912.266602,500
912.382446,490
912.498352,499
912.614197,493
912.730103,481
912.846008,492
