792.44574,600
792.56488,644
792.68396,662
792.80304,634
792.92218,588
793.041199,584
793.160339,570
793.279419,584
793.398499,583
793.517578,580
793.636658,565
793.755737,577
793.874817,587
793.993896,586
794.112976,569
794.232056,560
794.351074,578
794.470215,565
794.589233,529
794.708313,562
794.827393,546
794.946411,546
795.065552,545
795.18457,571
795.303589,555
795.422668,532
795.541687,568
795.660767,565
795.779846,547
795.898865,506
796.017883,538
796.136963,543
796.255981,550
796.375061,529
796.49408,521
796.613037,525
796.732117,540
796.851135,552
796.970154,549
797.089233,518
797.208191,532
797.327271,543
797.446228,520
797.565186,551
797.684265,518
797.803223,554
797.922241,541
798.04126,518
798.160278,530
798.279297,521
798.398315,514
798.517273,520
798.636292,522
798.75531,527
798.874268,507
798.993286,523
799.112244,513
799.231323,499
799.350281,527
799.469238,543
799.588257,501
799.707153,545
799.826111,527
799.945129,526
800.064087,532
800.183044,509
800.302063,520
800.421021,548
800.539978,517
800.658936,543
800.777893,517
800.896912,508
801.015747,519
801.134705,519
801.253723,501
801.37262,527
801.491638,532
801.610535,522
801.729492,518
801.84845,532
801.967407,541
802.086243,534
802.205261,542
802.324158,518
802.443115,522
802.562073,528
802.680969,528
802.799927,528
802.918762,533
803.037659,539
803.156677,508
803.275574,520
803.39447,517
803.513428,514
803.632263,507
803.751221,528
803.870117,517
803.989014,520
804.107971,508
804.226746,528
804.345642,529
804.4646,503
804.583496,533
804.702393,528
804.821228,512
804.940125,529
805.059021,540
805.177917,526
805.296814,516
805.415649,525
805.534546,536
805.653442,526
805.772278,533
805.891113,525
806.01001,521
806.128906,551
806.247742,553
806.366577,499
806.485413,529
806.604309,527
806.723145,545
806.84198,533
806.960876,514
807.079712,521
807.198486,529
807.317383,531
807.436218,524
807.554993,531
807.673889,531
807.792725,550
807.91156,531
808.030396,546
808.14917,535
808.268005,537
808.386841,531
808.505676,533
808.624451,517
808.743286,523
808.862122,520
808.980896,527
809.099731,510
809.218506,550
809.337341,530
809.456116,542
809.57489,547
809.693726,524
809.8125,536
809.931274,554
810.050049,519
810.168884,499
810.287659,553
810.406372,551
810.525269,518
810.643982,555
810.762756,532
810.881531,519
811.000305,531
811.11908,516
811.237854,540
811.356567,539
811.475403,541
811.594116,541
811.71283,550
811.831604,543
811.950378,536
812.069153,541
812.187927,522
812.30658,549
812.425415,544
812.544128,552
812.662781,518
812.781616,537
812.900269,521
813.019043,518
813.137756,524
813.256531,549
813.375244,553
813.493896,548
813.612671,520
813.731384,529
813.850037,538
813.96875,548
814.087524,544
814.206238,526
814.324951,534
814.443604,542
814.562256,540
814.68103,528
814.799683,522
814.918335,542
815.037109,505
815.155762,534
815.274475,526
815.393188,511
815.511841,523
815.630554,531
815.749146,523
815.867859,515
815.986572,511
816.105164,519
816.223877,527
816.342529,531
816.461182,519
816.579895,521
816.698486,506
816.817139,530
816.935791,509
817.054504,521
817.173096,526
817.291748,524
817.4104,523
817.529053,546
817.647644,520
817.766235,513
817.884949,507
818.00354,480
818.122192,506
818.240845,512
818.359436,489
818.478088,506
818.59668,505
818.715271,489
818.833923,503
818.952515,498
819.071106,483
819.189758,497
819.30835,504
819.426941,458
819.545532,478
819.664124,478
819.782715,497
819.901306,479
820.019897,488
820.138489,466
820.25708,482
820.375671,475
820.494202,472
820.612732,473
820.731384,473
820.849915,488
820.968506,464
821.087097,469
821.205627,486
821.324158,465
821.442749,480
821.561279,468
821.679871,464
821.798401,476
821.916931,453
822.035461,477
822.154053,469
822.272583,466
822.391174,454
822.509583,474
822.628174,469
822.746704,462
822.865234,490
822.983765,471
823.102295,479
823.220825,473
823.339294,475
823.457825,473
823.576355,463
823.694824,473
823.813354,458
823.931885,484
824.050354,474
824.168884,463
824.287354,466
824.405823,490
824.524353,459
824.642822,483
824.761353,470
824.879822,472
824.998291,488
825.116699,448
825.235291,461
825.353699,453
825.472168,444
825.590637,479
825.709106,469
825.827576,473
825.946045,447
826.064453,468
826.182983,456
826.301392,445
826.4198,454
826.53833,467
826.656738,455
826.775208,461
826.893677,456
827.012024,486
827.130493,441
827.248962,461
827.36731,462
827.485779,471
827.604248,449
827.722595,439
827.841064,453
827.959412,457
828.077942,468
828.196289,448
828.314636,436
828.433105,480
828.551514,460
828.669861,456
828.78833,461
828.906677,455
829.025085,449
829.143433,459
829.261841,453
829.38031,464
829.498657,459
829.617004,453
829.735413,463
829.85376,434
829.972107,458
830.090515,444
830.208862,449
830.327209,464
830.445557,466
830.563904,459
830.682312,439
830.800659,453
830.919006,451
831.037354,454
831.155701,466
831.274048,460
831.392395,452
831.51062,455
831.629028,462
831.747314,471
831.865662,447
831.984009,467
832.102356,444
832.220642,464
832.338928,457
832.457275,458
832.575623,451
832.693909,454
832.812134,439
832.930481,449
833.048828,460
833.167114,433
833.2854,459
833.403687,455
833.521973,457
833.640259,457
833.758545,461
833.876831,461
833.995056,476
834.113281,453
834.231628,448
834.349915,446
834.468201,455
834.586426,446
834.704651,456
834.822998,459
834.941162,465
835.059448,462
835.177673,466
835.295959,464
835.414246,446
835.53241,446
835.650635,456
835.768921,452
835.887146,452
836.005371,435
836.123596,464
836.241821,452
836.360046,431
836.478271,446
836.596497,463
836.714722,454
836.832886,467
836.95105,465
837.069336,471
837.1875,461
837.305725,449
837.423889,459
837.542053,453
837.660339,464
837.778503,465
837.896667,465
838.014832,460
838.132996,443
838.25116,471
838.369385,474
838.487488,458
838.605713,473
838.723877,470
838.84198,466
838.960205,450
839.078308,471
839.196472,467
839.314636,461
839.4328,457
839.550964,472
839.669067,454
839.787231,472
839.905396,476
840.023499,463
840.141602,469
840.259766,476
840.377869,433
840.495972,464
840.614136,463
840.732239,452
840.850342,451
840.968445,441
841.086548,454
841.204651,465
841.322754,449
841.440918,450
841.55896,468
841.677002,464
841.795166,463
841.913208,457
842.031311,452
842.149353,464
842.267456,464
842.385498,464
842.503601,472
842.621643,454
842.739746,449
842.857788,450
842.97583,454
843.093933,450
843.211975,456
843.330017,458
843.44812,448
843.566101,459
843.684204,428
843.802246,481
843.920227,477
844.038269,472
844.156311,443
844.274292,461
844.392395,468
844.510376,459
844.628357,431
844.74646,477
844.864441,451
844.982422,439
845.100403,436
845.218384,442
845.336426,462
845.454468,465
845.572449,447
845.69043,456
845.808411,459
845.926453,446
846.044373,437
846.162354,443
846.280396,461
846.398315,439
846.516296,464
846.634216,459
846.752197,450
846.870178,450
846.988098,461
847.106079,456
847.22406,425
847.34198,461
847.4599,450
847.577881,456
847.695801,455
847.813782,468
847.931641,457
848.049561,469
848.167603,462
848.285461,461
848.403381,460
848.521362,452
848.639221,446
848.75708,465
848.875,441
848.99292,455
849.110901,445
849.22876,481
849.34668,482
849.464539,454
849.582458,469
849.700317,445
849.818176,470
849.936096,451
850.053955,483
850.171875,461
850.289673,460
850.407593,467
850.525452,448
850.643311,463
850.761169,462
850.878967,461
850.996887,472
851.114746,456
851.232544,481
851.350403,472
851.468262,440
851.58606,458
851.703979,451
851.821777,465
851.939636,444
852.057434,480
852.175232,456
852.293091,455
852.410889,467
852.528687,477
852.646545,456
852.764343,449
852.88208,462
852.999939,447
853.117676,448
853.235535,458
853.353271,443
853.471069,441
853.588928,461
853.706604,483
853.824402,453
853.9422,453
854.059998,450
854.177734,448
854.295532,469
854.413269,466
854.531006,442
854.648804,440
854.766541,475
854.884277,445
855.002014,469
855.119751,467
855.237549,473
855.355225,457
855.473022,445
855.590698,461
855.708435,465
855.826172,444
855.943848,447
856.061646,460
856.179321,447
856.296997,465
856.414795,460
856.53241,460
856.650085,470
856.767822,456
856.885559,457
857.003174,459
857.120911,459
857.238586,464
857.356201,455
857.473938,454
857.591614,448
857.709351,454
857.826965,451
857.944641,475
858.062317,449
858.179993,450
858.297668,474
858.415283,461
858.532959,469
858.650574,471
858.768188,461
858.885803,461
859.003479,441
859.121094,467
859.23877,453
859.356384,435
859.473999,465
859.591675,445
859.709229,447
859.826843,453
859.944458,460
860.062012,466
860.179626,461
860.297302,440
860.414856,465
860.532471,456
860.650024,455
860.767639,453
860.885193,453
861.002808,461
861.120361,442
861.237976,467
861.35553,456
861.473022,457
861.590698,459
861.708191,453
861.825745,457
861.943298,461
862.060852,462
862.178406,462
862.295959,454
862.413513,439
862.531006,465
862.64856,459
862.766113,460
862.883667,457
863.00116,442
863.118713,462
863.236206,476
863.353699,459
863.471252,432
863.588745,466
863.706177,457
863.82373,468
863.941162,456
864.058716,448
864.176208,472
864.29364,456
864.411194,459
864.528687,463
864.646118,464
864.763611,446
864.881042,474
864.998535,451
865.116028,466
865.233459,472
865.350891,441
865.468384,453
865.585754,442
865.703308,463
865.820679,478
865.938171,454
866.055542,461
866.173035,458
866.290466,451
866.407837,460
866.52533,457
866.6427,464
866.760071,469
866.877563,466
866.994934,453
867.112305,470
867.229736,487
867.347107,461
867.464539,448
867.58197,461
867.699341,453
867.81665,459
867.934082,457
868.051453,458
868.168823,469
868.286194,477
868.403564,469
868.520935,462
868.638306,445
868.755676,471
868.872986,475
868.990295,465
869.107727,454
869.225037,473
869.342346,466
869.459717,468
869.577026,450
869.694336,470
869.811707,441
869.929016,462
870.046326,464
870.163635,485
870.280945,439
870.398254,458
870.515564,459
870.632812,498
870.750183,469
870.867432,452
870.984741,480
871.102051,458
871.219299,445
871.336609,459
871.453918,467
871.571106,476
871.688416,463
871.805664,444
871.922852,456
872.040222,452
872.157471,467
872.274719,450
872.391968,466
872.509155,464
872.626465,454
872.743652,468
872.860962,452
872.978149,459
873.095337,454
873.212646,466
873.329834,462
873.44696,467
873.564209,473
873.681396,457
873.798645,466
873.915894,467
874.03302,461
874.150208,468
874.267456,472
874.384583,476
874.501831,457
874.618958,450
874.736145,452
874.853333,455
874.970459,460
875.087646,449
875.204834,468
875.32196,483
875.439148,456
875.556274,446
875.673401,476
875.790527,442
875.907715,462
876.024841,441
876.141968,459
876.259094,451
876.376282,436
876.493347,482
876.610474,471
876.7276,467
876.844727,456
876.961853,449
877.078918,469
877.195984,477
877.313171,457
877.430237,460
877.547302,463
877.664368,452
877.781433,489
877.898499,451
878.015625,466
878.13269,464
878.249695,453
878.366821,452
878.483887,471
878.600952,450
878.717957,457
878.834961,479
878.952087,457
879.069092,454
879.186157,474
879.303162,469
879.420227,461
879.537231,477
879.654236,436
879.77124,446
879.888306,441
880.005249,461
880.122314,443
880.239319,471
880.356323,463
880.473328,448
880.590271,481
880.707275,460
880.824341,452
880.941284,448
881.058228,447
881.175232,484
881.292236,462
881.40918,447
881.526123,472
881.643066,462
881.760071,468
881.877014,446
881.993958,461
882.11084,468
882.227783,455
882.344727,469
882.46167,463
882.578613,452
882.695618,446
882.812439,459
882.929382,459
883.046326,494
883.163208,467
883.280151,464
883.397034,449
883.513916,463
883.630798,448
883.747742,478
883.864563,458
883.981506,452
884.098389,475
884.21521,484
884.332153,469
884.448975,453
884.565796,452
884.682678,460
884.7995,448
884.916443,471
885.033264,483
885.150085,463
885.266968,464
885.383789,463
885.500671,460
885.617493,470
885.734314,472
885.851196,457
885.967896,467
886.084717,461
886.201599,469
886.318359,468
886.435181,466
886.552002,486
886.668762,475
886.785645,472
886.902344,475
887.019165,463
887.135925,476
887.252747,452
887.369446,487
887.486267,478
887.603027,473
887.719788,469
887.836548,469
887.953247,484
888.070068,455
888.186829,474
888.303528,465
888.420288,460
888.536987,453
888.653687,459
888.770447,469
888.887146,454
889.003967,444
889.120667,479
889.237305,459
889.354065,474
889.470703,464
889.587463,468
889.704163,463
889.820862,451
889.937561,458
890.054199,463
890.170837,464
890.287598,479
890.404236,447
890.520874,460
890.637634,474
890.754211,452
890.87085,483
890.987549,483
891.104187,465
891.220886,465
891.337463,462
891.454102,470
891.57074,459
891.687378,462
891.804077,451
891.920654,473
892.037231,465
892.15387,469
892.270447,487
892.387085,471
892.503723,473
892.6203,470
892.736877,449
892.853516,490
892.970032,479
893.08667,467
893.203186,477
893.319763,466
893.43634,474
893.552917,459
893.669556,474
893.786011,474
893.902588,468
894.019165,472
894.135681,486
894.252197,460
894.368835,475
894.485291,463
894.601868,460
894.718384,468
894.8349,469
894.951355,493
895.067932,466
895.184448,458
895.300964,477
895.417419,472
895.533936,456
895.650452,469
895.766907,495
895.883423,467
895.999878,478
896.116333,487
896.232849,439
896.349304,471
896.465759,462
896.582214,472
896.698669,472
896.815125,460
896.931641,468
897.048035,475
897.164551,450
897.280884,473
897.397339,462
897.513794,475
897.630249,480
897.746582,464
897.863098,466
897.979431,467
898.095886,458
898.212341,486
898.328674,492
898.445129,483
898.561462,479
898.677795,474
898.794312,463
898.910645,450
899.026978,470
899.143433,471
899.259766,438
899.37616,469
899.492493,456
899.608765,493
899.725159,476
899.841553,470
899.957947,481
900.07428,454
900.190552,481
900.306946,460
900.423157,476
900.53949,478
900.655884,471
900.772156,440
900.888489,456
901.004822,483
901.121033,464
901.237366,485
901.353699,476
901.46991,483
901.586304,461
901.702515,462
901.818787,484
901.93512,494
902.051331,475
902.167603,467
902.283875,449
902.400085,469
902.516418,476
902.632629,474
902.74884,488
902.865112,466
902.981384,479
903.097595,495
903.213867,467
903.330017,509
903.446289,488
903.5625,475
903.67865,485
903.794922,489
903.911072,457
904.027344,467
904.143494,470
904.259705,505
904.375916,486
904.492065,474
904.608215,464
904.724426,475
904.840576,469
904.956726,470
905.072876,470
905.189087,469
905.305176,477
905.421387,472
905.537537,472
905.653687,485
905.769775,490
905.885925,494
906.002014,467
906.118164,488
906.234314,484
906.350403,476
906.466492,478
906.582642,472
906.69873,489
906.814758,481
906.930908,462
907.046936,479
907.163086,469
907.279175,461
907.395264,479
907.511353,477
907.62738,478
907.743408,455
907.859497,464
907.975525,462
908.091553,478
908.207703,493
908.32373,457
908.439758,487
908.555786,481
908.671814,474
908.787842,462
908.90387,487
909.019775,481
909.135864,486
909.251892,481
909.367859,461
909.483826,461
909.599854,467
909.715881,452
909.831848,478
909.947815,475
910.063782,477
910.179749,457
910.295776,465
910.411743,458
910.527649,473
910.643616,474
910.759583,490
910.875488,482
910.991455,473
911.107361,475
911.223267,482
911.339294,467
911.4552,466
911.571106,470
911.687073,471
911.802979,459
911.918823,469
912.034729,480
912.150635,487
912.266602,479
912.382446,470
912.498352,455
912.614197,483
912.730103,469
912.846008,473
792.44574,615
792.56488,621
792.68396,677
792.80304,650
792.92218,612
793.041199,582
793.160339,572
793.279419,596
793.398499,570
793.517578,571
793.636658,574
793.755737,563
793.874817,588
793.993896,563
794.112976,592
794.232056,567
794.351074,558
794.470215,563
794.589233,571
794.708313,554
794.827393,533
794.946411,578
795.065552,549
795.18457,558
795.303589,558
795.422668,555
795.541687,578
795.660767,565
795.779846,539
795.898865,529
796.017883,551
796.136963,549
796.255981,542
796.375061,548
796.49408,538
796.613037,528
796.732117,546
796.851135,544
796.970154,551
797.089233,525
797.208191,518
797.327271,531
797.446228,537
797.565186,553
797.684265,527
797.803223,527
797.922241,505
798.04126,528
798.160278,533
798.279297,533
798.398315,533
798.517273,545
798.636292,533
798.75531,518
798.874268,520
798.993286,529
799.112244,529
799.231323,541
799.350281,522
799.469238,518
799.588257,525
799.707153,524
799.826111,530
799.945129,532
800.064087,518
800.183044,545
800.302063,541
800.421021,523
800.539978,520
800.658936,518
800.777893,533
800.896912,533
801.015747,533
801.134705,538
801.253723,544
801.37262,515
801.491638,521
801.610535,527
801.729492,530
801.84845,513
801.967407,523
802.086243,541
802.205261,540
802.324158,532
802.443115,533
802.562073,509
802.680969,552
802.799927,519
802.918762,537
803.037659,516
803.156677,520
803.275574,539
803.39447,534
803.513428,518
803.632263,535
803.751221,539
803.870117,526
803.989014,523
804.107971,523
804.226746,533
804.345642,536
804.4646,516
804.583496,533
804.702393,511
804.821228,524
804.940125,517
805.059021,517
805.177917,514
805.296814,535
805.415649,518
805.534546,512
805.653442,523
805.772278,515
805.891113,550
806.01001,535
806.128906,519
806.247742,537
806.366577,527
806.485413,540
806.604309,539
806.723145,530
806.84198,537
806.960876,539
807.079712,525
807.198486,528
807.317383,548
807.436218,526
807.554993,547
807.673889,547
807.792725,541
807.91156,539
808.030396,523
808.14917,530
808.268005,530
808.386841,539
808.505676,549
808.624451,540
808.743286,538
808.862122,532
808.980896,522
809.099731,548
809.218506,542
809.337341,517
809.456116,516
809.57489,550
809.693726,535
809.8125,532
809.931274,539
810.050049,538
810.168884,542
810.287659,543
810.406372,543
810.525269,530
810.643982,515
810.762756,547
810.881531,550
811.000305,550
811.11908,526
811.237854,532
811.356567,527
811.475403,537
811.594116,528
811.71283,553
811.831604,526
811.950378,537
812.069153,539
812.187927,525
812.30658,543
812.425415,554
812.544128,556
812.662781,550
812.781616,533
812.900269,529
813.019043,539
813.137756,562
813.256531,508
813.375244,558
813.493896,533
813.612671,548
813.731384,531
813.850037,525
813.96875,526
814.087524,547
814.206238,541
814.324951,524
814.443604,542
814.562256,540
814.68103,554
814.799683,547
814.918335,544
815.037109,536
815.155762,542
815.274475,523
815.393188,544
815.511841,528
815.630554,537
815.749146,512
815.867859,527
815.986572,528
816.105164,525
816.223877,515
816.342529,508
816.461182,520
816.579895,535
816.698486,507
816.817139,554
816.935791,516
817.054504,519
817.173096,515
817.291748,537
817.4104,537
817.529053,511
817.647644,511
817.766235,514
817.884949,512
818.00354,508
818.122192,506
818.240845,492
818.359436,487
818.478088,503
818.59668,506
818.715271,513
818.833923,498
818.952515,500
819.071106,491
819.189758,475
819.30835,500
819.426941,479
819.545532,476
819.664124,513
819.782715,481
819.901306,475
820.019897,479
820.138489,480
820.25708,490
820.375671,480
820.494202,494
820.612732,484
820.731384,480
820.849915,471
820.968506,474
821.087097,468
821.205627,467
821.324158,490
821.442749,486
821.561279,473
821.679871,486
821.798401,480
821.916931,478
822.035461,446
822.154053,495
822.272583,478
822.391174,484
822.509583,477
822.628174,452
822.746704,471
822.865234,455
822.983765,473
823.102295,468
823.220825,461
823.339294,449
823.457825,445
823.576355,448
823.694824,476
823.813354,463
823.931885,458
824.050354,491
824.168884,470
824.287354,494
824.405823,481
824.524353,485
824.642822,476
824.761353,476
824.879822,462
824.998291,473
825.116699,457
825.235291,465
825.353699,468
825.472168,455
825.590637,470
825.709106,473
825.827576,466
825.946045,453
826.064453,467
826.182983,464
826.301392,454
826.4198,477
826.53833,456
826.656738,468
826.775208,448
826.893677,473
827.012024,472
827.130493,458
827.248962,455
827.36731,457
827.485779,468
827.604248,468
827.722595,456
827.841064,459
827.959412,439
828.077942,456
828.196289,453
828.314636,462
828.433105,458
828.551514,464
828.669861,464
828.78833,454
828.906677,455
829.025085,452
829.143433,460
829.261841,461
829.38031,455
829.498657,463
829.617004,461
829.735413,468
829.85376,452
829.972107,444
830.090515,470
830.208862,477
830.327209,433
830.445557,478
830.563904,448
830.682312,471
830.800659,450
830.919006,464
831.037354,461
831.155701,454
831.274048,470
831.392395,470
831.51062,453
831.629028,464
831.747314,448
831.865662,472
831.984009,450
832.102356,449
832.220642,458
832.338928,453
832.457275,464
832.575623,471
832.693909,440
832.812134,437
832.930481,461
833.048828,467
833.167114,454
833.2854,447
833.403687,483
833.521973,445
833.640259,447
833.758545,456
833.876831,461
833.995056,448
834.113281,445
834.231628,451
834.349915,451
834.468201,461
834.586426,457
834.704651,458
834.822998,442
834.941162,459
835.059448,450
835.177673,448
835.295959,450
835.414246,458
835.53241,458
835.650635,457
835.768921,450
835.887146,464
836.005371,451
836.123596,474
836.241821,456
836.360046,442
836.478271,443
836.596497,466
836.714722,479
836.832886,456
836.95105,471
837.069336,470
837.1875,468
837.305725,447
837.423889,454
837.542053,470
837.660339,463
837.778503,459
837.896667,474
838.014832,475
838.132996,457
838.25116,469
838.369385,456
838.487488,458
838.605713,457
838.723877,464
838.84198,459
838.960205,472
839.078308,466
839.196472,468
839.314636,458
839.4328,465
839.550964,464
839.669067,449
839.787231,445
839.905396,460
840.023499,466
840.141602,456
840.259766,462
840.377869,452
840.495972,471
840.614136,470
840.732239,455
840.850342,455
840.968445,468
841.086548,469
841.204651,443
841.322754,459
841.440918,450
841.55896,475
841.677002,461
841.795166,467
841.913208,462
842.031311,475
842.149353,441
842.267456,460
842.385498,450
842.503601,473
842.621643,457
842.739746,460
842.857788,457
842.97583,447
843.093933,449
843.211975,468
843.330017,456
843.44812,472
843.566101,448
843.684204,475
843.802246,454
843.920227,467
844.038269,450
844.156311,471
844.274292,450
844.392395,466
844.510376,456
844.628357,471
844.74646,484
844.864441,458
844.982422,486
845.100403,465
845.218384,469
845.336426,469
845.454468,449
845.572449,457
845.69043,455
845.808411,456
845.926453,466
846.044373,474
846.162354,460
846.280396,463
846.398315,462
846.516296,439
846.634216,446
846.752197,455
846.870178,448
846.988098,490
847.106079,459
847.22406,459
847.34198,469
847.4599,450
847.577881,466
847.695801,458
847.813782,447
847.931641,454
848.049561,425
848.167603,481
848.285461,454
848.403381,464
848.521362,444
848.639221,471
848.75708,459
848.875,449
848.99292,453
849.110901,448
849.22876,468
849.34668,457
849.464539,446
849.582458,456
849.700317,458
849.818176,452
849.936096,468
850.053955,454
850.171875,453
850.289673,463
850.407593,454
850.525452,473
850.643311,458
850.761169,448
850.878967,459
850.996887,457
851.114746,470
851.232544,468
851.350403,450
851.468262,456
851.58606,468
851.703979,474
851.821777,445
851.939636,445
852.057434,466
852.175232,466
852.293091,455
852.410889,476
852.528687,444
852.646545,470
852.764343,460
852.88208,473
852.999939,441
853.117676,436
853.235535,449
853.353271,462
853.471069,461
853.588928,482
853.706604,456
853.824402,477
853.9422,463
854.059998,464
854.177734,445
854.295532,457
854.413269,460
854.531006,452
854.648804,467
854.766541,463
854.884277,451
855.002014,473
855.119751,454
855.237549,464
855.355225,469
855.473022,469
855.590698,468
855.708435,470
855.826172,451
855.943848,459
856.061646,440
856.179321,462
856.296997,447
856.414795,468
856.53241,457
856.650085,469
856.767822,458
856.885559,475
857.003174,464
857.120911,470
857.238586,445
857.356201,471
857.473938,460
857.591614,454
857.709351,451
857.826965,437
857.944641,453
858.062317,458
858.179993,457
858.297668,441
858.415283,447
858.532959,461
858.650574,442
858.768188,455
858.885803,460
859.003479,457
859.121094,480
859.23877,481
859.356384,459
859.473999,488
859.591675,457
859.709229,472
859.826843,453
859.944458,446
860.062012,456
860.179626,461
860.297302,454
860.414856,462
860.532471,438
860.650024,474
860.767639,464
860.885193,460
861.002808,455
861.120361,471
861.237976,438
861.35553,467
861.473022,455
861.590698,453
861.708191,448
861.825745,452
861.943298,470
862.060852,470
862.178406,452
862.295959,469
862.413513,451
862.531006,458
862.64856,476
862.766113,450
862.883667,461
863.00116,451
863.118713,452
863.236206,466
863.353699,433
863.471252,477
863.588745,470
863.706177,451
863.82373,465
863.941162,453
864.058716,455
864.176208,459
864.29364,452
864.411194,465
864.528687,466
864.646118,465
864.763611,455
864.881042,460
864.998535,466
865.116028,454
865.233459,449
865.350891,469
865.468384,453
865.585754,454
865.703308,442
865.820679,451
865.938171,454
866.055542,452
866.173035,439
866.290466,446
866.407837,453
866.52533,451
866.6427,464
866.760071,490
866.877563,440
866.994934,456
867.112305,463
867.229736,454
867.347107,450
867.464539,462
867.58197,477
867.699341,462
867.81665,450
867.934082,470
868.051453,467
868.168823,469
868.286194,467
868.403564,454
868.520935,477
868.638306,460
868.755676,452
868.872986,467
868.990295,472
869.107727,457
869.225037,467
869.342346,453
869.459717,455
869.577026,446
869.694336,492
869.811707,474
869.929016,455
870.046326,472
870.163635,468
870.280945,452
870.398254,467
870.515564,492
870.632812,472
870.750183,465
870.867432,455
870.984741,477
871.102051,441
871.219299,457
871.336609,458
871.453918,464
871.571106,468
871.688416,476
871.805664,469
871.922852,470
872.040222,452
872.157471,452
872.274719,457
872.391968,466
872.509155,464
872.626465,450
872.743652,467
872.860962,467
872.978149,438
873.095337,492
873.212646,446
873.329834,465
873.44696,469
873.564209,469
873.681396,480
873.798645,456
873.915894,458
874.03302,461
874.150208,464
874.267456,453
874.384583,441
874.501831,472
874.618958,457
874.736145,480
874.853333,478
874.970459,475
875.087646,460
875.204834,470
875.32196,451
875.439148,467
875.556274,455
875.673401,459
875.790527,448
875.907715,477
876.024841,450
876.141968,454
876.259094,460
876.376282,470
876.493347,464
876.610474,480
876.7276,445
876.844727,480
876.961853,459
877.078918,468
877.195984,456
877.313171,439
877.430237,457
877.547302,466
877.664368,440
877.781433,468
877.898499,453
878.015625,447
878.13269,446
878.249695,484
878.366821,458
878.483887,474
878.600952,473
878.717957,470
878.834961,478
878.952087,480
879.069092,466
879.186157,482
879.303162,463
879.420227,471
879.537231,476
879.654236,471
879.77124,452
879.888306,453
880.005249,457
880.122314,485
880.239319,469
880.356323,466
880.473328,471
880.590271,487
880.707275,471
880.824341,462
880.941284,470
881.058228,454
881.175232,458
881.292236,484
881.40918,448
881.526123,481
881.643066,458
881.760071,468
881.877014,465
881.993958,452
882.11084,462
882.227783,483
882.344727,453
882.46167,469
882.578613,458
882.695618,464
882.812439,458
882.929382,468
883.046326,471
883.163208,493
883.280151,470
883.397034,470
883.513916,463
883.630798,468
883.747742,483
883.864563,466
883.981506,473
884.098389,477
884.21521,456
884.332153,475
884.448975,478
884.565796,457
884.682678,470
884.7995,476
884.916443,469
885.033264,458
885.150085,478
885.266968,483
885.383789,471
885.500671,476
885.617493,462
885.734314,473
885.851196,476
885.967896,447
886.084717,486
886.201599,480
886.318359,485
886.435181,489
886.552002,495
886.668762,498
886.785645,464
886.902344,462
887.019165,461
887.135925,471
887.252747,468
887.369446,470
887.486267,453
887.603027,476
887.719788,464
887.836548,482
887.953247,460
888.070068,460
888.186829,463
888.303528,483
888.420288,477
888.536987,462
888.653687,463
888.770447,486
888.887146,487
889.003967,461
889.120667,461
889.237305,477
889.354065,475
889.470703,474
889.587463,469
889.704163,470
889.820862,452
889.937561,477
890.054199,469
890.170837,475
890.287598,478
890.404236,464
890.520874,468
890.637634,487
890.754211,460
890.87085,473
890.987549,462
891.104187,481
891.220886,463
891.337463,470
891.454102,466
891.57074,467
891.687378,476
891.804077,457
891.920654,480
892.037231,474
892.15387,467
892.270447,497
892.387085,453
892.503723,466
892.6203,468
892.736877,477
892.853516,470
892.970032,476
893.08667,473
893.203186,486
893.319763,466
893.43634,489
893.552917,467
893.669556,490
893.786011,456
893.902588,476
894.019165,469
894.135681,463
894.252197,496
894.368835,472
894.485291,465
894.601868,471
894.718384,477
894.8349,492
894.951355,467
895.067932,480
895.184448,468
895.300964,484
895.417419,458
895.533936,472
895.650452,466
895.766907,484
895.883423,479
895.999878,484
896.116333,474
896.232849,479
896.349304,455
896.465759,474
896.582214,456
896.698669,478
896.815125,452
896.931641,485
897.048035,473
897.164551,480
897.280884,473
897.397339,471
897.513794,477
897.630249,471
897.746582,474
897.863098,462
897.979431,490
898.095886,469
898.212341,453
898.328674,471
898.445129,484
898.561462,479
898.677795,468
898.794312,495
898.910645,483
899.026978,465
899.143433,465
899.259766,480
899.37616,487
899.492493,467
899.608765,495
899.725159,481
899.841553,476
899.957947,484
900.07428,465
900.190552,481
900.306946,462
900.423157,471
900.53949,469
900.655884,481
900.772156,479
900.888489,468
901.004822,465
901.121033,490
901.237366,465
901.353699,482
901.46991,512
901.586304,469
901.702515,471
901.818787,472
901.93512,467
902.051331,479
902.167603,485
902.283875,482
902.400085,494
902.516418,490
902.632629,476
902.74884,507
902.865112,495
902.981384,473
903.097595,483
903.213867,493
903.330017,478
903.446289,499
903.5625,475
903.67865,475
903.794922,485
903.911072,492
904.027344,468
904.143494,483
904.259705,480
904.375916,479
904.492065,502
904.608215,478
904.724426,477
904.840576,482
904.956726,468
905.072876,475
905.189087,495
905.305176,479
905.421387,472
905.537537,481
905.653687,477
905.769775,468
905.885925,478
906.002014,480
906.118164,462
906.234314,480
906.350403,485
906.466492,473
906.582642,476
906.69873,474
906.814758,474
906.930908,465
907.046936,488
907.163086,501
907.279175,479
907.395264,500
907.511353,453
907.62738,489
907.743408,475
907.859497,488
907.975525,501
908.091553,487
908.207703,474
908.32373,492
908.439758,466
908.555786,476
908.671814,488
908.787842,482
908.90387,475
909.019775,488
909.135864,484
909.251892,483
909.367859,476
909.483826,487
909.599854,476
909.715881,480
909.831848,496
909.947815,477
910.063782,470
910.179749,470
910.295776,481
910.411743,501
910.527649,501
910.643616,499
910.759583,475
910.875488,489
910.991455,476
911.107361,487
911.223267,482
911.339294,479
911.4552,494
911.571106,496
911.687073,463
911.802979,486
911.918823,479
912.034729,485
912.150635,490
912.266602,462
912.382446,472
912.498352,494
912.614197,499
912.730103,491
912.846008,454
792.44574,607
792.56488,626
792.68396,677
792.80304,649
792.92218,581
793.041199,566
793.160339,585
793.279419,593
793.398499,579
793.517578,568
793.636658,569
793.755737,583
793.874817,618
793.993896,569
794.112976,567
794.232056,548
794.351074,564
794.470215,577
794.589233,579
794.708313,554
794.827393,562
794.946411,545
795.065552,574
795.18457,565
795.303589,567
795.422668,543
795.541687,559
795.660767,523
795.779846,559
795.898865,548
796.017883,550
796.136963,537
796.255981,548
796.375061,552
796.49408,551
796.613037,555
796.732117,541
796.851135,533
796.970154,547
797.089233,527
797.208191,528
797.327271,538
797.446228,548
797.565186,542
797.684265,551
797.803223,522
797.922241,542
798.04126,535
798.160278,561
798.279297,536
798.398315,522
798.517273,528
798.636292,526
798.75531,525
798.874268,522
798.993286,497
799.112244,532
799.231323,534
799.350281,533
799.469238,536
799.588257,529
799.707153,532
799.826111,538
799.945129,540
800.064087,523
800.183044,535
800.302063,528
800.421021,539
800.539978,532
800.658936,522
800.777893,528
800.896912,524
801.015747,521
801.134705,511
801.253723,554
801.37262,526
801.491638,509
801.610535,520
801.729492,518
801.84845,545
801.967407,510
802.086243,523
802.205261,524
802.324158,519
802.443115,537
802.562073,520
802.680969,523
802.799927,537
802.918762,542
803.037659,501
803.156677,537
803.275574,520
803.39447,539
803.513428,522
803.632263,531
803.751221,529
803.870117,514
803.989014,515
804.107971,518
804.226746,530
804.345642,530
804.4646,545
804.583496,556
804.702393,533
804.821228,550
804.940125,518
805.059021,536
805.177917,529
805.296814,527
805.415649,549
805.534546,521
805.653442,526
805.772278,526
805.891113,561
806.01001,524
806.128906,544
806.247742,539
806.366577,506
806.485413,545
806.604309,544
806.723145,548
806.84198,525
806.960876,537
807.079712,545
807.198486,546
807.317383,518
807.436218,537
807.554993,538
807.673889,535
807.792725,521
807.91156,566
808.030396,538
808.14917,531
808.268005,530
808.386841,555
808.505676,516
808.624451,551
808.743286,544
808.862122,532
808.980896,528
809.099731,537
809.218506,550
809.337341,541
809.456116,542
809.57489,548
809.693726,555
809.8125,556
809.931274,542
810.050049,548
810.168884,542
810.287659,557
810.406372,561
810.525269,540
810.643982,514
810.762756,538
810.881531,553
811.000305,538
811.11908,526
811.237854,525
811.356567,532
811.475403,531
811.594116,517
811.71283,532
811.831604,531
811.950378,541
812.069153,559
812.187927,558
812.30658,526
812.425415,537
812.544128,525
812.662781,517
812.781616,548
812.900269,544
813.019043,520
813.137756,535
813.256531,530
813.375244,519
813.493896,524
813.612671,553
813.731384,529
813.850037,533
813.96875,519
814.087524,513
814.206238,536
814.324951,559
814.443604,530
814.562256,548
814.68103,521
814.799683,556
814.918335,534
815.037109,520
815.155762,546
815.274475,555
815.393188,524
815.511841,519
815.630554,538
815.749146,528
815.867859,535
815.986572,522
816.105164,524
816.223877,527
816.342529,500
816.461182,523
816.579895,529
816.698486,540
816.817139,519
816.935791,528
817.054504,517
817.173096,541
817.291748,534
817.4104,538
817.529053,517
817.647644,525
817.766235,502
817.884949,530
818.00354,514
818.122192,503
818.240845,493
818.359436,507
818.478088,504
818.59668,506
818.715271,500
818.833923,488
818.952515,487
819.071106,490
819.189758,477
819.30835,493
819.426941,484
819.545532,485
819.664124,486
819.782715,480
819.901306,474
820.019897,501
820.138489,486
820.25708,484
820.375671,474
820.494202,479
820.612732,474
820.731384,473
820.849915,471
820.968506,491
821.087097,464
821.205627,458
821.324158,471
821.442749,483
821.561279,473
821.679871,481
821.798401,462
821.916931,475
822.035461,514
822.154053,441
822.272583,489
822.391174,485
822.509583,464
822.628174,472
822.746704,474
822.865234,479
822.983765,482
823.102295,493
823.220825,470
823.339294,454
823.457825,477
823.576355,478
823.694824,467
823.813354,477
823.931885,464
824.050354,483
824.168884,466
824.287354,489
824.405823,472
824.524353,472
824.642822,472
824.761353,476
824.879822,467
824.998291,493
825.116699,453
825.235291,454
825.353699,485
825.472168,464
825.590637,464
825.709106,450
825.827576,466
825.946045,481
826.064453,462
826.182983,474
826.301392,450
826.4198,463
826.53833,447
826.656738,453
826.775208,457
826.893677,469
827.012024,461
827.130493,474
827.248962,458
827.36731,492
827.485779,471
827.604248,477
827.722595,444
827.841064,455
827.959412,465
828.077942,443
828.196289,463
828.314636,446
828.433105,466
828.551514,452
828.669861,436
828.78833,455
828.906677,446
829.025085,467
829.143433,461
829.261841,455
829.38031,473
829.498657,466
829.617004,455
829.735413,461
829.85376,466
829.972107,474
830.090515,447
830.208862,468
830.327209,454
830.445557,448
830.563904,470
830.682312,469
830.800659,472
830.919006,456
831.037354,453
831.155701,462
831.274048,475
831.392395,459
831.51062,456
831.629028,474
831.747314,464
831.865662,449
831.984009,459
832.102356,443
832.220642,455
832.338928,464
832.457275,477
832.575623,463
832.693909,470
832.812134,469
832.930481,470
833.048828,463
833.167114,453
833.2854,469
833.403687,454
833.521973,456
833.640259,456
833.758545,449
833.876831,452
833.995056,470
834.113281,441
834.231628,459
834.349915,471
834.468201,472
834.586426,480
834.704651,450
834.822998,466
834.941162,474
835.059448,473
835.177673,459
835.295959,447
835.414246,473
835.53241,466
835.650635,464
835.768921,455
835.887146,464
836.005371,455
836.123596,459
836.241821,446
836.360046,456
836.478271,471
836.596497,455
836.714722,473
836.832886,453
836.95105,450
837.069336,469
837.1875,460
837.305725,494
837.423889,465
837.542053,448
837.660339,459
837.778503,475
837.896667,469
838.014832,472
838.132996,463
838.25116,450
838.369385,462
838.487488,466
838.605713,458
838.723877,480
838.84198,473
838.960205,479
839.078308,463
839.196472,472
839.314636,459
839.4328,472
839.550964,467
839.669067,452
839.787231,455
839.905396,467
840.023499,453
840.141602,455
840.259766,466
840.377869,472
840.495972,466
840.614136,462
840.732239,476
840.850342,451
840.968445,470
841.086548,444
841.204651,468
841.322754,468
841.440918,468
841.55896,468
841.677002,458
841.795166,471
841.913208,451
842.031311,451
842.149353,442
842.267456,449
842.385498,472
842.503601,469
842.621643,447
842.739746,451
842.857788,443
842.97583,468
843.093933,456
843.211975,478
843.330017,444
843.44812,465
843.566101,458
843.684204,464
843.802246,479
843.920227,479
844.038269,472
844.156311,458
844.274292,460
844.392395,476
844.510376,446
844.628357,461
844.74646,449
844.864441,454
844.982422,453
845.100403,446
845.218384,450
845.336426,454
845.454468,454
845.572449,455
845.69043,447
845.808411,453
845.926453,445
846.044373,463
846.162354,446
846.280396,464
846.398315,454
846.516296,462
846.634216,472
846.752197,438
846.870178,471
846.988098,460
847.106079,447
847.22406,461
847.34198,485
847.4599,471
847.577881,452
847.695801,472
847.813782,449
847.931641,461
848.049561,464
848.167603,451
848.285461,460
848.403381,452
848.521362,476
848.639221,476
848.75708,480
848.875,447
848.99292,466
849.110901,443
849.22876,450
849.34668,459
849.464539,441
849.582458,459
849.700317,460
849.818176,461
849.936096,468
850.053955,477
850.171875,461
850.289673,469
850.407593,469
850.525452,453
850.643311,449
850.761169,478
850.878967,459
850.996887,450
851.114746,469
851.232544,471
851.350403,454
851.468262,478
851.58606,476
851.703979,447
851.821777,460
851.939636,452
852.057434,463
852.175232,456
852.293091,453
852.410889,455
852.528687,456
852.646545,469
852.764343,442
852.88208,441
852.999939,461
853.117676,471
853.235535,474
853.353271,462
853.471069,445
853.588928,452
853.706604,451
853.824402,467
853.9422,455
854.059998,458
854.177734,466
854.295532,465
854.413269,469
854.531006,459
854.648804,450
854.766541,481
854.884277,449
855.002014,480
855.119751,449
855.237549,475
855.355225,473
855.473022,451
855.590698,465
855.708435,471
855.826172,454
855.943848,492
856.061646,451
856.179321,460
856.296997,454
856.414795,480
856.53241,453
856.650085,449
856.767822,463
856.885559,469
857.003174,450
857.120911,453
857.238586,450
857.356201,475
857.473938,449
857.591614,456
857.709351,461
857.826965,480
857.944641,469
858.062317,462
858.179993,469
858.297668,468
858.415283,445
858.532959,471
858.650574,476
858.768188,465
858.885803,465
859.003479,461
859.121094,453
859.23877,462
859.356384,452
859.473999,460
859.591675,448
859.709229,483
859.826843,451
859.944458,472
860.062012,461
860.179626,462
860.297302,456
860.414856,446
860.532471,443
860.650024,471
860.767639,458
860.885193,461
861.002808,458
861.120361,462
861.237976,464
861.35553,458
861.473022,457
861.590698,472
861.708191,431
861.825745,466
861.943298,458
862.060852,477
862.178406,455
862.295959,454
862.413513,465
862.531006,470
862.64856,462
862.766113,459
862.883667,458
863.00116,461
863.118713,442
863.236206,454
863.353699,451
863.471252,470
863.588745,467
863.706177,472
863.82373,464
863.941162,482
864.058716,449
864.176208,469
864.29364,457
864.411194,469
864.528687,455
864.646118,458
864.763611,445
864.881042,456
864.998535,439
865.116028,449
865.233459,447
865.350891,457
865.468384,446
865.585754,483
865.703308,458
865.820679,463
865.938171,450
866.055542,457
866.173035,472
866.290466,455
866.407837,443
866.52533,468
866.6427,439
866.760071,478
866.877563,459
866.994934,457
867.112305,457
867.229736,466
867.347107,456
867.464539,467
867.58197,453
867.699341,466
867.81665,466
867.934082,456
868.051453,469
868.168823,459
868.286194,448
868.403564,463
868.520935,442
868.638306,474
868.755676,448
868.872986,457
868.990295,442
869.107727,457
869.225037,474
869.342346,463
869.459717,443
869.577026,453
869.694336,442
869.811707,462
869.929016,461
870.046326,474
870.163635,448
870.280945,462
870.398254,470
870.515564,459
870.632812,449
870.750183,470
870.867432,473
870.984741,479
871.102051,451
871.219299,474
871.336609,475
871.453918,468
871.571106,465
871.688416,470
871.805664,460
871.922852,462
872.040222,460
872.157471,475
872.274719,466
872.391968,477
872.509155,475
872.626465,474
872.743652,465
872.860962,475
872.978149,456
873.095337,459
873.212646,459
873.329834,472
873.44696,454
873.564209,483
873.681396,464
873.798645,466
873.915894,450
874.03302,462
874.150208,454
874.267456,465
874.384583,453
874.501831,463
874.618958,465
874.736145,456
874.853333,451
874.970459,471
875.087646,477
875.204834,463
875.32196,460
875.439148,478
875.556274,456
875.673401,467
875.790527,468
875.907715,458
876.024841,461
876.141968,478
876.259094,475
876.376282,466
876.493347,454
876.610474,476
876.7276,446
876.844727,466
876.961853,481
877.078918,464
877.195984,483
877.313171,465
877.430237,465
877.547302,470
877.664368,461
877.781433,469
877.898499,464
878.015625,463
878.13269,458
878.249695,461
878.366821,458
878.483887,466
878.600952,476
878.717957,465
878.834961,455
878.952087,466
879.069092,480
879.186157,468
879.303162,463
879.420227,453
879.537231,471
879.654236,461
879.77124,473
879.888306,497
880.005249,477
880.122314,465
880.239319,434
880.356323,450
880.473328,451
880.590271,477
880.707275,464
880.824341,474
880.941284,455
881.058228,457
881.175232,478
881.292236,454
881.40918,457
881.526123,478
881.643066,455
881.760071,455
881.877014,456
881.993958,473
882.11084,456
882.227783,463
882.344727,469
882.46167,478
882.578613,479
882.695618,451
882.812439,461
882.929382,457
883.046326,463
883.163208,463
883.280151,470
883.397034,464
883.513916,467
883.630798,463
883.747742,476
883.864563,457
883.981506,459
884.098389,479
884.21521,468
884.332153,457
884.448975,451
884.565796,486
884.682678,477
884.7995,470
884.916443,471
885.033264,471
885.150085,473
885.266968,468
885.383789,463
885.500671,460
885.617493,461
885.734314,487
885.851196,477
885.967896,498
886.084717,485
886.201599,464
886.318359,446
886.435181,499
886.552002,455
886.668762,487
886.785645,469
886.902344,469
887.019165,473
887.135925,480
887.252747,472
887.369446,476
887.486267,469
887.603027,468
887.719788,468
887.836548,464
887.953247,471
888.070068,460
888.186829,480
888.303528,490
888.420288,480
888.536987,484
888.653687,474
888.770447,480
888.887146,466
889.003967,462
889.120667,476
889.237305,489
889.354065,464
889.470703,480
889.587463,481
889.704163,487
889.820862,473
889.937561,465
890.054199,454
890.170837,475
890.287598,464
890.404236,465
890.520874,470
890.637634,500
890.754211,465
890.87085,463
890.987549,471
891.104187,452
891.220886,487
891.337463,481
891.454102,439
891.57074,475
891.687378,460
891.804077,471
891.920654,483
892.037231,472
892.15387,457
892.270447,473
892.387085,458
892.503723,477
892.6203,467
892.736877,460
892.853516,475
892.970032,455
893.08667,479
893.203186,492
893.319763,475
893.43634,481
893.552917,474
893.669556,508
893.786011,485
893.902588,482
894.019165,477
894.135681,479
894.252197,474
894.368835,458
894.485291,462
894.601868,478
894.718384,484
894.8349,482
894.951355,473
895.067932,464
895.184448,458
895.300964,485
895.417419,485
895.533936,473
895.650452,447
895.766907,492
895.883423,491
895.999878,492
896.116333,485
896.232849,484
896.349304,475
896.465759,481
896.582214,482
896.698669,475
896.815125,479
896.931641,473
897.048035,470
897.164551,480
897.280884,492
897.397339,470
897.513794,472
897.630249,470
897.746582,471
897.863098,489
897.979431,452
898.095886,475
898.212341,469
898.328674,484
898.445129,471
898.561462,466
898.677795,509
898.794312,471
898.910645,482
899.026978,492
899.143433,467
899.259766,473
899.37616,476
899.492493,480
899.608765,478
899.725159,480
899.841553,470
899.957947,472
900.07428,486
900.190552,485
900.306946,457
900.423157,482
900.53949,476
900.655884,467
900.772156,491
900.888489,482
901.004822,470
901.121033,479
901.237366,462
901.353699,490
901.46991,476
901.586304,484
901.702515,489
901.818787,487
901.93512,494
902.051331,474
902.167603,476
902.283875,502
902.400085,476
902.516418,492
902.632629,472
902.74884,477
902.865112,479
902.981384,482
903.097595,473
903.213867,486
903.330017,492
903.446289,491
903.5625,471
903.67865,508
903.794922,468
903.911072,488
904.027344,474
904.143494,461
904.259705,484
904.375916,484
904.492065,473
904.608215,479
904.724426,471
904.840576,480
904.956726,484
905.072876,490
905.189087,479
905.305176,486
905.421387,478
905.537537,500
905.653687,483
905.769775,483
905.885925,496
906.002014,495
906.118164,465
906.234314,482
906.350403,481
906.466492,503
906.582642,475
906.69873,464
906.814758,488
906.930908,499
907.046936,465
907.163086,487
907.279175,449
907.395264,482
907.511353,492
907.62738,480
907.743408,455
907.859497,479
907.975525,495
908.091553,469
908.207703,468
908.32373,481
908.439758,471
908.555786,474
908.671814,487
908.787842,491
908.90387,479
909.019775,488
909.135864,485
909.251892,501
909.367859,485
909.483826,486
909.599854,484
909.715881,485
909.831848,487
909.947815,472
910.063782,480
910.179749,463
910.295776,499
910.411743,503
910.527649,486
910.643616,486
910.759583,488
910.875488,506
910.991455,475
911.107361,484
911.223267,467
911.339294,489
911.4552,469
911.571106,496
911.687073,476
911.802979,498
911.918823,455
912.034729,481
912.150635,488
912.266602,489
912.382446,493
912.498352,483
912.614197,496
912.730103,472
912.846008,485
