792.44574,505
792.56488,524
792.68396,548
792.80304,559
792.92218,496
793.041199,458
793.160339,474
793.279419,506
793.398499,481
793.517578,465
793.636658,503
793.755737,488
793.874817,504
793.993896,516
794.112976,483
794.232056,489
794.351074,490
794.470215,481
794.589233,485
794.708313,492
794.827393,503
794.946411,483
795.065552,518
795.18457,497
795.303589,487
795.422668,473
795.541687,484
795.660767,488
795.779846,485
795.898865,464
796.017883,497
796.136963,481
796.255981,496
796.375061,491
796.49408,481
796.613037,481
796.732117,483
796.851135,481
796.970154,497
797.089233,489
797.208191,463
797.327271,493
797.446228,466
797.565186,475
797.684265,474
797.803223,498
797.922241,484
798.04126,480
798.160278,483
798.279297,477
798.398315,482
798.517273,481
798.636292,493
798.75531,483
798.874268,468
798.993286,476
799.112244,499
799.231323,470
799.350281,477
799.469238,460
799.588257,490
799.707153,473
799.826111,475
799.945129,499
800.064087,501
800.183044,460
800.302063,499
800.421021,477
800.539978,479
800.658936,462
800.777893,472
800.896912,475
801.015747,488
801.134705,491
801.253723,500
801.37262,481
801.491638,479
801.610535,469
801.729492,478
801.84845,476
801.967407,454
802.086243,474
802.205261,475
802.324158,484
802.443115,463
802.562073,487
802.680969,486
802.799927,490
802.918762,471
803.037659,468
803.156677,495
803.275574,477
803.39447,472
803.513428,496
803.632263,476
803.751221,461
803.870117,460
803.989014,470
804.107971,482
804.226746,479
804.345642,478
804.4646,469
804.583496,486
804.702393,479
804.821228,486
804.940125,467
805.059021,492
805.177917,479
805.296814,455
805.415649,475
805.534546,467
805.653442,454
805.772278,472
805.891113,462
806.01001,492
806.128906,457
806.247742,492
806.366577,481
806.485413,462
806.604309,484
806.723145,487
806.84198,487
806.960876,474
807.079712,480
807.198486,474
807.317383,459
807.436218,481
807.554993,467
807.673889,486
807.792725,466
807.91156,472
808.030396,474
808.14917,495
808.268005,461
808.386841,452
808.505676,467
808.624451,485
808.743286,461
808.862122,471
808.980896,469
809.099731,461
809.218506,487
809.337341,497
809.456116,484
809.57489,479
809.693726,464
809.8125,457
809.931274,482
810.050049,508
810.168884,463
810.287659,468
810.406372,457
810.525269,474
810.643982,487
810.762756,487
810.881531,453
811.000305,471
811.11908,462
811.237854,461
811.356567,474
811.475403,501
811.594116,455
811.71283,469
811.831604,469
811.950378,478
812.069153,491
812.187927,493
812.30658,469
812.425415,486
812.544128,483
812.662781,477
812.781616,466
812.900269,474
813.019043,489
813.137756,473
813.256531,483
813.375244,467
813.493896,464
813.612671,451
813.731384,464
813.850037,490
813.96875,466
814.087524,469
814.206238,467
814.324951,477
814.443604,470
814.562256,449
814.68103,471
814.799683,477
814.918335,439
815.037109,501
815.155762,460
815.274475,477
815.393188,466
815.511841,475
815.630554,472
815.749146,464
815.867859,477
815.986572,481
816.105164,462
816.223877,457
816.342529,455
816.461182,492
816.579895,457
816.698486,464
816.817139,458
816.935791,464
817.054504,482
817.173096,474
817.291748,451
817.4104,461
817.529053,473
817.647644,479
817.766235,472
817.884949,448
818.00354,462
818.122192,464
818.240845,475
818.359436,460
818.478088,456
818.59668,468
818.715271,440
818.833923,456
818.952515,446
819.071106,474
819.189758,463
819.30835,457
819.426941,479
819.545532,463
819.664124,450
819.782715,460
819.901306,452
820.019897,469
820.138489,454
820.25708,459
820.375671,455
820.494202,454
820.612732,451
820.731384,470
820.849915,461
820.968506,466
821.087097,450
821.205627,458
821.324158,457
821.442749,487
821.561279,445
821.679871,443
821.798401,446
821.916931,447
822.035461,456
822.154053,455
822.272583,455
822.391174,454
822.509583,449
822.628174,445
822.746704,444
822.865234,463
822.983765,446
823.102295,465
823.220825,445
823.339294,450
823.457825,445
823.576355,436
823.694824,457
823.813354,457
823.931885,457
824.050354,465
824.168884,455
824.287354,442
824.405823,464
824.524353,451
824.642822,458
824.761353,440
824.879822,465
824.998291,440
825.116699,436
825.235291,443
825.353699,473
825.472168,441
825.590637,426
825.709106,455
825.827576,439
825.946045,452
826.064453,444
826.182983,461
826.301392,439
826.4198,453
826.53833,450
826.656738,454
826.775208,454
826.893677,437
827.012024,446
827.130493,457
827.248962,448
827.36731,452
827.485779,448
827.604248,446
827.722595,446
827.841064,441
827.959412,437
828.077942,435
828.196289,448
828.314636,457
828.433105,437
828.551514,450
828.669861,454
828.78833,455
828.906677,464
829.025085,465
829.143433,455
829.261841,468
829.38031,446
829.498657,451
829.617004,445
829.735413,435
829.85376,444
829.972107,436
830.090515,442
830.208862,453
830.327209,460
830.445557,432
830.563904,432
830.682312,441
830.800659,436
830.919006,465
831.037354,444
831.155701,452
831.274048,443
831.392395,453
831.51062,432
831.629028,469
831.747314,455
831.865662,460
831.984009,443
832.102356,453
832.220642,459
832.338928,455
832.457275,440
832.575623,467
832.693909,446
832.812134,451
832.930481,456
833.048828,448
833.167114,452
833.2854,439
833.403687,447
833.521973,468
833.640259,454
833.758545,445
833.876831,446
833.995056,471
834.113281,458
834.231628,460
834.349915,442
834.468201,455
834.586426,445
834.704651,435
834.822998,449
834.941162,444
835.059448,436
835.177673,436
835.295959,447
835.414246,452
835.53241,431
835.650635,462
835.768921,441
835.887146,445
836.005371,426
836.123596,430
836.241821,433
836.360046,420
836.478271,466
836.596497,462
836.714722,428
836.832886,465
836.95105,446
837.069336,454
837.1875,450
837.305725,467
837.423889,427
837.542053,437
837.660339,436
837.778503,451
837.896667,451
838.014832,447
838.132996,454
838.25116,441
838.369385,444
838.487488,463
838.605713,455
838.723877,435
838.84198,425
838.960205,464
839.078308,455
839.196472,458
839.314636,440
839.4328,438
839.550964,455
839.669067,449
839.787231,444
839.905396,444
840.023499,444
840.141602,437
840.259766,453
840.377869,434
840.495972,453
840.614136,434
840.732239,438
840.850342,456
840.968445,436
841.086548,441
841.204651,433
841.322754,445
841.440918,434
841.55896,437
841.677002,433
841.795166,456
841.913208,442
842.031311,454
842.149353,416
842.267456,437
842.385498,439
842.503601,445
842.621643,433
842.739746,451
842.857788,441
842.97583,426
843.093933,445
843.211975,447
843.330017,445
843.44812,443
843.566101,434
843.684204,455
843.802246,440
843.920227,439
844.038269,432
844.156311,447
844.274292,447
844.392395,449
844.510376,434
844.628357,452
844.74646,450
844.864441,443
844.982422,443
845.100403,427
845.218384,443
845.336426,449
845.454468,428
845.572449,457
845.69043,434
845.808411,457
845.926453,438
846.044373,444
846.162354,441
846.280396,453
846.398315,446
846.516296,462
846.634216,427
846.752197,441
846.870178,446
846.988098,442
847.106079,424
847.22406,455
847.34198,429
847.4599,447
847.577881,444
847.695801,440
847.813782,436
847.931641,443
848.049561,439
848.167603,439
848.285461,421
848.403381,438
848.521362,442
848.639221,445
848.75708,452
848.875,455
848.99292,431
849.110901,468
849.22876,442
849.34668,442
849.464539,439
849.582458,464
849.700317,438
849.818176,451
849.936096,448
850.053955,448
850.171875,442
850.289673,435
850.407593,457
850.525452,444
850.643311,441
850.761169,471
850.878967,429
850.996887,456
851.114746,434
851.232544,441
851.350403,432
851.468262,442
851.58606,432
851.703979,443
851.821777,432
851.939636,452
852.057434,436
852.175232,440
852.293091,457
852.410889,450
852.528687,429
852.646545,444
852.764343,443
852.88208,439
852.999939,430
853.117676,462
853.235535,445
853.353271,432
853.471069,434
853.588928,435
853.706604,446
853.824402,441
853.9422,449
854.059998,442
854.177734,455
854.295532,438
854.413269,443
854.531006,456
854.648804,452
854.766541,443
854.884277,455
855.002014,452
855.119751,449
855.237549,450
855.355225,438
855.473022,451
855.590698,448
855.708435,453
855.826172,442
855.943848,443
856.061646,458
856.179321,447
856.296997,437
856.414795,435
856.53241,461
856.650085,443
856.767822,443
856.885559,455
857.003174,436
857.120911,437
857.238586,446
857.356201,452
857.473938,458
857.591614,447
857.709351,445
857.826965,441
857.944641,441
858.062317,447
858.179993,455
858.297668,440
858.415283,442
858.532959,434
858.650574,441
858.768188,444
858.885803,437
859.003479,453
859.121094,449
859.23877,455
859.356384,427
859.473999,433
859.591675,432
859.709229,437
859.826843,455
859.944458,443
860.062012,441
860.179626,438
860.297302,449
860.414856,442
860.532471,426
860.650024,462
860.767639,435
860.885193,436
861.002808,430
861.120361,445
861.237976,428
861.35553,448
861.473022,438
861.590698,436
861.708191,443
861.825745,433
861.943298,445
862.060852,441
862.178406,428
862.295959,454
862.413513,442
862.531006,447
862.64856,468
862.766113,451
862.883667,433
863.00116,446
863.118713,432
863.236206,435
863.353699,433
863.471252,440
863.588745,439
863.706177,451
863.82373,444
863.941162,451
864.058716,432
864.176208,452
864.29364,451
864.411194,439
864.528687,461
864.646118,457
864.763611,436
864.881042,442
864.998535,444
865.116028,468
865.233459,440
865.350891,459
865.468384,445
865.585754,439
865.703308,443
865.820679,453
865.938171,437
866.055542,439
866.173035,437
866.290466,446
866.407837,437
866.52533,452
866.6427,443
866.760071,450
866.877563,448
866.994934,465
867.112305,448
867.229736,468
867.347107,425
867.464539,442
867.58197,430
867.699341,441
867.81665,437
867.934082,456
868.051453,421
868.168823,459
868.286194,440
868.403564,429
868.520935,441
868.638306,439
868.755676,443
868.872986,444
868.990295,437
869.107727,433
869.225037,418
869.342346,448
869.459717,430
869.577026,453
869.694336,461
869.811707,440
869.929016,451
870.046326,452
870.163635,455
870.280945,447
870.398254,436
870.515564,444
870.632812,437
870.750183,448
870.867432,466
870.984741,444
871.102051,449
871.219299,442
871.336609,433
871.453918,449
871.571106,444
871.688416,441
871.805664,448
871.922852,443
872.040222,440
872.157471,452
872.274719,442
872.391968,442
872.509155,456
872.626465,436
872.743652,451
872.860962,453
872.978149,449
873.095337,456
873.212646,460
873.329834,441
873.44696,451
873.564209,455
873.681396,466
873.798645,460
873.915894,429
874.03302,445
874.150208,455
874.267456,460
874.384583,451
874.501831,442
874.618958,437
874.736145,459
874.853333,455
874.970459,436
875.087646,458
875.204834,435
875.32196,457
875.439148,446
875.556274,455
875.673401,446
875.790527,440
875.907715,432
876.024841,430
876.141968,447
876.259094,444
876.376282,457
876.493347,442
876.610474,449
876.7276,443
876.844727,464
876.961853,456
877.078918,440
877.195984,442
877.313171,469
877.430237,434
877.547302,447
877.664368,462
877.781433,446
877.898499,452
878.015625,449
878.13269,435
878.249695,463
878.366821,439
878.483887,456
878.600952,441
878.717957,443
878.834961,434
878.952087,435
879.069092,442
879.186157,444
879.303162,448
879.420227,441
879.537231,445
879.654236,445
879.77124,449
879.888306,460
880.005249,449
880.122314,459
880.239319,441
880.356323,463
880.473328,467
880.590271,444
880.707275,460
880.824341,450
880.941284,452
881.058228,454
881.175232,435
881.292236,454
881.40918,450
881.526123,467
881.643066,421
881.760071,451
881.877014,474
881.993958,441
882.11084,450
882.227783,455
882.344727,445
882.46167,441
882.578613,426
882.695618,448
882.812439,445
882.929382,455
883.046326,456
883.163208,461
883.280151,452
883.397034,429
883.513916,439
883.630798,465
883.747742,459
883.864563,448
883.981506,457
884.098389,454
884.21521,433
884.332153,462
884.448975,433
884.565796,459
884.682678,447
884.7995,436
884.916443,438
885.033264,479
885.150085,449
885.266968,458
885.383789,445
885.500671,471
885.617493,450
885.734314,464
885.851196,455
885.967896,445
886.084717,446
886.201599,459
886.318359,465
886.435181,447
886.552002,438
886.668762,453
886.785645,451
886.902344,455
887.019165,439
887.135925,460
887.252747,449
887.369446,453
887.486267,464
887.603027,446
887.719788,446
887.836548,469
887.953247,453
888.070068,466
888.186829,449
888.303528,460
888.420288,441
888.536987,446
888.653687,457
888.770447,446
888.887146,456
889.003967,461
889.120667,437
889.237305,456
889.354065,429
889.470703,461
889.587463,448
889.704163,455
889.820862,436
889.937561,462
890.054199,463
890.170837,463
890.287598,447
890.404236,453
890.520874,459
890.637634,446
890.754211,449
890.87085,455
890.987549,441
891.104187,457
891.220886,447
891.337463,445
891.454102,441
891.57074,474
891.687378,435
891.804077,445
891.920654,463
892.037231,457
892.15387,457
892.270447,436
892.387085,435
892.503723,456
892.6203,448
892.736877,463
892.853516,462
892.970032,449
893.08667,458
893.203186,459
893.319763,450
893.43634,488
893.552917,452
893.669556,473
893.786011,461
893.902588,448
894.019165,457
894.135681,461
894.252197,448
894.368835,457
894.485291,447
894.601868,462
894.718384,444
894.8349,459
894.951355,450
895.067932,456
895.184448,455
895.300964,464
895.417419,444
895.533936,469
895.650452,465
895.766907,450
895.883423,460
895.999878,457
896.116333,471
896.232849,456
896.349304,462
896.465759,464
896.582214,441
896.698669,462
896.815125,439
896.931641,451
897.048035,461
897.164551,444
897.280884,459
897.397339,437
897.513794,463
897.630249,478
897.746582,436
897.863098,445
897.979431,441
898.095886,470
898.212341,469
898.328674,467
898.445129,447
898.561462,453
898.677795,459
898.794312,451
898.910645,453
899.026978,452
899.143433,455
899.259766,466
899.37616,457
899.492493,444
899.608765,461
899.725159,465
899.841553,432
899.957947,468
900.07428,444
900.190552,469
900.306946,452
900.423157,470
900.53949,463
900.655884,451
900.772156,464
900.888489,465
901.004822,453
901.121033,482
901.237366,447
901.353699,450
901.46991,459
901.586304,459
901.702515,456
901.818787,477
901.93512,457
902.051331,454
902.167603,452
902.283875,471
902.400085,449
902.516418,448
902.632629,450
902.74884,454
902.865112,477
902.981384,461
903.097595,445
903.213867,487
903.330017,437
903.446289,465
903.5625,460
903.67865,454
903.794922,469
903.911072,463
904.027344,460
904.143494,480
904.259705,441
904.375916,478
904.492065,473
904.608215,471
904.724426,457
904.840576,442
904.956726,462
905.072876,443
905.189087,461
905.305176,463
905.421387,460
905.537537,463
905.653687,458
905.769775,447
905.885925,466
906.002014,458
906.118164,457
906.234314,452
906.350403,475
906.466492,459
906.582642,458
906.69873,480
906.814758,469
906.930908,487
907.046936,446
907.163086,469
907.279175,423
907.395264,460
907.511353,453
907.62738,462
907.743408,468
907.859497,481
907.975525,458
908.091553,467
908.207703,435
908.32373,474
908.439758,454
908.555786,445
908.671814,454
908.787842,468
908.90387,464
909.019775,488
909.135864,470
909.251892,452
909.367859,456
909.483826,466
909.599854,451
909.715881,444
909.831848,483
909.947815,466
910.063782,449
910.179749,478
910.295776,474
910.411743,459
910.527649,471
910.643616,478
910.759583,474
910.875488,472
910.991455,459
911.107361,468
911.223267,450
911.339294,464
911.4552,460
911.571106,477
911.687073,459
911.802979,459
911.918823,457
912.034729,450
912.150635,474
912.266602,472
912.382446,429
912.498352,469
912.614197,476
912.730103,472
912.846008,476
792.44574,495
792.56488,523
792.68396,555
792.80304,538
792.92218,503
793.041199,466
793.160339,517
793.279419,520
793.398499,508
793.517578,510
793.636658,475
793.755737,499
793.874817,507
793.993896,513
794.112976,500
794.232056,470
794.351074,504
794.470215,490
794.589233,484
794.708313,474
794.827393,476
794.946411,491
795.065552,491
795.18457,509
795.303589,475
795.422668,471
795.541687,481
795.660767,477
795.779846,494
795.898865,487
796.017883,506
796.136963,464
796.255981,499
796.375061,494
796.49408,477
796.613037,491
796.732117,481
796.851135,481
796.970154,483
797.089233,483
797.208191,497
797.327271,480
797.446228,499
797.565186,495
797.684265,501
797.803223,476
797.922241,484
798.04126,481
798.160278,502
798.279297,478
798.398315,492
798.517273,485
798.636292,471
798.75531,473
798.874268,483
798.993286,491
799.112244,482
799.231323,478
799.350281,485
799.469238,472
799.588257,474
799.707153,483
799.826111,468
799.945129,476
800.064087,503
800.183044,483
800.302063,488
800.421021,472
800.539978,474
800.658936,487
800.777893,495
800.896912,475
801.015747,478
801.134705,479
801.253723,476
801.37262,480
801.491638,480
801.610535,468
801.729492,493
801.84845,495
801.967407,471
802.086243,466
802.205261,463
802.324158,481
802.443115,469
802.562073,482
802.680969,477
802.799927,470
802.918762,478
803.037659,484
803.156677,483
803.275574,475
803.39447,485
803.513428,477
803.632263,470
803.751221,490
803.870117,474
803.989014,477
804.107971,476
804.226746,482
804.345642,475
804.4646,471
804.583496,468
804.702393,479
804.821228,466
804.940125,485
805.059021,472
805.177917,479
805.296814,485
805.415649,475
805.534546,467
805.653442,492
805.772278,467
805.891113,481
806.01001,470
806.128906,484
806.247742,478
806.366577,481
806.485413,497
806.604309,485
806.723145,489
806.84198,480
806.960876,474
807.079712,484
807.198486,452
807.317383,463
807.436218,482
807.554993,458
807.673889,479
807.792725,477
807.91156,457
808.030396,471
808.14917,459
808.268005,475
808.386841,492
808.505676,488
808.624451,488
808.743286,468
808.862122,462
808.980896,486
809.099731,459
809.218506,470
809.337341,466
809.456116,472
809.57489,462
809.693726,477
809.8125,474
809.931274,455
810.050049,476
810.168884,467
810.287659,461
810.406372,478
810.525269,463
810.643982,484
810.762756,480
810.881531,475
811.000305,475
811.11908,474
811.237854,490
811.356567,475
811.475403,481
811.594116,477
811.71283,465
811.831604,478
811.950378,468
812.069153,471
812.187927,469
812.30658,485
812.425415,473
812.544128,473
812.662781,473
812.781616,484
812.900269,484
813.019043,471
813.137756,497
813.256531,473
813.375244,473
813.493896,476
813.612671,494
813.731384,465
813.850037,477
813.96875,502
814.087524,467
814.206238,464
814.324951,455
814.443604,467
814.562256,469
814.68103,464
814.799683,467
814.918335,481
815.037109,466
815.155762,475
815.274475,469
815.393188,478
815.511841,464
815.630554,463
815.749146,473
815.867859,454
815.986572,471
816.105164,486
816.223877,488
816.342529,472
816.461182,468
816.579895,474
816.698486,488
816.817139,458
816.935791,478
817.054504,461
817.173096,446
817.291748,482
817.4104,474
817.529053,457
817.647644,479
817.766235,468
817.884949,472
818.00354,457
818.122192,456
818.240845,448
818.359436,471
818.478088,472
818.59668,455
818.715271,462
818.833923,457
818.952515,465
819.071106,444
819.189758,474
819.30835,456
819.426941,475
819.545532,456
819.664124,465
819.782715,453
819.901306,459
820.019897,464
820.138489,462
820.25708,461
820.375671,459
820.494202,469
820.612732,468
820.731384,462
820.849915,459
820.968506,480
821.087097,449
821.205627,463
821.324158,451
821.442749,445
821.561279,469
821.679871,461
821.798401,455
821.916931,481
822.035461,468
822.154053,436
822.272583,433
822.391174,465
822.509583,451
822.628174,459
822.746704,463
822.865234,443
822.983765,465
823.102295,443
823.220825,450
823.339294,472
823.457825,445
823.576355,459
823.694824,447
823.813354,466
823.931885,441
824.050354,451
824.168884,456
824.287354,449
824.405823,451
824.524353,484
824.642822,461
824.761353,450
824.879822,440
824.998291,453
825.116699,446
825.235291,460
825.353699,449
825.472168,456
825.590637,454
825.709106,438
825.827576,459
825.946045,446
826.064453,444
826.182983,458
826.301392,455
826.4198,447
826.53833,443
826.656738,456
826.775208,450
826.893677,446
827.012024,445
827.130493,477
827.248962,448
827.36731,438
827.485779,447
827.604248,455
827.722595,447
827.841064,461
827.959412,443
828.077942,435
828.196289,452
828.314636,440
828.433105,450
828.551514,459
828.669861,449
828.78833,448
828.906677,452
829.025085,423
829.143433,435
829.261841,444
829.38031,449
829.498657,453
829.617004,449
829.735413,455
829.85376,463
829.972107,464
830.090515,457
830.208862,441
830.327209,451
830.445557,445
830.563904,473
830.682312,459
830.800659,438
830.919006,450
831.037354,459
831.155701,443
831.274048,443
831.392395,456
831.51062,448
831.629028,422
831.747314,438
831.865662,445
831.984009,428
832.102356,466
832.220642,443
832.338928,467
832.457275,422
832.575623,455
832.693909,432
832.812134,441
832.930481,454
833.048828,443
833.167114,436
833.2854,471
833.403687,441
833.521973,444
833.640259,440
833.758545,436
833.876831,449
833.995056,452
834.113281,449
834.231628,438
834.349915,438
834.468201,458
834.586426,436
834.704651,452
834.822998,452
834.941162,438
835.059448,459
835.177673,436
835.295959,445
835.414246,443
835.53241,442
835.650635,448
835.768921,454
835.887146,463
836.005371,462
836.123596,447
836.241821,454
836.360046,451
836.478271,449
836.596497,424
836.714722,466
836.832886,447
836.95105,437
837.069336,444
837.1875,447
837.305725,458
837.423889,448
837.542053,444
837.660339,456
837.778503,446
837.896667,468
838.014832,471
838.132996,432
838.25116,479
838.369385,458
838.487488,435
838.605713,446
838.723877,436
838.84198,437
838.960205,462
839.078308,449
839.196472,438
839.314636,448
839.4328,457
839.550964,454
839.669067,449
839.787231,434
839.905396,443
840.023499,442
840.141602,437
840.259766,428
840.377869,448
840.495972,451
840.614136,440
840.732239,454
840.850342,455
840.968445,451
841.086548,463
841.204651,444
841.322754,431
841.440918,443
841.55896,460
841.677002,450
841.795166,440
841.913208,450
842.031311,444
842.149353,435
842.267456,438
842.385498,454
842.503601,441
842.621643,442
842.739746,447
842.857788,429
842.97583,421
843.093933,455
843.211975,468
843.330017,462
843.44812,432
843.566101,447
843.684204,453
843.802246,434
843.920227,442
844.038269,437
844.156311,449
844.274292,450
844.392395,441
844.510376,461
844.628357,425
844.74646,442
844.864441,431
844.982422,438
845.100403,455
845.218384,448
845.336426,468
845.454468,451
845.572449,450
845.69043,445
845.808411,457
845.926453,455
846.044373,449
846.162354,439
846.280396,447
846.398315,441
846.516296,435
846.634216,446
846.752197,450
846.870178,425
846.988098,437
847.106079,443
847.22406,444
847.34198,426
847.4599,436
847.577881,446
847.695801,442
847.813782,451
847.931641,447
848.049561,436
848.167603,444
848.285461,473
848.403381,431
848.521362,432
848.639221,446
848.75708,427
848.875,435
848.99292,465
849.110901,438
849.22876,459
849.34668,440
849.464539,445
849.582458,447
849.700317,460
849.818176,444
849.936096,452
850.053955,447
850.171875,444
850.289673,442
850.407593,444
850.525452,456
850.643311,443
850.761169,446
850.878967,450
850.996887,454
851.114746,470
851.232544,463
851.350403,465
851.468262,452
851.58606,444
851.703979,423
851.821777,466
851.939636,441
852.057434,452
852.175232,441
852.293091,442
852.410889,452
852.528687,454
852.646545,463
852.764343,455
852.88208,438
852.999939,438
853.117676,430
853.235535,453
853.353271,438
853.471069,448
853.588928,419
853.706604,437
853.824402,427
853.9422,440
854.059998,442
854.177734,452
854.295532,439
854.413269,443
854.531006,454
854.648804,430
854.766541,454
854.884277,430
855.002014,478
855.119751,439
855.237549,468
855.355225,432
855.473022,446
855.590698,430
855.708435,443
855.826172,464
855.943848,443
856.061646,443
856.179321,467
856.296997,450
856.414795,436
856.53241,437
856.650085,432
856.767822,446
856.885559,438
857.003174,446
857.120911,450
857.238586,447
857.356201,462
857.473938,438
857.591614,451
857.709351,457
857.826965,456
857.944641,445
858.062317,436
858.179993,437
858.297668,460
858.415283,450
858.532959,446
858.650574,458
858.768188,450
858.885803,443
859.003479,431
859.121094,437
859.23877,446
859.356384,429
859.473999,462
859.591675,453
859.709229,445
859.826843,453
859.944458,463
860.062012,450
860.179626,438
860.297302,450
860.414856,462
860.532471,449
860.650024,440
860.767639,452
860.885193,438
861.002808,451
861.120361,444
861.237976,442
861.35553,449
861.473022,458
861.590698,438
861.708191,456
861.825745,466
861.943298,452
862.060852,447
862.178406,442
862.295959,447
862.413513,443
862.531006,440
862.64856,460
862.766113,463
862.883667,452
863.00116,440
863.118713,444
863.236206,442
863.353699,447
863.471252,447
863.588745,452
863.706177,445
863.82373,453
863.941162,446
864.058716,442
864.176208,442
864.29364,454
864.411194,460
864.528687,456
864.646118,458
864.763611,449
864.881042,441
864.998535,453
865.116028,469
865.233459,449
865.350891,454
865.468384,443
865.585754,445
865.703308,439
865.820679,437
865.938171,452
866.055542,441
866.173035,438
866.290466,457
866.407837,433
866.52533,449
866.6427,442
866.760071,452
866.877563,449
866.994934,447
867.112305,427
867.229736,440
867.347107,444
867.464539,446
867.58197,453
867.699341,451
867.81665,447
867.934082,449
868.051453,451
868.168823,450
868.286194,440
868.403564,449
868.520935,461
868.638306,460
868.755676,457
868.872986,428
868.990295,454
869.107727,467
869.225037,433
869.342346,442
869.459717,446
869.577026,458
869.694336,457
869.811707,439
869.929016,455
870.046326,440
870.163635,434
870.280945,467
870.398254,452
870.515564,454
870.632812,453
870.750183,463
870.867432,435
870.984741,449
871.102051,450
871.219299,465
871.336609,456
871.453918,454
871.571106,424
871.688416,461
871.805664,434
871.922852,439
872.040222,456
872.157471,438
872.274719,467
872.391968,445
872.509155,450
872.626465,434
872.743652,455
872.860962,441
872.978149,456
873.095337,441
873.212646,456
873.329834,443
873.44696,448
873.564209,441
873.681396,452
873.798645,429
873.915894,437
874.03302,449
874.150208,435
874.267456,441
874.384583,455
874.501831,454
874.618958,451
874.736145,453
874.853333,452
874.970459,458
875.087646,426
875.204834,467
875.32196,459
875.439148,452
875.556274,454
875.673401,459
875.790527,451
875.907715,454
876.024841,443
876.141968,450
876.259094,453
876.376282,447
876.493347,445
876.610474,459
876.7276,464
876.844727,458
876.961853,446
877.078918,453
877.195984,464
877.313171,461
877.430237,460
877.547302,434
877.664368,445
877.781433,451
877.898499,450
878.015625,449
878.13269,451
878.249695,468
878.366821,458
878.483887,473
878.600952,453
878.717957,452
878.834961,467
878.952087,468
879.069092,447
879.186157,450
879.303162,458
879.420227,456
879.537231,460
879.654236,451
879.77124,454
879.888306,445
880.005249,452
880.122314,459
880.239319,447
880.356323,440
880.473328,475
880.590271,466
880.707275,447
880.824341,437
880.941284,442
881.058228,455
881.175232,442
881.292236,443
881.40918,457
881.526123,443
881.643066,457
881.760071,444
881.877014,436
881.993958,465
882.11084,454
882.227783,443
882.344727,458
882.46167,446
882.578613,443
882.695618,438
882.812439,450
882.929382,458
883.046326,452
883.163208,462
883.280151,459
883.397034,444
883.513916,451
883.630798,451
883.747742,456
883.864563,475
883.981506,470
884.098389,464
884.21521,447
884.332153,457
884.448975,443
884.565796,441
884.682678,447
884.7995,455
884.916443,462
885.033264,461
885.150085,473
885.266968,447
885.383789,459
885.500671,433
885.617493,463
885.734314,467
885.851196,457
885.967896,442
886.084717,465
886.201599,452
886.318359,455
886.435181,452
886.552002,472
886.668762,441
886.785645,447
886.902344,452
887.019165,458
887.135925,441
887.252747,456
887.369446,473
887.486267,438
887.603027,453
887.719788,442
887.836548,462
887.953247,477
888.070068,470
888.186829,447
888.303528,460
888.420288,447
888.536987,454
888.653687,449
888.770447,464
888.887146,451
889.003967,461
889.120667,465
889.237305,437
889.354065,473
889.470703,461
889.587463,465
889.704163,463
889.820862,446
889.937561,440
890.054199,456
890.170837,444
890.287598,454
890.404236,456
890.520874,457
890.637634,443
890.754211,468
890.87085,439
890.987549,452
891.104187,458
891.220886,444
891.337463,445
891.454102,484
891.57074,456
891.687378,452
891.804077,437
891.920654,460
892.037231,453
892.15387,452
892.270447,449
892.387085,447
892.503723,458
892.6203,460
892.736877,459
892.853516,466
892.970032,458
893.08667,450
893.203186,454
893.319763,445
893.43634,454
893.552917,443
893.669556,456
893.786011,475
893.902588,438
894.019165,449
894.135681,458
894.252197,454
894.368835,442
894.485291,450
894.601868,454
894.718384,456
894.8349,463
894.951355,452
895.067932,461
895.184448,449
895.300964,438
895.417419,472
895.533936,466
895.650452,434
895.766907,489
895.883423,467
895.999878,459
896.116333,456
896.232849,465
896.349304,454
896.465759,448
896.582214,458
896.698669,453
896.815125,449
896.931641,452
897.048035,468
897.164551,449
897.280884,445
897.397339,463
897.513794,458
897.630249,456
897.746582,474
897.863098,448
897.979431,453
898.095886,449
898.212341,468
898.328674,449
898.445129,468
898.561462,442
898.677795,441
898.794312,464
898.910645,452
899.026978,459
899.143433,442
899.259766,471
899.37616,466
899.492493,466
899.608765,456
899.725159,468
899.841553,453
899.957947,455
900.07428,458
900.190552,480
900.306946,470
900.423157,457
900.53949,455
900.655884,455
900.772156,468
900.888489,456
901.004822,456
901.121033,447
901.237366,473
901.353699,464
901.46991,452
901.586304,469
901.702515,465
901.818787,469
901.93512,464
902.051331,459
902.167603,461
902.283875,477
902.400085,456
902.516418,430
902.632629,458
902.74884,472
902.865112,474
902.981384,484
903.097595,463
903.213867,459
903.330017,455
903.446289,447
903.5625,448
903.67865,458
903.794922,473
903.911072,468
904.027344,469
904.143494,473
904.259705,461
904.375916,453
904.492065,443
904.608215,450
904.724426,464
904.840576,462
904.956726,464
905.072876,456
905.189087,464
905.305176,464
905.421387,471
905.537537,466
905.653687,460
905.769775,473
905.885925,472
906.002014,468
906.118164,463
906.234314,472
906.350403,475
906.466492,466
906.582642,473
906.69873,446
906.814758,458
906.930908,450
907.046936,457
907.163086,462
907.279175,475
907.395264,458
907.511353,439
907.62738,449
907.743408,440
907.859497,472
907.975525,466
908.091553,474
908.207703,470
908.32373,468
908.439758,481
908.555786,453
908.671814,470
908.787842,470
908.90387,473
909.019775,466
909.135864,473
909.251892,468
909.367859,464
909.483826,458
909.599854,476
909.715881,465
909.831848,469
909.947815,469
910.063782,453
910.179749,472
910.295776,470
910.411743,464
910.527649,477
910.643616,488
910.759583,466
910.875488,454
910.991455,454
911.107361,465
911.223267,478
911.339294,472
911.4552,472
911.571106,485
911.687073,489
911.802979,457
911.918823,456
912.034729,450
912.150635,469
912.266602,465
912.382446,468
912.498352,435
912.614197,463
912.730103,448
912.846008,459
792.44574,489
792.56488,518
792.68396,572
792.80304,549
792.92218,506
793.041199,493
793.160339,505
793.279419,510
793.398499,499
793.517578,465
793.636658,508
793.755737,516
793.874817,506
793.993896,502
794.112976,500
794.232056,498
794.351074,483
794.470215,507
794.589233,502
794.708313,476
794.827393,501
794.946411,477
795.065552,505
795.18457,501
795.303589,476
795.422668,509
795.541687,496
795.660767,484
795.779846,513
795.898865,483
796.017883,506
796.136963,493
796.255981,502
796.375061,475
796.49408,486
796.613037,476
796.732117,499
796.851135,492
796.970154,476
797.089233,483
797.208191,476
797.327271,492
797.446228,493
797.565186,467
797.684265,478
797.803223,491
797.922241,471
798.04126,489
798.160278,490
798.279297,484
798.398315,473
798.517273,479
798.636292,500
798.75531,484
798.874268,492
798.993286,478
799.112244,481
799.231323,499
799.350281,484
799.469238,497
799.588257,474
799.707153,475
799.826111,498
799.945129,490
800.064087,479
800.183044,491
800.302063,479
800.421021,479
800.539978,484
800.658936,496
800.777893,475
800.896912,469
801.015747,480
801.134705,485
801.253723,489
801.37262,470
801.491638,481
801.610535,484
801.729492,493
801.84845,490
801.967407,469
802.086243,495
802.205261,483
802.324158,465
802.443115,475
802.562073,482
802.680969,473
802.799927,477
802.918762,486
803.037659,478
803.156677,499
803.275574,470
803.39447,468
803.513428,479
803.632263,488
803.751221,487
803.870117,474
803.989014,473
804.107971,459
804.226746,465
804.345642,470
804.4646,472
804.583496,494
804.702393,489
804.821228,485
804.940125,470
805.059021,480
805.177917,497
805.296814,460
805.415649,481
805.534546,488
805.653442,472
805.772278,472
805.891113,475
806.01001,476
806.128906,469
806.247742,473
806.366577,473
806.485413,475
806.604309,474
806.723145,497
806.84198,482
806.960876,469
807.079712,490
807.198486,480
807.317383,474
807.436218,472
807.554993,481
807.673889,479
807.792725,463
807.91156,463
808.030396,481
808.14917,453
808.268005,472
808.386841,473
808.505676,475
808.624451,477
808.743286,481
808.862122,489
808.980896,480
809.099731,479
809.218506,481
809.337341,459
809.456116,476
809.57489,494
809.693726,494
809.8125,495
809.931274,474
810.050049,480
810.168884,485
810.287659,452
810.406372,482
810.525269,456
810.643982,476
810.762756,460
810.881531,467
811.000305,466
811.11908,470
811.237854,482
811.356567,488
811.475403,491
811.594116,481
811.71283,472
811.831604,490
811.950378,496
812.069153,477
812.187927,459
812.30658,501
812.425415,469
812.544128,471
812.662781,482
812.781616,485
812.900269,461
813.019043,485
813.137756,479
813.256531,467
813.375244,460
813.493896,460
813.612671,465
813.731384,506
813.850037,458
813.96875,474
814.087524,465
814.206238,460
814.324951,493
814.443604,479
814.562256,472
814.68103,463
814.799683,454
814.918335,486
815.037109,483
815.155762,487
815.274475,488
815.393188,463
815.511841,472
815.630554,474
815.749146,463
815.867859,463
815.986572,465
816.105164,469
816.223877,472
816.342529,479
816.461182,469
816.579895,485
816.698486,473
816.817139,481
816.935791,478
817.054504,459
817.173096,451
817.291748,471
817.4104,480
817.529053,463
817.647644,449
817.766235,474
817.884949,478
818.00354,461
818.122192,442
818.240845,489
818.359436,441
818.478088,478
818.59668,470
818.715271,456
818.833923,459
818.952515,468
819.071106,472
819.189758,465
819.30835,473
819.426941,454
819.545532,449
819.664124,470
819.782715,469
819.901306,468
820.019897,463
820.138489,447
820.25708,476
820.375671,460
820.494202,455
820.612732,462
820.731384,463
820.849915,462
820.968506,468
821.087097,472
821.205627,464
821.324158,474
821.442749,452
821.561279,461
821.679871,459
821.798401,456
821.916931,463
822.035461,476
822.154053,465
822.272583,456
822.391174,478
822.509583,457
822.628174,455
822.746704,439
822.865234,463
822.983765,457
823.102295,458
823.220825,466
823.339294,472
823.457825,441
823.576355,466
823.694824,444
823.813354,455
823.931885,446
824.050354,445
824.168884,471
824.287354,469
824.405823,460
824.524353,462
824.642822,455
824.761353,456
824.879822,487
824.998291,450
825.116699,471
825.235291,444
825.353699,457
825.472168,454
825.590637,466
825.709106,462
825.827576,461
825.946045,464
826.064453,464
826.182983,468
826.301392,457
826.4198,471
826.53833,459
826.656738,438
826.775208,455
826.893677,444
827.012024,460
827.130493,454
827.248962,446
827.36731,454
827.485779,475
827.604248,462
827.722595,457
827.841064,442
827.959412,458
828.077942,447
828.196289,436
828.314636,427
828.433105,465
828.551514,434
828.669861,447
828.78833,438
828.906677,449
829.025085,459
829.143433,425
829.261841,441
829.38031,460
829.498657,448
829.617004,448
829.735413,450
829.85376,473
829.972107,439
830.090515,452
830.208862,440
830.327209,446
830.445557,436
830.563904,446
830.682312,442
830.800659,444
830.919006,457
831.037354,445
831.155701,452
831.274048,444
831.392395,443
831.51062,442
831.629028,439
831.747314,446
831.865662,451
831.984009,459
832.102356,434
832.220642,449
832.338928,447
832.457275,455
832.575623,437
832.693909,432
832.812134,473
832.930481,450
833.048828,453
833.167114,461
833.2854,466
833.403687,450
833.521973,453
833.640259,439
833.758545,452
833.876831,465
833.995056,451
834.113281,450
834.231628,453
834.349915,451
834.468201,427
834.586426,453
834.704651,431
834.822998,459
834.941162,434
835.059448,453
835.177673,456
835.295959,457
835.414246,444
835.53241,460
835.650635,471
835.768921,454
835.887146,455
836.005371,449
836.123596,461
836.241821,449
836.360046,438
836.478271,452
836.596497,430
836.714722,463
836.832886,443
836.95105,447
837.069336,448
837.1875,446
837.305725,463
837.423889,443
837.542053,451
837.660339,459
837.778503,442
837.896667,467
838.014832,450
838.132996,459
838.25116,448
838.369385,459
838.487488,446
838.605713,466
838.723877,460
838.84198,450
838.960205,446
839.078308,454
839.196472,452
839.314636,441
839.4328,445
839.550964,450
839.669067,441
839.787231,457
839.905396,453
840.023499,447
840.141602,468
840.259766,455
840.377869,457
840.495972,451
840.614136,463
840.732239,426
840.850342,420
840.968445,459
841.086548,436
841.204651,447
841.322754,447
841.440918,457
841.55896,444
841.677002,449
841.795166,438
841.913208,449
842.031311,434
842.149353,441
842.267456,431
842.385498,452
842.503601,444
842.621643,477
842.739746,452
842.857788,463
842.97583,429
843.093933,448
843.211975,447
843.330017,443
843.44812,459
843.566101,442
843.684204,434
843.802246,454
843.920227,429
844.038269,439
844.156311,440
844.274292,449
844.392395,447
844.510376,443
844.628357,442
844.74646,459
844.864441,440
844.982422,436
845.100403,446
845.218384,451
845.336426,451
845.454468,430
845.572449,454
845.69043,435
845.808411,440
845.926453,450
846.044373,450
846.162354,423
846.280396,435
846.398315,444
846.516296,446
846.634216,441
846.752197,441
846.870178,451
846.988098,452
847.106079,446
847.22406,440
847.34198,447
847.4599,447
847.577881,445
847.695801,437
847.813782,438
847.931641,442
848.049561,447
848.167603,444
848.285461,443
848.403381,439
848.521362,438
848.639221,449
848.75708,441
848.875,442
848.99292,455
849.110901,454
849.22876,441
849.34668,451
849.464539,455
849.582458,444
849.700317,465
849.818176,465
849.936096,437
850.053955,455
850.171875,470
850.289673,430
850.407593,434
850.525452,447
850.643311,438
850.761169,452
850.878967,444
850.996887,470
851.114746,455
851.232544,452
851.350403,455
851.468262,444
851.58606,455
851.703979,437
851.821777,434
851.939636,455
852.057434,451
852.175232,436
852.293091,454
852.410889,435
852.528687,434
852.646545,437
852.764343,439
852.88208,461
852.999939,442
853.117676,444
853.235535,445
853.353271,437
853.471069,451
853.588928,460
853.706604,430
853.824402,448
853.9422,431
854.059998,439
854.177734,444
854.295532,450
854.413269,448
854.531006,466
854.648804,429
854.766541,441
854.884277,446
855.002014,440
855.119751,456
855.237549,438
855.355225,453
855.473022,455
855.590698,430
855.708435,438
855.826172,453
855.943848,443
856.061646,441
856.179321,449
856.296997,444
856.414795,446
856.53241,421
856.650085,429
856.767822,456
856.885559,441
857.003174,437
857.120911,440
857.238586,436
857.356201,458
857.473938,443
857.591614,473
857.709351,439
857.826965,445
857.944641,449
858.062317,445
858.179993,446
858.297668,434
858.415283,464
858.532959,450
858.650574,460
858.768188,430
858.885803,452
859.003479,455
859.121094,447
859.23877,435
859.356384,459
859.473999,438
859.591675,431
859.709229,435
859.826843,451
859.944458,449
860.062012,438
860.179626,441
860.297302,460
860.414856,453
860.532471,438
860.650024,433
860.767639,433
860.885193,439
861.002808,455
861.120361,459
861.237976,456
861.35553,450
861.473022,449
861.590698,466
861.708191,448
861.825745,460
861.943298,446
862.060852,436
862.178406,457
862.295959,450
862.413513,424
862.531006,443
862.64856,444
862.766113,463
862.883667,450
863.00116,448
863.118713,441
863.236206,446
863.353699,451
863.471252,459
863.588745,448
863.706177,438
863.82373,455
863.941162,454
864.058716,453
864.176208,440
864.29364,466
864.411194,460
864.528687,448
864.646118,459
864.763611,439
864.881042,453
864.998535,438
865.116028,451
865.233459,438
865.350891,455
865.468384,466
865.585754,452
865.703308,448
865.820679,432
865.938171,453
866.055542,459
866.173035,443
866.290466,446
866.407837,425
866.52533,443
866.6427,448
866.760071,436
866.877563,456
866.994934,440
867.112305,460
867.229736,455
867.347107,451
867.464539,445
867.58197,444
867.699341,439
867.81665,448
867.934082,433
868.051453,448
868.168823,442
868.286194,439
868.403564,457
868.520935,458
868.638306,424
868.755676,452
868.872986,445
868.990295,459
869.107727,449
869.225037,434
869.342346,444
869.459717,458
869.577026,460
869.694336,433
869.811707,459
869.929016,438
870.046326,443
870.163635,439
870.280945,447
870.398254,440
870.515564,441
870.632812,441
870.750183,466
870.867432,456
870.984741,468
871.102051,445
871.219299,460
871.336609,451
871.453918,456
871.571106,436
871.688416,443
871.805664,454
871.922852,457
872.040222,457
872.157471,448
872.274719,448
872.391968,448
872.509155,451
872.626465,455
872.743652,448
872.860962,452
872.978149,458
873.095337,434
873.212646,461
873.329834,447
873.44696,447
873.564209,445
873.681396,460
873.798645,444
873.915894,447
874.03302,441
874.150208,457
874.267456,454
874.384583,440
874.501831,461
874.618958,469
874.736145,429
874.853333,455
874.970459,452
875.087646,465
875.204834,450
875.32196,447
875.439148,451
875.556274,471
875.673401,456
875.790527,456
875.907715,441
876.024841,449
876.141968,446
876.259094,447
876.376282,450
876.493347,460
876.610474,453
876.7276,426
876.844727,445
876.961853,457
877.078918,454
877.195984,455
877.313171,443
877.430237,440
877.547302,461
877.664368,444
877.781433,451
877.898499,474
878.015625,451
878.13269,446
878.249695,429
878.366821,454
878.483887,455
878.600952,466
878.717957,435
878.834961,444
878.952087,439
879.069092,467
879.186157,448
879.303162,447
879.420227,448
879.537231,471
879.654236,438
879.77124,458
879.888306,453
880.005249,445
880.122314,456
880.239319,469
880.356323,470
880.473328,442
880.590271,422
880.707275,465
880.824341,433
880.941284,468
881.058228,445
881.175232,470
881.292236,443
881.40918,445
881.526123,459
881.643066,458
881.760071,451
881.877014,466
881.993958,457
882.11084,451
882.227783,438
882.344727,463
882.46167,452
882.578613,452
882.695618,445
882.812439,458
882.929382,434
883.046326,447
883.163208,442
883.280151,441
883.397034,450
883.513916,455
883.630798,441
883.747742,446
883.864563,452
883.981506,460
884.098389,479
884.21521,461
884.332153,457
884.448975,468
884.565796,451
884.682678,448
884.7995,461
884.916443,465
885.033264,453
885.150085,453
885.266968,462
885.383789,461
885.500671,463
885.617493,471
885.734314,458
885.851196,444
885.967896,474
886.084717,468
886.201599,476
886.318359,460
886.435181,441
886.552002,439
886.668762,445
886.785645,465
886.902344,450
887.019165,439
887.135925,467
887.252747,464
887.369446,435
887.486267,462
887.603027,469
887.719788,476
887.836548,447
887.953247,446
888.070068,453
888.186829,450
888.303528,448
888.420288,466
888.536987,470
888.653687,465
888.770447,450
888.887146,455
889.003967,445
889.120667,463
889.237305,459
889.354065,470
889.470703,460
889.587463,463
889.704163,454
889.820862,466
889.937561,449
890.054199,441
890.170837,448
890.287598,459
890.404236,450
890.520874,453
890.637634,473
890.754211,451
890.87085,471
890.987549,476
891.104187,464
891.220886,478
891.337463,464
891.454102,460
891.57074,435
891.687378,453
891.804077,455
891.920654,469
892.037231,456
892.15387,474
892.270447,464
892.387085,452
892.503723,462
892.6203,458
892.736877,454
892.853516,458
892.970032,451
893.08667,438
893.203186,479
893.319763,469
893.43634,456
893.552917,471
893.669556,428
893.786011,449
893.902588,476
894.019165,434
894.135681,462
894.252197,458
894.368835,462
894.485291,465
894.601868,466
894.718384,459
894.8349,466
894.951355,474
895.067932,466
895.184448,444
895.300964,457
895.417419,465
895.533936,464
895.650452,450
895.766907,464
895.883423,472
895.999878,445
896.116333,470
896.232849,471
896.349304,456
896.465759,485
896.582214,462
896.698669,450
896.815125,464
896.931641,435
897.048035,470
897.164551,446
897.280884,454
897.397339,460
897.513794,460
897.630249,480
897.746582,475
897.863098,461
897.979431,488
898.095886,458
898.212341,432
898.328674,466
898.445129,464
898.561462,464
898.677795,462
898.794312,456
898.910645,460
899.026978,448
899.143433,460
899.259766,461
899.37616,461
899.492493,457
899.608765,429
899.725159,466
899.841553,468
899.957947,453
900.07428,479
900.190552,471
900.306946,461
900.423157,459
900.53949,466
900.655884,452
900.772156,466
900.888489,456
901.004822,449
901.121033,453
901.237366,444
901.353699,445
901.46991,465
901.586304,461
901.702515,462
901.818787,463
901.93512,457
902.051331,452
902.167603,464
902.283875,465
902.400085,468
902.516418,464
902.632629,470
902.74884,443
902.865112,469
902.981384,472
903.097595,457
903.213867,470
903.330017,458
903.446289,479
903.5625,450
903.67865,472
903.794922,484
903.911072,475
904.027344,441
904.143494,463
904.259705,478
904.375916,450
904.492065,462
904.608215,464
904.724426,455
904.840576,473
904.956726,457
905.072876,485
905.189087,468
905.305176,475
905.421387,467
905.537537,474
905.653687,460
905.769775,469
905.885925,480
906.002014,479
906.118164,460
906.234314,460
906.350403,473
906.466492,454
906.582642,483
906.69873,450
906.814758,465
906.930908,480
907.046936,452
907.163086,479
907.279175,473
907.395264,442
907.511353,474
907.62738,464
907.743408,478
907.859497,460
907.975525,454
908.091553,463
908.207703,468
908.32373,457
908.439758,465
908.555786,456
908.671814,457
908.787842,468
908.90387,451
909.019775,458
909.135864,464
909.251892,474
909.367859,475
909.483826,483
909.599854,478
909.715881,462
909.831848,464
909.947815,448
910.063782,486
910.179749,474
910.295776,464
910.411743,462
910.527649,510
910.643616,452
910.759583,463
910.875488,459
910.991455,457
911.107361,458
911.223267,468
911.339294,462
911.4552,463
911.571106,471
911.687073,464
911.802979,457
911.918823,476
912.034729,445
912.150635,475
912.266602,467
912.382446,459
912.498352,463
912.614197,470
912.730103,470
912.846008,468
