792.44574,765
792.56488,769
792.68396,806
792.80304,802
792.92218,720
793.041199,716
793.160339,720
793.279419,679
793.398499,676
793.517578,663
793.636658,697
793.755737,673
793.874817,686
793.993896,674
794.112976,652
794.232056,648
794.351074,658
794.470215,628
794.589233,636
794.708313,630
794.827393,640
794.946411,621
795.065552,653
795.18457,619
795.303589,649
795.422668,597
795.541687,609
795.660767,614
795.779846,611
795.898865,615
796.017883,605
796.136963,570
796.255981,576
796.375061,592
796.49408,582
796.613037,600
796.732117,576
796.851135,586
796.970154,564
797.089233,570
797.208191,586
797.327271,561
797.446228,582
797.565186,566
797.684265,578
797.803223,576
797.922241,551
798.04126,563
798.160278,573
798.279297,552
798.398315,573
798.517273,563
798.636292,548
798.75531,569
798.874268,558
798.993286,544
799.112244,545
799.231323,549
799.350281,574
799.469238,532
799.588257,563
799.707153,560
799.826111,554
799.945129,535
800.064087,538
800.183044,567
800.302063,560
800.421021,541
800.539978,545
800.658936,529
800.777893,557
800.896912,521
801.015747,553
801.134705,553
801.253723,539
801.37262,536
801.491638,522
801.610535,531
801.729492,532
801.84845,511
801.967407,553
802.086243,537
802.205261,548
802.324158,533
802.443115,527
802.562073,531
802.680969,528
802.799927,558
802.918762,527
803.037659,523
803.156677,519
803.275574,545
803.39447,543
803.513428,529
803.632263,535
803.751221,492
803.870117,551
803.989014,516
804.107971,519
804.226746,536
804.345642,509
804.4646,518
804.583496,514
804.702393,517
804.821228,528
804.940125,532
805.059021,522
805.177917,522
805.296814,567
805.415649,512
805.534546,531
805.653442,518
805.772278,514
805.891113,552
806.01001,504
806.128906,516
806.247742,526
806.366577,528
806.485413,497
806.604309,512
806.723145,514
806.84198,519
806.960876,536
807.079712,519
807.198486,524
807.317383,534
807.436218,522
807.554993,522
807.673889,526
807.792725,507
807.91156,542
808.030396,529
808.14917,515
808.268005,509
808.386841,522
808.505676,516
808.624451,506
808.743286,499
808.862122,510
808.980896,518
809.099731,524
809.218506,525
809.337341,509
809.456116,522
809.57489,514
809.693726,504
809.8125,526
809.931274,507
810.050049,512
810.168884,533
810.287659,533
810.406372,502
810.525269,525
810.643982,515
810.762756,505
810.881531,511
811.000305,540
811.11908,533
811.237854,518
811.356567,512
811.475403,525
811.594116,511
811.71283,529
811.831604,519
811.950378,521
812.069153,536
812.187927,542
812.30658,518
812.425415,524
812.544128,511
812.662781,527
812.781616,529
812.900269,523
813.019043,530
813.137756,514
813.256531,522
813.375244,515
813.493896,518
813.612671,504
813.731384,508
813.850037,539
813.96875,518
814.087524,503
814.206238,502
814.324951,508
814.443604,495
814.562256,526
814.68103,532
814.799683,514
814.918335,497
815.037109,540
815.155762,528
815.274475,524
815.393188,516
815.511841,537
815.630554,497
815.749146,514
815.867859,498
815.986572,519
816.105164,500
816.223877,509
816.342529,486
816.461182,507
816.579895,514
816.698486,521
816.817139,496
816.935791,503
817.054504,506
817.173096,525
817.291748,513
817.4104,511
817.529053,503
817.647644,489
817.766235,497
817.884949,499
818.00354,493
818.122192,504
818.240845,493
818.359436,492
818.478088,501
818.59668,484
818.715271,483
818.833923,480
818.952515,485
819.071106,486
819.189758,493
819.30835,506
819.426941,477
819.545532,507
819.664124,464
819.782715,508
819.901306,476
820.019897,487
820.138489,485
820.25708,489
820.375671,488
820.494202,514
820.612732,486
820.731384,481
820.849915,478
820.968506,489
821.087097,453
821.205627,480
821.324158,453
821.442749,473
821.561279,460
821.679871,483
821.798401,480
821.916931,483
822.035461,478
822.154053,485
822.272583,485
822.391174,501
822.509583,479
822.628174,473
822.746704,472
822.865234,470
822.983765,486
823.102295,482
823.220825,470
823.339294,475
823.457825,459
823.576355,500
823.694824,473
823.813354,487
823.931885,471
824.050354,462
824.168884,470
824.287354,468
824.405823,470
824.524353,491
824.642822,453
824.761353,492
824.879822,471
824.998291,462
825.116699,475
825.235291,472
825.353699,447
825.472168,474
825.590637,464
825.709106,467
825.827576,454
825.946045,464
826.064453,476
826.182983,474
826.301392,453
826.4198,472
826.53833,445
826.656738,466
826.775208,448
826.893677,466
827.012024,462
827.130493,480
827.248962,443
827.36731,464
827.485779,475
827.604248,461
827.722595,462
827.841064,469
827.959412,465
828.077942,473
828.196289,476
828.314636,469
828.433105,477
828.551514,487
828.669861,476
828.78833,474
828.906677,474
829.025085,469
829.143433,454
829.261841,456
829.38031,483
829.498657,467
829.617004,457
829.735413,461
829.85376,449
829.972107,463
830.090515,453
830.208862,451
830.327209,439
830.445557,482
830.563904,447
830.682312,464
830.800659,460
830.919006,457
831.037354,461
831.155701,473
831.274048,489
831.392395,473
831.51062,444
831.629028,469
831.747314,468
831.865662,443
831.984009,467
832.102356,466
832.220642,487
832.338928,486
832.457275,458
832.575623,467
832.693909,468
832.812134,467
832.930481,474
833.048828,466
833.167114,479
833.2854,461
833.403687,458
833.521973,485
833.640259,459
833.758545,470
833.876831,478
833.995056,450
834.113281,463
834.231628,471
834.349915,461
834.468201,468
834.586426,447
834.704651,465
834.822998,459
834.941162,476
835.059448,450
835.177673,479
835.295959,462
835.414246,471
835.53241,455
835.650635,459
835.768921,448
835.887146,460
836.005371,456
836.123596,462
836.241821,470
836.360046,477
836.478271,464
836.596497,468
836.714722,449
836.832886,476
836.95105,461
837.069336,467
837.1875,464
837.305725,472
837.423889,479
837.542053,444
837.660339,470
837.778503,467
837.896667,451
838.014832,463
838.132996,448
838.25116,452
838.369385,474
838.487488,473
838.605713,469
838.723877,458
838.84198,472
838.960205,450
839.078308,457
839.196472,485
839.314636,473
839.4328,484
839.550964,447
839.669067,483
839.787231,457
839.905396,472
840.023499,485
840.141602,462
840.259766,488
840.377869,484
840.495972,494
840.614136,447
840.732239,475
840.850342,486
840.968445,478
841.086548,473
841.204651,476
841.322754,479
841.440918,475
841.55896,479
841.677002,473
841.795166,487
841.913208,476
842.031311,482
842.149353,471
842.267456,490
842.385498,470
842.503601,476
842.621643,456
842.739746,487
842.857788,466
842.97583,484
843.093933,475
843.211975,478
843.330017,483
843.44812,485
843.566101,472
843.684204,465
843.802246,479
843.920227,487
844.038269,485
844.156311,480
844.274292,472
844.392395,506
844.510376,459
844.628357,457
844.74646,473
844.864441,477
844.982422,489
845.100403,502
845.218384,476
845.336426,492
845.454468,471
845.572449,495
845.69043,456
845.808411,492
845.926453,471
846.044373,472
846.162354,489
846.280396,462
846.398315,472
846.516296,492
846.634216,477
846.752197,470
846.870178,474
846.988098,497
847.106079,481
847.22406,478
847.34198,463
847.4599,475
847.577881,465
847.695801,495
847.813782,467
847.931641,513
848.049561,467
848.167603,484
848.285461,462
848.403381,482
848.521362,476
848.639221,461
848.75708,496
848.875,495
848.99292,477
849.110901,475
849.22876,486
849.34668,495
849.464539,493
849.582458,471
849.700317,481
849.818176,480
849.936096,479
850.053955,471
850.171875,474
850.289673,464
850.407593,487
850.525452,467
850.643311,492
850.761169,471
850.878967,474
850.996887,469
851.114746,491
851.232544,493
851.350403,476
851.468262,449
851.58606,476
851.703979,481
851.821777,483
851.939636,483
852.057434,458
852.175232,480
852.293091,479
852.410889,486
852.528687,481
852.646545,502
852.764343,473
852.88208,484
852.999939,489
853.117676,479
853.235535,482
853.353271,484
853.471069,459
853.588928,472
853.706604,471
853.824402,478
853.9422,482
854.059998,491
854.177734,475
854.295532,467
854.413269,490
854.531006,484
854.648804,467
854.766541,481
854.884277,456
855.002014,476
855.119751,479
855.237549,482
855.355225,470
855.473022,484
855.590698,475
855.708435,469
855.826172,459
855.943848,476
856.061646,487
856.179321,501
856.296997,462
856.414795,492
856.53241,488
856.650085,488
856.767822,477
856.885559,488
857.003174,476
857.120911,496
857.238586,467
857.356201,500
857.473938,464
857.591614,500
857.709351,467
857.826965,475
857.944641,464
858.062317,500
858.179993,479
858.297668,495
858.415283,472
858.532959,481
858.650574,475
858.768188,487
858.885803,465
859.003479,493
859.121094,488
859.23877,490
859.356384,472
859.473999,488
859.591675,476
859.709229,479
859.826843,471
859.944458,475
860.062012,470
860.179626,470
860.297302,468
860.414856,454
860.532471,487
860.650024,485
860.767639,474
860.885193,459
861.002808,487
861.120361,480
861.237976,477
861.35553,481
861.473022,485
861.590698,471
861.708191,481
861.825745,459
861.943298,456
862.060852,482
862.178406,468
862.295959,452
862.413513,458
862.531006,463
862.64856,471
862.766113,484
862.883667,460
863.00116,466
863.118713,471
863.236206,481
863.353699,489
863.471252,467
863.588745,468
863.706177,469
863.82373,456
863.941162,477
864.058716,472
864.176208,479
864.29364,479
864.411194,486
864.528687,464
864.646118,456
864.763611,479
864.881042,469
864.998535,478
865.116028,463
865.233459,461
865.350891,462
865.468384,476
865.585754,471
865.703308,462
865.820679,468
865.938171,471
866.055542,453
866.173035,469
866.290466,478
866.407837,460
866.52533,472
866.6427,469
866.760071,477
866.877563,457
866.994934,467
867.112305,453
867.229736,475
867.347107,471
867.464539,478
867.58197,471
867.699341,481
867.81665,481
867.934082,490
868.051453,499
868.168823,467
868.286194,478
868.403564,477
868.520935,443
868.638306,477
868.755676,487
868.872986,489
868.990295,486
869.107727,487
869.225037,463
869.342346,513
869.459717,475
869.577026,485
869.694336,478
869.811707,491
869.929016,479
870.046326,481
870.163635,476
870.280945,494
870.398254,468
870.515564,482
870.632812,487
870.750183,470
870.867432,485
870.984741,515
871.102051,486
871.219299,498
871.336609,479
871.453918,498
871.571106,500
871.688416,482
871.805664,498
871.922852,501
872.040222,516
872.157471,511
872.274719,489
872.391968,498
872.509155,479
872.626465,479
872.743652,499
872.860962,504
872.978149,487
873.095337,482
873.212646,475
873.329834,485
873.44696,476
873.564209,479
873.681396,479
873.798645,498
873.915894,483
874.03302,492
874.150208,488
874.267456,484
874.384583,494
874.501831,505
874.618958,496
874.736145,496
874.853333,479
874.970459,500
875.087646,480
875.204834,510
875.32196,504
875.439148,476
875.556274,492
875.673401,502
875.790527,486
875.907715,496
876.024841,496
876.141968,472
876.259094,480
876.376282,490
876.493347,471
876.610474,478
876.7276,490
876.844727,483
876.961853,489
877.078918,478
877.195984,487
877.313171,477
877.430237,481
877.547302,495
877.664368,479
877.781433,479
877.898499,480
878.015625,475
878.13269,471
878.249695,471
878.366821,486
878.483887,478
878.600952,472
878.717957,478
878.834961,477
878.952087,480
879.069092,463
879.186157,462
879.303162,464
879.420227,495
879.537231,466
879.654236,456
879.77124,486
879.888306,495
880.005249,468
880.122314,496
880.239319,481
880.356323,491
880.473328,470
880.590271,464
880.707275,451
880.824341,464
880.941284,473
881.058228,464
881.175232,488
881.292236,465
881.40918,464
881.526123,472
881.643066,482
881.760071,483
881.877014,459
881.993958,462
882.11084,449
882.227783,488
882.344727,479
882.46167,469
882.578613,482
882.695618,455
882.812439,466
882.929382,473
883.046326,445
883.163208,462
883.280151,437
883.397034,471
883.513916,462
883.630798,466
883.747742,469
883.864563,468
883.981506,491
884.098389,463
884.21521,472
884.332153,489
884.448975,484
884.565796,491
884.682678,492
884.7995,481
884.916443,505
885.033264,512
885.150085,534
885.266968,503
885.383789,531
885.500671,530
885.617493,544
885.734314,522
885.851196,521
885.967896,511
886.084717,525
886.201599,515
886.318359,494
886.435181,512
886.552002,501
886.668762,502
886.785645,512
886.902344,512
887.019165,502
887.135925,489
887.252747,495
887.369446,516
887.486267,501
887.603027,474
887.719788,477
887.836548,481
887.953247,494
888.070068,469
888.186829,501
888.303528,468
888.420288,489
888.536987,462
888.653687,461
888.770447,471
888.887146,451
889.003967,482
889.120667,458
889.237305,480
889.354065,468
889.470703,480
889.587463,463
889.704163,477
889.820862,471
889.937561,465
890.054199,461
890.170837,462
890.287598,461
890.404236,468
890.520874,467
890.637634,460
890.754211,456
890.87085,456
890.987549,472
891.104187,458
891.220886,449
891.337463,466
891.454102,457
891.57074,465
891.687378,471
891.804077,487
891.920654,458
892.037231,472
892.15387,456
892.270447,481
892.387085,467
892.503723,470
892.6203,480
892.736877,474
892.853516,453
892.970032,469
893.08667,473
893.203186,470
893.319763,469
893.43634,460
893.552917,487
893.669556,482
893.786011,456
893.902588,483
894.019165,462
894.135681,481
894.252197,449
894.368835,470
894.485291,477
894.601868,476
894.718384,466
894.8349,486
894.951355,470
895.067932,467
895.184448,477
895.300964,479
895.417419,466
895.533936,481
895.650452,462
895.766907,462
895.883423,452
895.999878,466
896.116333,475
896.232849,490
896.349304,473
896.465759,450
896.582214,449
896.698669,476
896.815125,455
896.931641,474
897.048035,455
897.164551,486
897.280884,463
897.397339,464
897.513794,471
897.630249,489
897.746582,474
897.863098,471
897.979431,470
898.095886,488
898.212341,451
898.328674,479
898.445129,474
898.561462,472
898.677795,496
898.794312,465
898.910645,455
899.026978,434
899.143433,457
899.259766,470
899.37616,457
899.492493,446
899.608765,482
899.725159,477
899.841553,488
899.957947,482
900.07428,455
900.190552,475
900.306946,454
900.423157,470
900.53949,459
900.655884,485
900.772156,470
900.888489,476
901.004822,475
901.121033,468
901.237366,464
901.353699,480
901.46991,466
901.586304,476
901.702515,476
901.818787,480
901.93512,484
902.051331,489
902.167603,472
902.283875,476
902.400085,486
902.516418,492
902.632629,496
902.74884,485
902.865112,481
902.981384,515
903.097595,497
903.213867,525
903.330017,507
903.446289,485
903.5625,505
903.67865,487
903.794922,480
903.911072,498
904.027344,491
904.143494,486
904.259705,468
904.375916,502
904.492065,488
904.608215,464
904.724426,467
904.840576,465
904.956726,486
905.072876,457
905.189087,474
905.305176,491
905.421387,463
905.537537,469
905.653687,458
905.769775,458
905.885925,470
906.002014,482
906.118164,472
906.234314,462
906.350403,450
906.466492,482
906.582642,452
906.69873,465
906.814758,461
906.930908,473
907.046936,462
907.163086,478
907.279175,465
907.395264,468
907.511353,458
907.62738,496
907.743408,477
907.859497,482
907.975525,473
908.091553,473
908.207703,458
908.32373,481
908.439758,465
908.555786,482
908.671814,464
908.787842,481
908.90387,456
909.019775,463
909.135864,480
909.251892,473
909.367859,459
909.483826,481
909.599854,465
909.715881,484
909.831848,480
909.947815,477
910.063782,465
910.179749,457
910.295776,464
910.411743,471
910.527649,472
910.643616,492
910.759583,482
910.875488,469
910.991455,490
911.107361,468
911.223267,483
911.339294,483
911.4552,470
911.571106,469
911.687073,481
911.802979,472
911.918823,461
912.034729,470
912.150635,482
912.266602,487
912.382446,457
912.498352,480
912.614197,466
912.730103,473
912.846008,469
792.44574,798
792.56488,786
792.68396,827
792.80304,789
792.92218,730
793.041199,717
793.160339,715
793.279419,704
793.398499,727
793.517578,664
793.636658,654
793.755737,675
793.874817,685
793.993896,697
794.112976,674
794.232056,654
794.351074,647
794.470215,643
794.589233,662
794.708313,620
794.827393,653
794.946411,615
795.065552,632
795.18457,625
795.303589,632
795.422668,595
795.541687,598
795.660767,622
795.779846,602
795.898865,612
796.017883,592
796.136963,583
796.255981,602
796.375061,605
796.49408,579
796.613037,583
796.732117,598
796.851135,568
796.970154,587
797.089233,581
797.208191,568
797.327271,588
797.446228,582
797.565186,545
797.684265,563
797.803223,572
797.922241,557
798.04126,587
798.160278,560
798.279297,561
798.398315,573
798.517273,543
798.636292,547
798.75531,572
798.874268,554
798.993286,531
799.112244,566
799.231323,571
799.350281,562
799.469238,564
799.588257,561
799.707153,540
799.826111,562
799.945129,548
800.064087,565
800.183044,561
800.302063,560
800.421021,550
800.539978,556
800.658936,551
800.777893,560
800.896912,560
801.015747,565
801.134705,546
801.253723,546
801.37262,548
801.491638,530
801.610535,532
801.729492,532
801.84845,522
801.967407,521
802.086243,527
802.205261,535
802.324158,541
802.443115,552
802.562073,556
802.680969,539
802.799927,522
802.918762,526
803.037659,524
803.156677,565
803.275574,549
803.39447,519
803.513428,533
803.632263,534
803.751221,530
803.870117,535
803.989014,512
804.107971,509
804.226746,530
804.345642,512
804.4646,502
804.583496,528
804.702393,515
804.821228,542
804.940125,531
805.059021,523
805.177917,518
805.296814,516
805.415649,521
805.534546,519
805.653442,532
805.772278,505
805.891113,517
806.01001,531
806.128906,535
806.247742,522
806.366577,532
806.485413,523
806.604309,526
806.723145,530
806.84198,519
806.960876,509
807.079712,511
807.198486,504
807.317383,533
807.436218,521
807.554993,518
807.673889,525
807.792725,530
807.91156,527
808.030396,510
808.14917,520
808.268005,523
808.386841,527
808.505676,531
808.624451,512
808.743286,523
808.862122,520
808.980896,505
809.099731,518
809.218506,518
809.337341,540
809.456116,523
809.57489,518
809.693726,516
809.8125,510
809.931274,536
810.050049,508
810.168884,529
810.287659,531
810.406372,502
810.525269,512
810.643982,513
810.762756,517
810.881531,513
811.000305,523
811.11908,546
811.237854,523
811.356567,520
811.475403,517
811.594116,522
811.71283,514
811.831604,520
811.950378,527
812.069153,525
812.187927,538
812.30658,510
812.425415,542
812.544128,523
812.662781,513
812.781616,527
812.900269,541
813.019043,517
813.137756,515
813.256531,514
813.375244,522
813.493896,543
813.612671,526
813.731384,496
813.850037,528
813.96875,512
814.087524,522
814.206238,516
814.324951,529
814.443604,506
814.562256,513
814.68103,509
814.799683,517
814.918335,529
815.037109,519
815.155762,512
815.274475,520
815.393188,504
815.511841,507
815.630554,524
815.749146,520
815.867859,518
815.986572,524
816.105164,501
816.223877,510
816.342529,502
816.461182,515
816.579895,507
816.698486,525
816.817139,512
816.935791,498
817.054504,517
817.173096,524
817.291748,495
817.4104,495
817.529053,492
817.647644,510
817.766235,492
817.884949,487
818.00354,485
818.122192,492
818.240845,491
818.359436,488
818.478088,479
818.59668,494
818.715271,498
818.833923,507
818.952515,492
819.071106,493
819.189758,476
819.30835,498
819.426941,495
819.545532,494
819.664124,482
819.782715,483
819.901306,494
820.019897,504
820.138489,486
820.25708,478
820.375671,474
820.494202,491
820.612732,485
820.731384,451
820.849915,496
820.968506,478
821.087097,448
821.205627,508
821.324158,480
821.442749,472
821.561279,472
821.679871,482
821.798401,489
821.916931,473
822.035461,466
822.154053,476
822.272583,480
822.391174,485
822.509583,469
822.628174,471
822.746704,461
822.865234,468
822.983765,465
823.102295,468
823.220825,460
823.339294,484
823.457825,484
823.576355,513
823.694824,466
823.813354,485
823.931885,458
824.050354,472
824.168884,471
824.287354,476
824.405823,465
824.524353,497
824.642822,472
824.761353,484
824.879822,473
824.998291,483
825.116699,487
825.235291,477
825.353699,470
825.472168,452
825.590637,464
825.709106,450
825.827576,468
825.946045,465
826.064453,466
826.182983,464
826.301392,462
826.4198,475
826.53833,466
826.656738,480
826.775208,483
826.893677,474
827.012024,464
827.130493,470
827.248962,460
827.36731,457
827.485779,467
827.604248,465
827.722595,459
827.841064,483
827.959412,476
828.077942,462
828.196289,459
828.314636,459
828.433105,465
828.551514,458
828.669861,445
828.78833,482
828.906677,448
829.025085,468
829.143433,460
829.261841,465
829.38031,459
829.498657,450
829.617004,462
829.735413,477
829.85376,464
829.972107,479
830.090515,451
830.208862,470
830.327209,458
830.445557,452
830.563904,454
830.682312,470
830.800659,451
830.919006,460
831.037354,483
831.155701,481
831.274048,473
831.392395,460
831.51062,478
831.629028,488
831.747314,472
831.865662,474
831.984009,473
832.102356,468
832.220642,457
832.338928,480
832.457275,476
832.575623,497
832.693909,453
832.812134,477
832.930481,473
833.048828,472
833.167114,478
833.2854,477
833.403687,472
833.521973,468
833.640259,479
833.758545,481
833.876831,466
833.995056,463
834.113281,460
834.231628,455
834.349915,447
834.468201,476
834.586426,461
834.704651,459
834.822998,469
834.941162,460
835.059448,459
835.177673,483
835.295959,467
835.414246,482
835.53241,458
835.650635,488
835.768921,471
835.887146,469
836.005371,468
836.123596,460
836.241821,462
836.360046,472
836.478271,459
836.596497,473
836.714722,459
836.832886,457
836.95105,460
837.069336,487
837.1875,464
837.305725,466
837.423889,445
837.542053,472
837.660339,462
837.778503,459
837.896667,475
838.014832,458
838.132996,480
838.25116,470
838.369385,456
838.487488,487
838.605713,469
838.723877,479
838.84198,463
838.960205,486
839.078308,483
839.196472,470
839.314636,454
839.4328,473
839.550964,481
839.669067,467
839.787231,468
839.905396,475
840.023499,473
840.141602,484
840.259766,457
840.377869,480
840.495972,508
840.614136,499
840.732239,484
840.850342,470
840.968445,490
841.086548,502
841.204651,470
841.322754,483
841.440918,460
841.55896,499
841.677002,484
841.795166,488
841.913208,482
842.031311,523
842.149353,475
842.267456,490
842.385498,488
842.503601,486
842.621643,472
842.739746,497
842.857788,497
842.97583,492
843.093933,470
843.211975,507
843.330017,464
843.44812,478
843.566101,484
843.684204,482
843.802246,496
843.920227,492
844.038269,489
844.156311,490
844.274292,479
844.392395,494
844.510376,460
844.628357,488
844.74646,475
844.864441,491
844.982422,471
845.100403,494
845.218384,466
845.336426,465
845.454468,470
845.572449,493
845.69043,476
845.808411,471
845.926453,475
846.044373,459
846.162354,484
846.280396,486
846.398315,468
846.516296,479
846.634216,471
846.752197,460
846.870178,474
846.988098,474
847.106079,479
847.22406,469
847.34198,491
847.4599,471
847.577881,469
847.695801,468
847.813782,459
847.931641,484
848.049561,464
848.167603,483
848.285461,467
848.403381,506
848.521362,479
848.639221,487
848.75708,482
848.875,486
848.99292,488
849.110901,481
849.22876,484
849.34668,462
849.464539,499
849.582458,490
849.700317,493
849.818176,481
849.936096,481
850.053955,476
850.171875,471
850.289673,501
850.407593,471
850.525452,486
850.643311,473
850.761169,483
850.878967,467
850.996887,491
851.114746,462
851.232544,486
851.350403,461
851.468262,484
851.58606,483
851.703979,476
851.821777,487
851.939636,487
852.057434,482
852.175232,485
852.293091,456
852.410889,483
852.528687,504
852.646545,476
852.764343,478
852.88208,490
852.999939,491
853.117676,486
853.235535,494
853.353271,486
853.471069,469
853.588928,486
853.706604,477
853.824402,488
853.9422,470
854.059998,480
854.177734,471
854.295532,491
854.413269,476
854.531006,487
854.648804,490
854.766541,499
854.884277,447
855.002014,488
855.119751,454
855.237549,463
855.355225,469
855.473022,490
855.590698,482
855.708435,477
855.826172,472
855.943848,463
856.061646,483
856.179321,478
856.296997,483
856.414795,502
856.53241,481
856.650085,480
856.767822,484
856.885559,492
857.003174,481
857.120911,490
857.238586,467
857.356201,471
857.473938,486
857.591614,476
857.709351,465
857.826965,481
857.944641,488
858.062317,497
858.179993,476
858.297668,504
858.415283,494
858.532959,486
858.650574,498
858.768188,492
858.885803,486
859.003479,496
859.121094,494
859.23877,485
859.356384,474
859.473999,476
859.591675,481
859.709229,471
859.826843,492
859.944458,473
860.062012,472
860.179626,487
860.297302,481
860.414856,471
860.532471,472
860.650024,493
860.767639,458
860.885193,487
861.002808,446
861.120361,479
861.237976,470
861.35553,477
861.473022,471
861.590698,488
861.708191,472
861.825745,460
861.943298,487
862.060852,482
862.178406,484
862.295959,474
862.413513,446
862.531006,490
862.64856,476
862.766113,486
862.883667,456
863.00116,458
863.118713,441
863.236206,470
863.353699,488
863.471252,477
863.588745,469
863.706177,510
863.82373,474
863.941162,475
864.058716,470
864.176208,476
864.29364,467
864.411194,453
864.528687,470
864.646118,473
864.763611,465
864.881042,477
864.998535,483
865.116028,487
865.233459,455
865.350891,462
865.468384,492
865.585754,465
865.703308,457
865.820679,475
865.938171,476
866.055542,477
866.173035,453
866.290466,473
866.407837,474
866.52533,460
866.6427,458
866.760071,496
866.877563,467
866.994934,470
867.112305,460
867.229736,471
867.347107,477
867.464539,471
867.58197,491
867.699341,458
867.81665,483
867.934082,486
868.051453,462
868.168823,470
868.286194,459
868.403564,470
868.520935,480
868.638306,453
868.755676,485
868.872986,474
868.990295,488
869.107727,475
869.225037,474
869.342346,494
869.459717,484
869.577026,502
869.694336,458
869.811707,479
869.929016,459
870.046326,473
870.163635,471
870.280945,497
870.398254,497
870.515564,479
870.632812,481
870.750183,491
870.867432,492
870.984741,481
871.102051,477
871.219299,483
871.336609,502
871.453918,491
871.571106,472
871.688416,493
871.805664,480
871.922852,512
872.040222,482
872.157471,505
872.274719,496
872.391968,495
872.509155,490
872.626465,488
872.743652,502
872.860962,475
872.978149,484
873.095337,494
873.212646,481
873.329834,495
873.44696,497
873.564209,493
873.681396,502
873.798645,497
873.915894,486
874.03302,492
874.150208,494
874.267456,500
874.384583,490
874.501831,495
874.618958,501
874.736145,497
874.853333,491
874.970459,502
875.087646,506
875.204834,501
875.32196,496
875.439148,471
875.556274,498
875.673401,477
875.790527,486
875.907715,490
876.024841,469
876.141968,501
876.259094,475
876.376282,498
876.493347,477
876.610474,467
876.7276,469
876.844727,459
876.961853,479
877.078918,495
877.195984,478
877.313171,487
877.430237,476
877.547302,465
877.664368,481
877.781433,469
877.898499,493
878.015625,478
878.13269,458
878.249695,480
878.366821,484
878.483887,479
878.600952,471
878.717957,480
878.834961,468
878.952087,473
879.069092,470
879.186157,466
879.303162,477
879.420227,478
879.537231,477
879.654236,455
879.77124,457
879.888306,491
880.005249,467
880.122314,489
880.239319,473
880.356323,482
880.473328,477
880.590271,473
880.707275,473
880.824341,454
880.941284,460
881.058228,476
881.175232,485
881.292236,465
881.40918,465
881.526123,469
881.643066,469
881.760071,478
881.877014,472
881.993958,450
882.11084,470
882.227783,461
882.344727,466
882.46167,462
882.578613,473
882.695618,477
882.812439,495
882.929382,461
883.046326,474
883.163208,472
883.280151,467
883.397034,474
883.513916,467
883.630798,481
883.747742,490
883.864563,461
883.981506,459
884.098389,472
884.21521,471
884.332153,490
884.448975,495
884.565796,501
884.682678,503
884.7995,492
884.916443,485
885.033264,496
885.150085,515
885.266968,525
885.383789,533
885.500671,518
885.617493,514
885.734314,503
885.851196,499
885.967896,530
886.084717,528
886.201599,530
886.318359,546
886.435181,506
886.552002,536
886.668762,487
886.785645,522
886.902344,505
887.019165,505
887.135925,498
887.252747,499
887.369446,497
887.486267,491
887.603027,488
887.719788,478
887.836548,502
887.953247,485
888.070068,496
888.186829,475
888.303528,486
888.420288,495
888.536987,495
888.653687,466
888.770447,480
888.887146,465
889.003967,463
889.120667,476
889.237305,482
889.354065,472
889.470703,470
889.587463,487
889.704163,454
889.820862,477
889.937561,473
890.054199,466
890.170837,493
890.287598,448
890.404236,477
890.520874,454
890.637634,458
890.754211,465
890.87085,463
890.987549,492
891.104187,485
891.220886,472
891.337463,468
891.454102,455
891.57074,490
891.687378,457
891.804077,478
891.920654,462
892.037231,481
892.15387,477
892.270447,498
892.387085,481
892.503723,476
892.6203,466
892.736877,483
892.853516,479
892.970032,484
893.08667,471
893.203186,449
893.319763,469
893.43634,468
893.552917,470
893.669556,467
893.786011,460
893.902588,471
894.019165,468
894.135681,462
894.252197,471
894.368835,494
894.485291,477
894.601868,477
894.718384,465
894.8349,459
894.951355,462
895.067932,477
895.184448,472
895.300964,492
895.417419,474
895.533936,478
895.650452,445
895.766907,485
895.883423,459
895.999878,498
896.116333,475
896.232849,446
896.349304,468
896.465759,464
896.582214,463
896.698669,468
896.815125,466
896.931641,492
897.048035,465
897.164551,467
897.280884,470
897.397339,461
897.513794,473
897.630249,472
897.746582,481
897.863098,489
897.979431,478
898.095886,453
898.212341,469
898.328674,470
898.445129,478
898.561462,476
898.677795,474
898.794312,486
898.910645,443
899.026978,476
899.143433,469
899.259766,478
899.37616,472
899.492493,469
899.608765,470
899.725159,474
899.841553,467
899.957947,480
900.07428,473
900.190552,462
900.306946,486
900.423157,462
900.53949,485
900.655884,484
900.772156,479
900.888489,477
901.004822,458
901.121033,496
901.237366,468
901.353699,464
901.46991,504
901.586304,475
901.702515,472
901.818787,477
901.93512,493
902.051331,481
902.167603,507
902.283875,502
902.400085,497
902.516418,501
902.632629,492
902.74884,504
902.865112,510
902.981384,524
903.097595,477
903.213867,499
903.330017,503
903.446289,488
903.5625,489
903.67865,491
903.794922,473
903.911072,503
904.027344,494
904.143494,505
904.259705,468
904.375916,470
904.492065,459
904.608215,489
904.724426,473
904.840576,472
904.956726,455
905.072876,480
905.189087,478
905.305176,485
905.421387,459
905.537537,481
905.653687,469
905.769775,499
905.885925,473
906.002014,477
906.118164,471
906.234314,476
906.350403,478
906.466492,471
906.582642,462
906.69873,485
906.814758,475
906.930908,463
907.046936,446
907.163086,467
907.279175,471
907.395264,469
907.511353,478
907.62738,481
907.743408,463
907.859497,478
907.975525,492
908.091553,468
908.207703,455
908.32373,464
908.439758,463
908.555786,472
908.671814,478
908.787842,479
908.90387,470
909.019775,470
909.135864,458
909.251892,467
909.367859,477
909.483826,497
909.599854,482
909.715881,478
909.831848,485
909.947815,475
910.063782,490
910.179749,489
910.295776,475
910.411743,473
910.527649,476
910.643616,481
910.759583,468
910.875488,483
910.991455,449
911.107361,471
911.223267,449
911.339294,479
911.4552,469
911.571106,475
911.687073,476
911.802979,464
911.918823,481
912.034729,483
912.150635,474
912.266602,514
912.382446,465
912.498352,469
912.614197,458
912.730103,479
912.846008,463
792.44574,750
792.56488,824
792.68396,815
792.80304,790
792.92218,740
793.041199,723
793.160339,686
793.279419,710
793.398499,704
793.517578,711
793.636658,694
793.755737,694
793.874817,684
793.993896,668
794.112976,666
794.232056,658
794.351074,637
794.470215,656
794.589233,641
794.708313,636
794.827393,624
794.946411,630
795.065552,630
795.18457,632
795.303589,617
795.422668,625
795.541687,611
795.660767,611
795.779846,595
795.898865,606
796.017883,596
796.136963,590
796.255981,602
796.375061,588
796.49408,617
796.613037,587
796.732117,598
796.851135,587
796.970154,570
797.089233,600
797.208191,565
797.327271,566
797.446228,562
797.565186,569
797.684265,575
797.803223,572
797.922241,565
798.04126,550
798.160278,557
798.279297,561
798.398315,570
798.517273,543
798.636292,554
798.75531,571
798.874268,568
798.993286,559
799.112244,560
799.231323,547
799.350281,570
799.469238,548
799.588257,567
799.707153,551
799.826111,551
799.945129,544
800.064087,514
800.183044,554
800.302063,563
800.421021,519
800.539978,554
800.658936,554
800.777893,551
800.896912,536
801.015747,556
801.134705,562
801.253723,539
801.37262,549
801.491638,527
801.610535,527
801.729492,542
801.84845,515
801.967407,514
802.086243,529
802.205261,522
802.324158,557
802.443115,555
802.562073,536
802.680969,558
802.799927,522
802.918762,531
803.037659,543
803.156677,542
803.275574,537
803.39447,519
803.513428,535
803.632263,530
803.751221,539
803.870117,518
803.989014,538
804.107971,522
804.226746,533
804.345642,551
804.4646,559
804.583496,545
804.702393,519
804.821228,521
804.940125,520
805.059021,497
805.177917,535
805.296814,521
805.415649,513
805.534546,522
805.653442,519
805.772278,535
805.891113,550
806.01001,524
806.128906,521
806.247742,518
806.366577,523
806.485413,543
806.604309,534
806.723145,522
806.84198,522
806.960876,508
807.079712,517
807.198486,516
807.317383,516
807.436218,528
807.554993,520
807.673889,522
807.792725,517
807.91156,519
808.030396,528
808.14917,509
808.268005,516
808.386841,521
808.505676,534
808.624451,528
808.743286,505
808.862122,526
808.980896,515
809.099731,534
809.218506,521
809.337341,515
809.456116,522
809.57489,523
809.693726,531
809.8125,506
809.931274,510
810.050049,523
810.168884,516
810.287659,542
810.406372,516
810.525269,496
810.643982,532
810.762756,523
810.881531,529
811.000305,528
811.11908,524
811.237854,506
811.356567,541
811.475403,510
811.594116,509
811.71283,537
811.831604,512
811.950378,497
812.069153,531
812.187927,523
812.30658,544
812.425415,523
812.544128,526
812.662781,519
812.781616,508
812.900269,507
813.019043,516
813.137756,521
813.256531,534
813.375244,506
813.493896,525
813.612671,531
813.731384,505
813.850037,514
813.96875,522
814.087524,505
814.206238,524
814.324951,531
814.443604,527
814.562256,540
814.68103,492
814.799683,542
814.918335,516
815.037109,506
815.155762,520
815.274475,495
815.393188,517
815.511841,522
815.630554,516
815.749146,511
815.867859,517
815.986572,499
816.105164,503
816.223877,492
816.342529,531
816.461182,500
816.579895,493
816.698486,499
816.817139,539
816.935791,488
817.054504,518
817.173096,524
817.291748,516
817.4104,489
817.529053,503
817.647644,519
817.766235,510
817.884949,511
818.00354,505
818.122192,519
818.240845,488
818.359436,505
818.478088,516
818.59668,486
818.715271,487
818.833923,493
818.952515,488
819.071106,494
819.189758,488
819.30835,487
819.426941,487
819.545532,516
819.664124,481
819.782715,499
819.901306,476
820.019897,468
820.138489,501
820.25708,491
820.375671,472
820.494202,494
820.612732,487
820.731384,486
820.849915,484
820.968506,463
821.087097,486
821.205627,496
821.324158,475
821.442749,463
821.561279,499
821.679871,481
821.798401,489
821.916931,466
822.035461,466
822.154053,490
822.272583,484
822.391174,457
822.509583,471
822.628174,482
822.746704,479
822.865234,459
822.983765,475
823.102295,510
823.220825,480
823.339294,496
823.457825,472
823.576355,484
823.694824,488
823.813354,478
823.931885,494
824.050354,474
824.168884,467
824.287354,483
824.405823,491
824.524353,485
824.642822,491
824.761353,460
824.879822,481
824.998291,486
825.116699,474
825.235291,462
825.353699,479
825.472168,473
825.590637,472
825.709106,456
825.827576,470
825.946045,460
826.064453,475
826.182983,466
826.301392,475
826.4198,449
826.53833,466
826.656738,469
826.775208,480
826.893677,463
827.012024,478
827.130493,463
827.248962,471
827.36731,468
827.485779,475
827.604248,444
827.722595,480
827.841064,469
827.959412,475
828.077942,473
828.196289,452
828.314636,469
828.433105,477
828.551514,460
828.669861,480
828.78833,461
828.906677,471
829.025085,461
829.143433,470
829.261841,463
829.38031,455
829.498657,460
829.617004,473
829.735413,468
829.85376,475
829.972107,472
830.090515,462
830.208862,485
830.327209,459
830.445557,462
830.563904,460
830.682312,472
830.800659,463
830.919006,456
831.037354,470
831.155701,475
831.274048,489
831.392395,488
831.51062,470
831.629028,487
831.747314,476
831.865662,469
831.984009,463
832.102356,445
832.220642,461
832.338928,486
832.457275,480
832.575623,480
832.693909,475
832.812134,444
832.930481,468
833.048828,465
833.167114,477
833.2854,482
833.403687,477
833.521973,452
833.640259,470
833.758545,463
833.876831,480
833.995056,465
834.113281,465
834.231628,471
834.349915,487
834.468201,474
834.586426,475
834.704651,473
834.822998,475
834.941162,445
835.059448,495
835.177673,469
835.295959,467
835.414246,473
835.53241,472
835.650635,455
835.768921,475
835.887146,470
836.005371,481
836.123596,477
836.241821,470
836.360046,474
836.478271,479
836.596497,467
836.714722,464
836.832886,455
836.95105,468
837.069336,470
837.1875,445
837.305725,490
837.423889,467
837.542053,483
837.660339,459
837.778503,467
837.896667,464
838.014832,477
838.132996,474
838.25116,473
838.369385,480
838.487488,478
838.605713,476
838.723877,473
838.84198,483
838.960205,456
839.078308,485
839.196472,466
839.314636,479
839.4328,464
839.550964,477
839.669067,467
839.787231,475
839.905396,473
840.023499,485
840.141602,477
840.259766,477
840.377869,486
840.495972,497
840.614136,464
840.732239,479
840.850342,452
840.968445,494
841.086548,468
841.204651,482
841.322754,486
841.440918,487
841.55896,474
841.677002,507
841.795166,495
841.913208,471
842.031311,475
842.149353,493
842.267456,466
842.385498,477
842.503601,466
842.621643,496
842.739746,477
842.857788,483
842.97583,470
843.093933,481
843.211975,486
843.330017,501
843.44812,488
843.566101,486
843.684204,476
843.802246,468
843.920227,485
844.038269,498
844.156311,479
844.274292,505
844.392395,478
844.510376,490
844.628357,488
844.74646,485
844.864441,489
844.982422,482
845.100403,484
845.218384,468
845.336426,465
845.454468,493
845.572449,474
845.69043,482
845.808411,469
845.926453,470
846.044373,472
846.162354,488
846.280396,491
846.398315,466
846.516296,486
846.634216,502
846.752197,497
846.870178,481
846.988098,476
847.106079,485
847.22406,474
847.34198,492
847.4599,479
847.577881,487
847.695801,460
847.813782,510
847.931641,451
848.049561,477
848.167603,472
848.285461,483
848.403381,501
848.521362,464
848.639221,477
848.75708,472
848.875,478
848.99292,477
849.110901,508
849.22876,483
849.34668,478
849.464539,478
849.582458,469
849.700317,475
849.818176,473
849.936096,500
850.053955,479
850.171875,484
850.289673,490
850.407593,517
850.525452,488
850.643311,499
850.761169,487
850.878967,487
850.996887,479
851.114746,491
851.232544,493
851.350403,491
851.468262,466
851.58606,488
851.703979,490
851.821777,473
851.939636,504
852.057434,493
852.175232,473
852.293091,481
852.410889,477
852.528687,493
852.646545,497
852.764343,475
852.88208,487
852.999939,512
853.117676,481
853.235535,493
853.353271,474
853.471069,480
853.588928,475
853.706604,483
853.824402,479
853.9422,483
854.059998,454
854.177734,487
854.295532,481
854.413269,487
854.531006,464
854.648804,472
854.766541,457
854.884277,485
855.002014,463
855.119751,502
855.237549,489
855.355225,481
855.473022,464
855.590698,472
855.708435,474
855.826172,480
855.943848,467
856.061646,493
856.179321,478
856.296997,489
856.414795,478
856.53241,497
856.650085,485
856.767822,491
856.885559,492
857.003174,501
857.120911,490
857.238586,490
857.356201,491
857.473938,486
857.591614,501
857.709351,479
857.826965,488
857.944641,490
858.062317,463
858.179993,491
858.297668,476
858.415283,481
858.532959,498
858.650574,500
858.768188,495
858.885803,484
859.003479,484
859.121094,488
859.23877,476
859.356384,496
859.473999,490
859.591675,488
859.709229,474
859.826843,482
859.944458,484
860.062012,479
860.179626,491
860.297302,471
860.414856,513
860.532471,476
860.650024,457
860.767639,474
860.885193,493
861.002808,482
861.120361,462
861.237976,481
861.35553,478
861.473022,492
861.590698,479
861.708191,471
861.825745,483
861.943298,480
862.060852,478
862.178406,470
862.295959,464
862.413513,477
862.531006,444
862.64856,477
862.766113,450
862.883667,495
863.00116,492
863.118713,448
863.236206,467
863.353699,460
863.471252,477
863.588745,478
863.706177,465
863.82373,485
863.941162,484
864.058716,477
864.176208,473
864.29364,472
864.411194,483
864.528687,456
864.646118,476
864.763611,467
864.881042,462
864.998535,472
865.116028,479
865.233459,483
865.350891,476
865.468384,477
865.585754,465
865.703308,475
865.820679,475
865.938171,464
866.055542,482
866.173035,474
866.290466,460
866.407837,477
866.52533,486
866.6427,467
866.760071,462
866.877563,472
866.994934,485
867.112305,484
867.229736,461
867.347107,474
867.464539,462
867.58197,473
867.699341,473
867.81665,480
867.934082,486
868.051453,482
868.168823,467
868.286194,452
868.403564,485
868.520935,462
868.638306,466
868.755676,487
868.872986,468
868.990295,482
869.107727,483
869.225037,473
869.342346,483
869.459717,473
869.577026,478
869.694336,492
869.811707,485
869.929016,487
870.046326,480
870.163635,478
870.280945,497
870.398254,504
870.515564,491
870.632812,484
870.750183,482
870.867432,490
870.984741,488
871.102051,470
871.219299,488
871.336609,499
871.453918,490
871.571106,518
871.688416,467
871.805664,511
871.922852,479
872.040222,494
872.157471,503
872.274719,503
872.391968,517
872.509155,515
872.626465,511
872.743652,523
872.860962,489
872.978149,491
873.095337,492
873.212646,503
873.329834,477
873.44696,508
873.564209,481
873.681396,475
873.798645,479
873.915894,512
874.03302,503
874.150208,481
874.267456,495
874.384583,497
874.501831,507
874.618958,493
874.736145,508
874.853333,505
874.970459,500
875.087646,500
875.204834,497
875.32196,503
875.439148,508
875.556274,488
875.673401,488
875.790527,485
875.907715,497
876.024841,486
876.141968,497
876.259094,498
876.376282,474
876.493347,493
876.610474,467
876.7276,479
876.844727,492
876.961853,480
877.078918,490
877.195984,478
877.313171,470
877.430237,484
877.547302,463
877.664368,493
877.781433,486
877.898499,488
878.015625,489
878.13269,473
878.249695,470
878.366821,481
878.483887,481
878.600952,496
878.717957,476
878.834961,479
878.952087,468
879.069092,502
879.186157,475
879.303162,479
879.420227,471
879.537231,471
879.654236,479
879.77124,472
879.888306,466
880.005249,506
880.122314,474
880.239319,488
880.356323,491
880.473328,478
880.590271,465
880.707275,478
880.824341,491
880.941284,477
881.058228,477
881.175232,460
881.292236,483
881.40918,482
881.526123,456
881.643066,464
881.760071,459
881.877014,485
881.993958,473
882.11084,477
882.227783,464
882.344727,473
882.46167,484
882.578613,464
882.695618,457
882.812439,480
882.929382,492
883.046326,465
883.163208,486
883.280151,474
883.397034,465
883.513916,476
883.630798,472
883.747742,470
883.864563,472
883.981506,484
884.098389,485
884.21521,484
884.332153,488
884.448975,477
884.565796,493
884.682678,495
884.7995,511
884.916443,502
885.033264,530
885.150085,531
885.266968,530
885.383789,523
885.500671,513
885.617493,533
885.734314,543
885.851196,527
885.967896,540
886.084717,526
886.201599,504
886.318359,515
886.435181,519
886.552002,511
886.668762,506
886.785645,528
886.902344,526
887.019165,533
887.135925,510
887.252747,513
887.369446,507
887.486267,487
887.603027,476
887.719788,510
887.836548,476
887.953247,507
888.070068,500
888.186829,490
888.303528,488
888.420288,490
888.536987,463
888.653687,480
888.770447,441
888.887146,483
889.003967,476
889.120667,478
889.237305,463
889.354065,484
889.470703,471
889.587463,471
889.704163,474
889.820862,469
889.937561,474
890.054199,481
890.170837,472
890.287598,489
890.404236,449
890.520874,476
890.637634,471
890.754211,481
890.87085,476
890.987549,496
891.104187,475
891.220886,487
891.337463,466
891.454102,459
891.57074,498
891.687378,473
891.804077,475
891.920654,468
892.037231,454
892.15387,487
892.270447,458
892.387085,484
892.503723,474
892.6203,463
892.736877,457
892.853516,457
892.970032,456
893.08667,486
893.203186,457
893.319763,487
893.43634,490
893.552917,481
893.669556,479
893.786011,484
893.902588,485
894.019165,459
894.135681,477
894.252197,471
894.368835,476
894.485291,474
894.601868,469
894.718384,489
894.8349,457
894.951355,481
895.067932,491
895.184448,462
895.300964,464
895.417419,449
895.533936,470
895.650452,473
895.766907,486
895.883423,465
895.999878,472
896.116333,467
896.232849,473
896.349304,480
896.465759,451
896.582214,469
896.698669,449
896.815125,483
896.931641,470
897.048035,461
897.164551,482
897.280884,481
897.397339,465
897.513794,489
897.630249,478
897.746582,465
897.863098,458
897.979431,455
898.095886,454
898.212341,482
898.328674,450
898.445129,468
898.561462,471
898.677795,475
898.794312,465
898.910645,483
899.026978,480
899.143433,474
899.259766,480
899.37616,482
899.492493,475
899.608765,474
899.725159,477
899.841553,485
899.957947,467
900.07428,488
900.190552,470
900.306946,486
900.423157,483
900.53949,472
900.655884,470
900.772156,473
900.888489,473
901.004822,489
901.121033,466
901.237366,484
901.353699,461
901.46991,472
901.586304,463
901.702515,466
901.818787,480
901.93512,508
902.051331,501
902.167603,503
902.283875,473
902.400085,472
902.516418,503
902.632629,510
902.74884,494
902.865112,515
902.981384,488
903.097595,518
903.213867,500
903.330017,490
903.446289,477
903.5625,499
903.67865,500
903.794922,495
903.911072,479
904.027344,502
904.143494,522
904.259705,490
904.375916,457
904.492065,472
904.608215,493
904.724426,478
904.840576,461
904.956726,470
905.072876,464
905.189087,466
905.305176,510
905.421387,465
905.537537,479
905.653687,461
905.769775,470
905.885925,489
906.002014,495
906.118164,468
906.234314,462
906.350403,459
906.466492,454
906.582642,480
906.69873,494
906.814758,469
906.930908,481
907.046936,484
907.163086,477
907.279175,466
907.395264,455
907.511353,479
907.62738,459
907.743408,487
907.859497,463
907.975525,479
908.091553,470
908.207703,484
908.32373,468
908.439758,474
908.555786,479
908.671814,487
908.787842,477
908.90387,473
909.019775,481
909.135864,481
909.251892,483
909.367859,464
909.483826,484
909.599854,488
909.715881,476
909.831848,454
909.947815,498
910.063782,473
910.179749,462
910.295776,488
910.411743,462
910.527649,504
910.643616,460
910.759583,491
910.875488,472
910.991455,480
911.107361,469
911.223267,487
911.339294,482
911.4552,460
911.571106,461
911.687073,469
911.802979,479
911.918823,472
912.034729,473
912.150635,475
912.266602,474
912.382446,474
912.498352,478
912.614197,469
912.730103,455
912.846008,464
