792.44574,531
792.56488,559
792.68396,607
792.80304,575
792.92218,540
793.041199,517
793.160339,509
793.279419,544
793.398499,529
793.517578,537
793.636658,503
793.755737,524
793.874817,526
793.993896,541
794.112976,533
794.232056,517
794.351074,512
794.470215,531
794.589233,513
794.708313,527
794.827393,534
794.946411,512
795.065552,516
795.18457,508
795.303589,511
795.422668,525
795.541687,497
795.660767,505
795.779846,502
795.898865,498
796.017883,510
796.136963,489
796.255981,495
796.375061,504
796.49408,483
796.613037,502
796.732117,491
796.851135,494
796.970154,507
797.089233,511
797.208191,514
797.327271,494
797.446228,504
797.565186,527
797.684265,502
797.803223,489
797.922241,472
798.04126,503
798.160278,501
798.279297,494
798.398315,481
798.517273,500
798.636292,480
798.75531,483
798.874268,499
798.993286,493
799.112244,477
799.231323,496
799.350281,483
799.469238,504
799.588257,476
799.707153,502
799.826111,505
799.945129,484
800.064087,493
800.183044,492
800.302063,472
800.421021,493
800.539978,501
800.658936,491
800.777893,512
800.896912,506
801.015747,475
801.134705,490
801.253723,491
801.37262,503
801.491638,485
801.610535,463
801.729492,503
801.84845,495
801.967407,475
802.086243,489
802.205261,480
802.324158,471
802.443115,504
802.562073,490
802.680969,490
802.799927,497
802.918762,490
803.037659,470
803.156677,521
803.275574,486
803.39447,481
803.513428,495
803.632263,485
803.751221,480
803.870117,494
803.989014,477
804.107971,502
804.226746,487
804.345642,497
804.4646,495
804.583496,474
804.702393,489
804.821228,470
804.940125,480
805.059021,481
805.177917,487
805.296814,465
805.415649,458
805.534546,497
805.653442,475
805.772278,495
805.891113,491
806.01001,476
806.128906,484
806.247742,492
806.366577,484
806.485413,493
806.604309,504
806.723145,474
806.84198,476
806.960876,491
807.079712,492
807.198486,478
807.317383,496
807.436218,492
807.554993,478
807.673889,496
807.792725,469
807.91156,484
808.030396,502
808.14917,483
808.268005,482
808.386841,467
808.505676,471
808.624451,496
808.743286,483
808.862122,464
808.980896,484
809.099731,494
809.218506,492
809.337341,479
809.456116,499
809.57489,463
809.693726,473
809.8125,486
809.931274,481
810.050049,488
810.168884,502
810.287659,492
810.406372,489
810.525269,466
810.643982,487
810.762756,482
810.881531,484
811.000305,488
811.11908,474
811.237854,486
811.356567,488
811.475403,477
811.594116,489
811.71283,482
811.831604,491
811.950378,486
812.069153,485
812.187927,476
812.30658,501
812.425415,480
812.544128,478
812.662781,514
812.781616,489
812.900269,487
813.019043,496
813.137756,477
813.256531,498
813.375244,474
813.493896,491
813.612671,480
813.731384,498
813.850037,480
813.96875,476
814.087524,482
814.206238,468
814.324951,488
814.443604,487
814.562256,465
814.68103,467
814.799683,457
814.918335,461
815.037109,473
815.155762,486
815.274475,486
815.393188,478
815.511841,490
815.630554,488
815.749146,467
815.867859,475
815.986572,478
816.105164,459
816.223877,453
816.342529,468
816.461182,480
816.579895,486
816.698486,494
816.817139,497
816.935791,469
817.054504,487
817.173096,486
817.291748,492
817.4104,476
817.529053,475
817.647644,444
817.766235,473
817.884949,471
818.00354,479
818.122192,461
818.240845,459
818.359436,456
818.478088,487
818.59668,455
818.715271,465
818.833923,472
818.952515,484
819.071106,462
819.189758,466
819.30835,449
819.426941,470
819.545532,464
819.664124,475
819.782715,468
819.901306,465
820.019897,453
820.138489,472
820.25708,458
820.375671,476
820.494202,453
820.612732,465
820.731384,459
820.849915,457
820.968506,477
821.087097,450
821.205627,451
821.324158,468
821.442749,469
821.561279,457
821.679871,470
821.798401,455
821.916931,440
822.035461,462
822.154053,468
822.272583,449
822.391174,430
822.509583,446
822.628174,455
822.746704,469
822.865234,438
822.983765,460
823.102295,475
823.220825,445
823.339294,452
823.457825,454
823.576355,461
823.694824,466
823.813354,442
823.931885,473
824.050354,471
824.168884,452
824.287354,450
824.405823,466
824.524353,454
824.642822,448
824.761353,438
824.879822,474
824.998291,444
825.116699,454
825.235291,483
825.353699,466
825.472168,452
825.590637,468
825.709106,471
825.827576,445
825.946045,449
826.064453,453
826.182983,447
826.301392,461
826.4198,446
826.53833,471
826.656738,443
826.775208,460
826.893677,452
827.012024,435
827.130493,463
827.248962,457
827.36731,451
827.485779,445
827.604248,436
827.722595,450
827.841064,451
827.959412,469
828.077942,451
828.196289,442
828.314636,471
828.433105,449
828.551514,456
828.669861,455
828.78833,449
828.906677,464
829.025085,434
829.143433,443
829.261841,456
829.38031,458
829.498657,444
829.617004,451
829.735413,458
829.85376,463
829.972107,442
830.090515,446
830.208862,454
830.327209,438
830.445557,476
830.563904,441
830.682312,472
830.800659,454
830.919006,455
831.037354,461
831.155701,440
831.274048,475
831.392395,436
831.51062,469
831.629028,440
831.747314,452
831.865662,438
831.984009,444
832.102356,443
832.220642,458
832.338928,432
832.457275,456
832.575623,450
832.693909,445
832.812134,445
832.930481,447
833.048828,448
833.167114,454
833.2854,457
833.403687,441
833.521973,457
833.640259,430
833.758545,449
833.876831,457
833.995056,458
834.113281,464
834.231628,449
834.349915,454
834.468201,455
834.586426,452
834.704651,438
834.822998,444
834.941162,451
835.059448,425
835.177673,452
835.295959,440
835.414246,451
835.53241,452
835.650635,444
835.768921,467
835.887146,434
836.005371,447
836.123596,443
836.241821,437
836.360046,440
836.478271,454
836.596497,437
836.714722,464
836.832886,445
836.95105,441
837.069336,430
837.1875,445
837.305725,460
837.423889,458
837.542053,457
837.660339,454
837.778503,449
837.896667,451
838.014832,442
838.132996,450
838.25116,453
838.369385,454
838.487488,449
838.605713,441
838.723877,427
838.84198,459
838.960205,453
839.078308,456
839.196472,437
839.314636,458
839.4328,451
839.550964,458
839.669067,433
839.787231,437
839.905396,450
840.023499,454
840.141602,431
840.259766,438
840.377869,454
840.495972,441
840.614136,454
840.732239,444
840.850342,455
840.968445,428
841.086548,436
841.204651,443
841.322754,446
841.440918,460
841.55896,455
841.677002,455
841.795166,437
841.913208,456
842.031311,449
842.149353,436
842.267456,440
842.385498,449
842.503601,438
842.621643,438
842.739746,463
842.857788,451
842.97583,443
843.093933,442
843.211975,454
843.330017,451
843.44812,459
843.566101,441
843.684204,416
843.802246,471
843.920227,467
844.038269,445
844.156311,444
844.274292,463
844.392395,455
844.510376,454
844.628357,453
844.74646,469
844.864441,443
844.982422,440
845.100403,448
845.218384,488
845.336426,458
845.454468,463
845.572449,440
845.69043,449
845.808411,442
845.926453,461
846.044373,438
846.162354,456
846.280396,443
846.398315,454
846.516296,458
846.634216,439
846.752197,444
846.870178,442
846.988098,441
847.106079,444
847.22406,441
847.34198,454
847.4599,441
847.577881,443
847.695801,424
847.813782,441
847.931641,437
848.049561,456
848.167603,454
848.285461,430
848.403381,443
848.521362,457
848.639221,449
848.75708,449
848.875,466
848.99292,463
849.110901,439
849.22876,453
849.34668,454
849.464539,463
849.582458,461
849.700317,464
849.818176,468
849.936096,437
850.053955,453
850.171875,452
850.289673,440
850.407593,460
850.525452,467
850.643311,464
850.761169,462
850.878967,441
850.996887,435
851.114746,455
851.232544,465
851.350403,448
851.468262,451
851.58606,449
851.703979,460
851.821777,461
851.939636,441
852.057434,465
852.175232,446
852.293091,448
852.410889,444
852.528687,453
852.646545,450
852.764343,459
852.88208,463
852.999939,465
853.117676,438
853.235535,445
853.353271,456
853.471069,479
853.588928,449
853.706604,449
853.824402,429
853.9422,445
854.059998,429
854.177734,436
854.295532,442
854.413269,458
854.531006,431
854.648804,438
854.766541,432
854.884277,452
855.002014,431
855.119751,441
855.237549,447
855.355225,441
855.473022,454
855.590698,459
855.708435,428
855.826172,471
855.943848,447
856.061646,437
856.179321,460
856.296997,436
856.414795,457
856.53241,454
856.650085,463
856.767822,430
856.885559,463
857.003174,453
857.120911,436
857.238586,470
857.356201,434
857.473938,454
857.591614,452
857.709351,471
857.826965,458
857.944641,446
858.062317,444
858.179993,439
858.297668,463
858.415283,457
858.532959,446
858.650574,453
858.768188,466
858.885803,432
859.003479,467
859.121094,446
859.23877,434
859.356384,445
859.473999,438
859.591675,444
859.709229,441
859.826843,458
859.944458,480
860.062012,450
860.179626,444
860.297302,455
860.414856,444
860.532471,453
860.650024,451
860.767639,443
860.885193,450
861.002808,438
861.120361,467
861.237976,452
861.35553,441
861.473022,457
861.590698,452
861.708191,452
861.825745,453
861.943298,450
862.060852,459
862.178406,459
862.295959,445
862.413513,449
862.531006,466
862.64856,449
862.766113,437
862.883667,461
863.00116,456
863.118713,455
863.236206,456
863.353699,451
863.471252,456
863.588745,436
863.706177,450
863.82373,457
863.941162,456
864.058716,443
864.176208,456
864.29364,441
864.411194,457
864.528687,459
864.646118,447
864.763611,445
864.881042,425
864.998535,462
865.116028,459
865.233459,453
865.350891,443
865.468384,464
865.585754,441
865.703308,444
865.820679,454
865.938171,449
866.055542,424
866.173035,455
866.290466,447
866.407837,450
866.52533,449
866.6427,456
866.760071,454
866.877563,449
866.994934,447
867.112305,456
867.229736,455
867.347107,448
867.464539,447
867.58197,459
867.699341,445
867.81665,452
867.934082,444
868.051453,453
868.168823,443
868.286194,451
868.403564,448
868.520935,450
868.638306,436
868.755676,442
868.872986,449
868.990295,443
869.107727,477
869.225037,445
869.342346,463
869.459717,451
869.577026,435
869.694336,454
869.811707,454
869.929016,447
870.046326,452
870.163635,458
870.280945,466
870.398254,440
870.515564,432
870.632812,453
870.750183,450
870.867432,450
870.984741,453
871.102051,464
871.219299,451
871.336609,462
871.453918,461
871.571106,460
871.688416,440
871.805664,463
871.922852,460
872.040222,449
872.157471,454
872.274719,461
872.391968,445
872.509155,442
872.626465,459
872.743652,461
872.860962,477
872.978149,475
873.095337,453
873.212646,460
873.329834,457
873.44696,456
873.564209,455
873.681396,454
873.798645,470
873.915894,449
874.03302,445
874.150208,458
874.267456,442
874.384583,452
874.501831,447
874.618958,445
874.736145,456
874.853333,436
874.970459,462
875.087646,470
875.204834,442
875.32196,452
875.439148,462
875.556274,439
875.673401,462
875.790527,446
875.907715,440
876.024841,462
876.141968,468
876.259094,435
876.376282,442
876.493347,430
876.610474,453
876.7276,445
876.844727,462
876.961853,464
877.078918,467
877.195984,465
877.313171,445
877.430237,441
877.547302,461
877.664368,461
877.781433,469
877.898499,470
878.015625,435
878.13269,447
878.249695,448
878.366821,432
878.483887,471
878.600952,455
878.717957,439
878.834961,460
878.952087,432
879.069092,454
879.186157,456
879.303162,453
879.420227,459
879.537231,452
879.654236,436
879.77124,455
879.888306,447
880.005249,459
880.122314,438
880.239319,471
880.356323,435
880.473328,453
880.590271,440
880.707275,463
880.824341,453
880.941284,455
881.058228,452
881.175232,453
881.292236,450
881.40918,454
881.526123,437
881.643066,446
881.760071,459
881.877014,448
881.993958,446
882.11084,449
882.227783,455
882.344727,452
882.46167,457
882.578613,463
882.695618,450
882.812439,451
882.929382,447
883.046326,453
883.163208,454
883.280151,453
883.397034,459
883.513916,442
883.630798,450
883.747742,445
883.864563,450
883.981506,449
884.098389,461
884.21521,462
884.332153,458
884.448975,446
884.565796,474
884.682678,464
884.7995,452
884.916443,440
885.033264,468
885.150085,460
885.266968,470
885.383789,477
885.500671,458
885.617493,468
885.734314,465
885.851196,466
885.967896,465
886.084717,450
886.201599,484
886.318359,467
886.435181,451
886.552002,460
886.668762,466
886.785645,464
886.902344,456
887.019165,479
887.135925,454
887.252747,434
887.369446,446
887.486267,458
887.603027,472
887.719788,462
887.836548,458
887.953247,467
888.070068,457
888.186829,461
888.303528,439
888.420288,459
888.536987,461
888.653687,474
888.770447,445
888.887146,471
889.003967,455
889.120667,466
889.237305,456
889.354065,441
889.470703,474
889.587463,458
889.704163,457
889.820862,438
889.937561,444
890.054199,471
890.170837,461
890.287598,462
890.404236,455
890.520874,450
890.637634,444
890.754211,470
890.87085,449
890.987549,463
891.104187,466
891.220886,470
891.337463,454
891.454102,448
891.57074,457
891.687378,458
891.804077,453
891.920654,450
892.037231,466
892.15387,475
892.270447,437
892.387085,467
892.503723,438
892.6203,469
892.736877,450
892.853516,457
892.970032,473
893.08667,471
893.203186,454
893.319763,450
893.43634,462
893.552917,459
893.669556,475
893.786011,467
893.902588,448
894.019165,435
894.135681,470
894.252197,465
894.368835,436
894.485291,472
894.601868,446
894.718384,464
894.8349,464
894.951355,462
895.067932,457
895.184448,463
895.300964,454
895.417419,455
895.533936,469
895.650452,459
895.766907,442
895.883423,470
895.999878,433
896.116333,456
896.232849,456
896.349304,454
896.465759,451
896.582214,465
896.698669,461
896.815125,464
896.931641,478
897.048035,454
897.164551,455
897.280884,455
897.397339,456
897.513794,459
897.630249,462
897.746582,464
897.863098,469
897.979431,463
898.095886,456
898.212341,453
898.328674,452
898.445129,458
898.561462,456
898.677795,471
898.794312,451
898.910645,479
899.026978,459
899.143433,467
899.259766,445
899.37616,456
899.492493,439
899.608765,471
899.725159,462
899.841553,456
899.957947,462
900.07428,464
900.190552,457
900.306946,469
900.423157,467
900.53949,458
900.655884,484
900.772156,476
900.888489,470
901.004822,478
901.121033,467
901.237366,442
901.353699,462
901.46991,476
901.586304,462
901.702515,446
901.818787,473
901.93512,463
902.051331,476
902.167603,464
902.283875,452
902.400085,446
902.516418,469
902.632629,482
902.74884,480
902.865112,461
902.981384,485
903.097595,482
903.213867,448
903.330017,461
903.446289,465
903.5625,472
903.67865,468
903.794922,480
903.911072,449
904.027344,464
904.143494,457
904.259705,473
904.375916,459
904.492065,476
904.608215,438
904.724426,467
904.840576,456
904.956726,456
905.072876,446
905.189087,465
905.305176,461
905.421387,465
905.537537,494
905.653687,472
905.769775,469
905.885925,500
906.002014,449
906.118164,466
906.234314,467
906.350403,461
906.466492,457
906.582642,444
906.69873,473
906.814758,461
906.930908,448
907.046936,450
907.163086,448
907.279175,450
907.395264,475
907.511353,465
907.62738,475
907.743408,463
907.859497,472
907.975525,438
908.091553,476
908.207703,459
908.32373,460
908.439758,473
908.555786,463
908.671814,450
908.787842,452
908.90387,444
909.019775,489
909.135864,470
909.251892,446
909.367859,470
909.483826,473
909.599854,473
909.715881,462
909.831848,459
909.947815,451
910.063782,453
910.179749,451
910.295776,470
910.411743,466
910.527649,482
910.643616,478
910.759583,451
910.875488,484
910.991455,472
911.107361,468
911.223267,462
911.339294,456
911.4552,459
911.571106,476
911.687073,482
911.802979,443
911.918823,480
912.034729,450
912.150635,465
912.266602,468
912.382446,445
912.498352,473
912.614197,458
912.730103,486
912.846008,453
792.44574,572
792.56488,558
792.68396,634
792.80304,592
792.92218,550
793.041199,531
793.160339,554
793.279419,538
793.398499,546
793.517578,525
793.636658,523
793.755737,524
793.874817,541
793.993896,535
794.112976,532
794.232056,525
794.351074,531
794.470215,532
794.589233,524
794.708313,511
794.827393,532
794.946411,502
795.065552,522
795.18457,509
795.303589,518
795.422668,519
795.541687,504
795.660767,530
795.779846,522
795.898865,495
796.017883,509
796.136963,509
796.255981,520
796.375061,521
796.49408,503
796.613037,501
796.732117,515
796.851135,490
796.970154,500
797.089233,505
797.208191,500
797.327271,481
797.446228,512
797.565186,487
797.684265,488
797.803223,499
797.922241,497
798.04126,513
798.160278,504
798.279297,487
798.398315,500
798.517273,502
798.636292,507
798.75531,492
798.874268,508
798.993286,489
799.112244,488
799.231323,497
799.350281,500
799.469238,494
799.588257,502
799.707153,495
799.826111,474
799.945129,495
800.064087,498
800.183044,504
800.302063,473
800.421021,476
800.539978,495
800.658936,483
800.777893,494
800.896912,486
801.015747,492
801.134705,488
801.253723,504
801.37262,481
801.491638,495
801.610535,473
801.729492,475
801.84845,496
801.967407,499
802.086243,503
802.205261,462
802.324158,502
802.443115,507
802.562073,474
802.680969,494
802.799927,489
802.918762,478
803.037659,506
803.156677,494
803.275574,492
803.39447,482
803.513428,504
803.632263,495
803.751221,502
803.870117,495
803.989014,461
804.107971,483
804.226746,475
804.345642,496
804.4646,485
804.583496,487
804.702393,486
804.821228,495
804.940125,471
805.059021,492
805.177917,488
805.296814,497
805.415649,488
805.534546,490
805.653442,498
805.772278,483
805.891113,479
806.01001,493
806.128906,484
806.247742,495
806.366577,482
806.485413,486
806.604309,468
806.723145,480
806.84198,484
806.960876,491
807.079712,494
807.198486,501
807.317383,487
807.436218,491
807.554993,489
807.673889,488
807.792725,470
807.91156,509
808.030396,498
808.14917,515
808.268005,473
808.386841,468
808.505676,478
808.624451,509
808.743286,480
808.862122,493
808.980896,479
809.099731,473
809.218506,472
809.337341,486
809.456116,477
809.57489,500
809.693726,483
809.8125,496
809.931274,474
810.050049,483
810.168884,493
810.287659,479
810.406372,488
810.525269,495
810.643982,472
810.762756,475
810.881531,483
811.000305,482
811.11908,465
811.237854,499
811.356567,473
811.475403,499
811.594116,475
811.71283,486
811.831604,493
811.950378,479
812.069153,486
812.187927,499
812.30658,489
812.425415,472
812.544128,475
812.662781,493
812.781616,498
812.900269,474
813.019043,487
813.137756,484
813.256531,482
813.375244,485
813.493896,486
813.612671,476
813.731384,467
813.850037,500
813.96875,484
814.087524,472
814.206238,469
814.324951,481
814.443604,481
814.562256,474
814.68103,490
814.799683,467
814.918335,471
815.037109,471
815.155762,481
815.274475,462
815.393188,471
815.511841,489
815.630554,484
815.749146,472
815.867859,463
815.986572,485
816.105164,457
816.223877,470
816.342529,483
816.461182,478
816.579895,483
816.698486,484
816.817139,476
816.935791,488
817.054504,489
817.173096,500
817.291748,459
817.4104,448
817.529053,467
817.647644,479
817.766235,481
817.884949,473
818.00354,462
818.122192,468
818.240845,482
818.359436,473
818.478088,468
818.59668,468
818.715271,481
818.833923,458
818.952515,457
819.071106,473
819.189758,473
819.30835,470
819.426941,461
819.545532,472
819.664124,465
819.782715,465
819.901306,465
820.019897,481
820.138489,470
820.25708,444
820.375671,460
820.494202,470
820.612732,469
820.731384,469
820.849915,466
820.968506,479
821.087097,461
821.205627,464
821.324158,450
821.442749,459
821.561279,453
821.679871,460
821.798401,463
821.916931,471
822.035461,437
822.154053,485
822.272583,438
822.391174,483
822.509583,454
822.628174,470
822.746704,470
822.865234,480
822.983765,450
823.102295,450
823.220825,450
823.339294,466
823.457825,461
823.576355,461
823.694824,476
823.813354,468
823.931885,444
824.050354,474
824.168884,448
824.287354,465
824.405823,460
824.524353,450
824.642822,468
824.761353,452
824.879822,447
824.998291,451
825.116699,447
825.235291,464
825.353699,445
825.472168,440
825.590637,453
825.709106,458
825.827576,459
825.946045,453
826.064453,467
826.182983,473
826.301392,454
826.4198,454
826.53833,465
826.656738,487
826.775208,460
826.893677,448
827.012024,451
827.130493,445
827.248962,440
827.36731,461
827.485779,471
827.604248,451
827.722595,453
827.841064,470
827.959412,464
828.077942,453
828.196289,448
828.314636,452
828.433105,433
828.551514,469
828.669861,439
828.78833,461
828.906677,451
829.025085,473
829.143433,457
829.261841,438
829.38031,455
829.498657,440
829.617004,455
829.735413,454
829.85376,461
829.972107,460
830.090515,450
830.208862,446
830.327209,442
830.445557,453
830.563904,437
830.682312,440
830.800659,449
830.919006,438
831.037354,483
831.155701,459
831.274048,461
831.392395,457
831.51062,435
831.629028,444
831.747314,434
831.865662,445
831.984009,459
832.102356,470
832.220642,454
832.338928,460
832.457275,443
832.575623,456
832.693909,448
832.812134,451
832.930481,451
833.048828,457
833.167114,471
833.2854,455
833.403687,453
833.521973,440
833.640259,459
833.758545,459
833.876831,434
833.995056,454
834.113281,424
834.231628,451
834.349915,441
834.468201,460
834.586426,462
834.704651,445
834.822998,443
834.941162,468
835.059448,443
835.177673,461
835.295959,443
835.414246,437
835.53241,453
835.650635,467
835.768921,443
835.887146,446
836.005371,450
836.123596,444
836.241821,443
836.360046,451
836.478271,451
836.596497,450
836.714722,440
836.832886,446
836.95105,455
837.069336,441
837.1875,426
837.305725,450
837.423889,441
837.542053,462
837.660339,444
837.778503,484
837.896667,458
838.014832,469
838.132996,447
838.25116,446
838.369385,452
838.487488,466
838.605713,462
838.723877,452
838.84198,456
838.960205,450
839.078308,449
839.196472,457
839.314636,463
839.4328,464
839.550964,445
839.669067,456
839.787231,458
839.905396,446
840.023499,446
840.141602,437
840.259766,447
840.377869,446
840.495972,452
840.614136,459
840.732239,469
840.850342,457
840.968445,452
841.086548,479
841.204651,441
841.322754,470
841.440918,458
841.55896,450
841.677002,470
841.795166,446
841.913208,468
842.031311,437
842.149353,455
842.267456,440
842.385498,460
842.503601,463
842.621643,468
842.739746,453
842.857788,467
842.97583,457
843.093933,454
843.211975,448
843.330017,449
843.44812,475
843.566101,450
843.684204,435
843.802246,446
843.920227,447
844.038269,450
844.156311,456
844.274292,457
844.392395,459
844.510376,455
844.628357,464
844.74646,460
844.864441,451
844.982422,467
845.100403,460
845.218384,429
845.336426,457
845.454468,454
845.572449,440
845.69043,429
845.808411,453
845.926453,430
846.044373,452
846.162354,453
846.280396,445
846.398315,452
846.516296,448
846.634216,445
846.752197,460
846.870178,450
846.988098,455
847.106079,438
847.22406,442
847.34198,429
847.4599,462
847.577881,468
847.695801,435
847.813782,463
847.931641,458
848.049561,441
848.167603,450
848.285461,467
848.403381,448
848.521362,451
848.639221,471
848.75708,446
848.875,435
848.99292,442
849.110901,447
849.22876,449
849.34668,476
849.464539,457
849.582458,464
849.700317,447
849.818176,466
849.936096,434
850.053955,466
850.171875,458
850.289673,455
850.407593,482
850.525452,463
850.643311,443
850.761169,451
850.878967,439
850.996887,479
851.114746,463
851.232544,454
851.350403,438
851.468262,446
851.58606,453
851.703979,444
851.821777,435
851.939636,465
852.057434,458
852.175232,468
852.293091,465
852.410889,463
852.528687,452
852.646545,462
852.764343,451
852.88208,472
852.999939,447
853.117676,447
853.235535,437
853.353271,456
853.471069,451
853.588928,425
853.706604,436
853.824402,474
853.9422,451
854.059998,447
854.177734,464
854.295532,441
854.413269,453
854.531006,450
854.648804,447
854.766541,450
854.884277,441
855.002014,451
855.119751,428
855.237549,442
855.355225,461
855.473022,456
855.590698,446
855.708435,449
855.826172,451
855.943848,473
856.061646,443
856.179321,443
856.296997,447
856.414795,433
856.53241,464
856.650085,455
856.767822,435
856.885559,449
857.003174,473
857.120911,443
857.238586,444
857.356201,453
857.473938,450
857.591614,456
857.709351,457
857.826965,452
857.944641,432
858.062317,456
858.179993,429
858.297668,453
858.415283,437
858.532959,448
858.650574,452
858.768188,454
858.885803,451
859.003479,464
859.121094,458
859.23877,461
859.356384,446
859.473999,461
859.591675,448
859.709229,455
859.826843,441
859.944458,457
860.062012,444
860.179626,441
860.297302,463
860.414856,436
860.532471,431
860.650024,460
860.767639,425
860.885193,457
861.002808,458
861.120361,454
861.237976,458
861.35553,433
861.473022,456
861.590698,453
861.708191,428
861.825745,456
861.943298,452
862.060852,443
862.178406,444
862.295959,442
862.413513,454
862.531006,463
862.64856,459
862.766113,436
862.883667,463
863.00116,441
863.118713,452
863.236206,442
863.353699,451
863.471252,455
863.588745,438
863.706177,465
863.82373,456
863.941162,471
864.058716,454
864.176208,456
864.29364,454
864.411194,446
864.528687,442
864.646118,461
864.763611,459
864.881042,433
864.998535,471
865.116028,463
865.233459,461
865.350891,452
865.468384,449
865.585754,458
865.703308,461
865.820679,452
865.938171,460
866.055542,456
866.173035,416
866.290466,457
866.407837,454
866.52533,460
866.6427,442
866.760071,454
866.877563,426
866.994934,460
867.112305,444
867.229736,452
867.347107,446
867.464539,451
867.58197,455
867.699341,455
867.81665,454
867.934082,448
868.051453,445
868.168823,461
868.286194,448
868.403564,440
868.520935,450
868.638306,459
868.755676,470
868.872986,462
868.990295,435
869.107727,452
869.225037,449
869.342346,455
869.459717,452
869.577026,448
869.694336,432
869.811707,444
869.929016,472
870.046326,443
870.163635,449
870.280945,466
870.398254,448
870.515564,465
870.632812,444
870.750183,449
870.867432,459
870.984741,457
871.102051,450
871.219299,454
871.336609,470
871.453918,461
871.571106,461
871.688416,462
871.805664,432
871.922852,455
872.040222,464
872.157471,455
872.274719,465
872.391968,445
872.509155,448
872.626465,457
872.743652,450
872.860962,450
872.978149,440
873.095337,466
873.212646,448
873.329834,453
873.44696,456
873.564209,456
873.681396,448
873.798645,457
873.915894,450
874.03302,439
874.150208,456
874.267456,457
874.384583,444
874.501831,452
874.618958,460
874.736145,458
874.853333,441
874.970459,460
875.087646,463
875.204834,470
875.32196,457
875.439148,459
875.556274,456
875.673401,455
875.790527,454
875.907715,444
876.024841,439
876.141968,448
876.259094,450
876.376282,452
876.493347,454
876.610474,457
876.7276,442
876.844727,453
876.961853,456
877.078918,454
877.195984,464
877.313171,462
877.430237,451
877.547302,455
877.664368,444
877.781433,441
877.898499,444
878.015625,453
878.13269,455
878.249695,452
878.366821,463
878.483887,454
878.600952,462
878.717957,462
878.834961,453
878.952087,444
879.069092,456
879.186157,437
879.303162,448
879.420227,464
879.537231,461
879.654236,444
879.77124,449
879.888306,461
880.005249,459
880.122314,463
880.239319,458
880.356323,464
880.473328,471
880.590271,464
880.707275,453
880.824341,450
880.941284,455
881.058228,469
881.175232,445
881.292236,465
881.40918,443
881.526123,451
881.643066,466
881.760071,457
881.877014,458
881.993958,466
882.11084,443
882.227783,462
882.344727,446
882.46167,438
882.578613,429
882.695618,459
882.812439,452
882.929382,462
883.046326,449
883.163208,457
883.280151,434
883.397034,452
883.513916,463
883.630798,456
883.747742,471
883.864563,434
883.981506,453
884.098389,476
884.21521,430
884.332153,453
884.448975,469
884.565796,467
884.682678,458
884.7995,461
884.916443,452
885.033264,455
885.150085,462
885.266968,470
885.383789,448
885.500671,436
885.617493,466
885.734314,477
885.851196,465
885.967896,474
886.084717,457
886.201599,476
886.318359,470
886.435181,449
886.552002,450
886.668762,478
886.785645,468
886.902344,475
887.019165,469
887.135925,466
887.252747,458
887.369446,459
887.486267,461
887.603027,459
887.719788,449
887.836548,467
887.953247,449
888.070068,473
888.186829,458
888.303528,462
888.420288,445
888.536987,453
888.653687,468
888.770447,455
888.887146,442
889.003967,462
889.120667,439
889.237305,459
889.354065,470
889.470703,469
889.587463,453
889.704163,460
889.820862,453
889.937561,438
890.054199,451
890.170837,460
890.287598,429
890.404236,459
890.520874,450
890.637634,462
890.754211,458
890.87085,459
890.987549,464
891.104187,451
891.220886,470
891.337463,452
891.454102,465
891.57074,466
891.687378,454
891.804077,446
891.920654,455
892.037231,456
892.15387,473
892.270447,445
892.387085,462
892.503723,464
892.6203,472
892.736877,459
892.853516,436
892.970032,470
893.08667,448
893.203186,467
893.319763,447
893.43634,465
893.552917,455
893.669556,466
893.786011,464
893.902588,470
894.019165,449
894.135681,466
894.252197,458
894.368835,481
894.485291,478
894.601868,449
894.718384,474
894.8349,467
894.951355,446
895.067932,442
895.184448,458
895.300964,481
895.417419,463
895.533936,457
895.650452,454
895.766907,440
895.883423,464
895.999878,469
896.116333,451
896.232849,466
896.349304,444
896.465759,479
896.582214,473
896.698669,459
896.815125,477
896.931641,464
897.048035,446
897.164551,475
897.280884,472
897.397339,470
897.513794,445
897.630249,470
897.746582,439
897.863098,458
897.979431,462
898.095886,454
898.212341,442
898.328674,454
898.445129,458
898.561462,475
898.677795,476
898.794312,465
898.910645,451
899.026978,470
899.143433,453
899.259766,462
899.37616,461
899.492493,464
899.608765,439
899.725159,471
899.841553,466
899.957947,446
900.07428,459
900.190552,456
900.306946,478
900.423157,454
900.53949,461
900.655884,453
900.772156,462
900.888489,462
901.004822,453
901.121033,467
901.237366,480
901.353699,455
901.46991,460
901.586304,477
901.702515,462
901.818787,484
901.93512,472
902.051331,460
902.167603,457
902.283875,475
902.400085,450
902.516418,478
902.632629,452
902.74884,462
902.865112,471
902.981384,491
903.097595,476
903.213867,468
903.330017,456
903.446289,481
903.5625,466
903.67865,463
903.794922,473
903.911072,478
904.027344,483
904.143494,464
904.259705,433
904.375916,475
904.492065,473
904.608215,479
904.724426,473
904.840576,463
904.956726,482
905.072876,468
905.189087,461
905.305176,476
905.421387,454
905.537537,470
905.653687,460
905.769775,477
905.885925,463
906.002014,477
906.118164,453
906.234314,480
906.350403,459
906.466492,454
906.582642,449
906.69873,468
906.814758,465
906.930908,460
907.046936,481
907.163086,464
907.279175,466
907.395264,464
907.511353,461
907.62738,470
907.743408,465
907.859497,469
907.975525,458
908.091553,475
908.207703,451
908.32373,481
908.439758,487
908.555786,469
908.671814,470
908.787842,486
908.90387,460
909.019775,467
909.135864,462
909.251892,461
909.367859,468
909.483826,445
909.599854,468
909.715881,456
909.831848,454
909.947815,459
910.063782,445
910.179749,463
910.295776,467
910.411743,479
910.527649,476
910.643616,478
910.759583,470
910.875488,485
910.991455,449
911.107361,469
911.223267,456
911.339294,475
911.4552,438
911.571106,464
911.687073,465
911.802979,453
911.918823,462
912.034729,483
912.150635,451
912.266602,473
912.382446,446
912.498352,487
912.614197,482
912.730103,484
912.846008,485
792.44574,544
792.56488,589
792.68396,622
792.80304,585
792.92218,558
793.041199,527
793.160339,545
793.279419,549
793.398499,534
793.517578,540
793.636658,513
793.755737,536
793.874817,553
793.993896,520
794.112976,530
794.232056,520
794.351074,527
794.470215,528
794.589233,540
794.708313,499
794.827393,521
794.946411,514
795.065552,528
795.18457,527
795.303589,529
795.422668,525
795.541687,497
795.660767,528
795.779846,506
795.898865,512
796.017883,513
796.136963,511
796.255981,519
796.375061,508
796.49408,518
796.613037,518
796.732117,529
796.851135,513
796.970154,486
797.089233,506
797.208191,496
797.327271,496
797.446228,509
797.565186,495
797.684265,519
797.803223,508
797.922241,506
798.04126,499
798.160278,501
798.279297,490
798.398315,511
798.517273,503
798.636292,487
798.75531,510
798.874268,509
798.993286,502
799.112244,518
799.231323,512
799.350281,493
799.469238,496
799.588257,486
799.707153,494
799.826111,499
799.945129,491
800.064087,504
800.183044,475
800.302063,494
800.421021,511
800.539978,503
800.658936,463
800.777893,497
800.896912,483
801.015747,500
801.134705,471
801.253723,495
801.37262,508
801.491638,480
801.610535,494
801.729492,482
801.84845,484
801.967407,520
802.086243,490
802.205261,491
802.324158,498
802.443115,495
802.562073,496
802.680969,496
802.799927,491
802.918762,494
803.037659,486
803.156677,475
803.275574,498
803.39447,502
803.513428,482
803.632263,500
803.751221,466
803.870117,501
803.989014,483
804.107971,492
804.226746,490
804.345642,490
804.4646,475
804.583496,508
804.702393,481
804.821228,490
804.940125,506
805.059021,499
805.177917,484
805.296814,493
805.415649,480
805.534546,506
805.653442,497
805.772278,498
805.891113,479
806.01001,501
806.128906,493
806.247742,525
806.366577,491
806.485413,495
806.604309,476
806.723145,486
806.84198,481
806.960876,525
807.079712,465
807.198486,489
807.317383,485
807.436218,494
807.554993,487
807.673889,497
807.792725,489
807.91156,500
808.030396,485
808.14917,498
808.268005,485
808.386841,492
808.505676,479
808.624451,491
808.743286,494
808.862122,496
808.980896,491
809.099731,485
809.218506,472
809.337341,476
809.456116,477
809.57489,503
809.693726,489
809.8125,518
809.931274,482
810.050049,474
810.168884,485
810.287659,504
810.406372,484
810.525269,498
810.643982,467
810.762756,489
810.881531,496
811.000305,496
811.11908,471
811.237854,473
811.356567,488
811.475403,495
811.594116,478
811.71283,494
811.831604,493
811.950378,486
812.069153,470
812.187927,521
812.30658,481
812.425415,484
812.544128,495
812.662781,497
812.781616,494
812.900269,486
813.019043,483
813.137756,475
813.256531,493
813.375244,505
813.493896,468
813.612671,499
813.731384,493
813.850037,474
813.96875,492
814.087524,489
814.206238,471
814.324951,480
814.443604,497
814.562256,505
814.68103,480
814.799683,476
814.918335,459
815.037109,494
815.155762,477
815.274475,476
815.393188,469
815.511841,482
815.630554,469
815.749146,500
815.867859,480
815.986572,477
816.105164,467
816.223877,473
816.342529,505
816.461182,479
816.579895,484
816.698486,471
816.817139,491
816.935791,473
817.054504,481
817.173096,483
817.291748,469
817.4104,473
817.529053,468
817.647644,485
817.766235,464
817.884949,462
818.00354,476
818.122192,482
818.240845,464
818.359436,488
818.478088,462
818.59668,477
818.715271,475
818.833923,448
818.952515,462
819.071106,475
819.189758,456
819.30835,462
819.426941,463
819.545532,484
819.664124,466
819.782715,465
819.901306,478
820.019897,458
820.138489,441
820.25708,478
820.375671,465
820.494202,471
820.612732,472
820.731384,480
820.849915,467
820.968506,460
821.087097,464
821.205627,466
821.324158,466
821.442749,461
821.561279,457
821.679871,472
821.798401,472
821.916931,467
822.035461,453
822.154053,467
822.272583,462
822.391174,466
822.509583,457
822.628174,472
822.746704,456
822.865234,451
822.983765,441
823.102295,472
823.220825,466
823.339294,441
823.457825,470
823.576355,462
823.694824,459
823.813354,454
823.931885,465
824.050354,467
824.168884,458
824.287354,480
824.405823,460
824.524353,477
824.642822,465
824.761353,458
824.879822,466
824.998291,450
825.116699,466
825.235291,459
825.353699,464
825.472168,459
825.590637,456
825.709106,475
825.827576,469
825.946045,484
826.064453,461
826.182983,457
826.301392,479
826.4198,443
826.53833,450
826.656738,471
826.775208,443
826.893677,464
827.012024,456
827.130493,469
827.248962,452
827.36731,456
827.485779,447
827.604248,466
827.722595,452
827.841064,447
827.959412,455
828.077942,447
828.196289,472
828.314636,455
828.433105,455
828.551514,452
828.669861,446
828.78833,465
828.906677,451
829.025085,461
829.143433,457
829.261841,435
829.38031,451
829.498657,461
829.617004,455
829.735413,456
829.85376,461
829.972107,466
830.090515,459
830.208862,461
830.327209,464
830.445557,431
830.563904,470
830.682312,452
830.800659,444
830.919006,469
831.037354,447
831.155701,445
831.274048,456
831.392395,469
831.51062,453
831.629028,471
831.747314,459
831.865662,460
831.984009,468
832.102356,461
832.220642,448
832.338928,450
832.457275,469
832.575623,448
832.693909,445
832.812134,442
832.930481,448
833.048828,461
833.167114,419
833.2854,450
833.403687,445
833.521973,459
833.640259,462
833.758545,453
833.876831,449
833.995056,454
834.113281,473
834.231628,465
834.349915,439
834.468201,450
834.586426,459
834.704651,455
834.822998,456
834.941162,454
835.059448,455
835.177673,444
835.295959,447
835.414246,440
835.53241,438
835.650635,454
835.768921,441
835.887146,439
836.005371,453
836.123596,440
836.241821,464
836.360046,466
836.478271,457
836.596497,460
836.714722,447
836.832886,447
836.95105,428
837.069336,470
837.1875,443
837.305725,459
837.423889,456
837.542053,471
837.660339,443
837.778503,461
837.896667,450
838.014832,459
838.132996,446
838.25116,455
838.369385,467
838.487488,448
838.605713,451
838.723877,444
838.84198,449
838.960205,467
839.078308,451
839.196472,480
839.314636,443
839.4328,448
839.550964,443
839.669067,456
839.787231,477
839.905396,443
840.023499,448
840.141602,461
840.259766,442
840.377869,469
840.495972,443
840.614136,452
840.732239,461
840.850342,458
840.968445,438
841.086548,460
841.204651,442
841.322754,447
841.440918,446
841.55896,447
841.677002,450
841.795166,456
841.913208,467
842.031311,461
842.149353,454
842.267456,464
842.385498,461
842.503601,460
842.621643,453
842.739746,447
842.857788,455
842.97583,466
843.093933,460
843.211975,449
843.330017,438
843.44812,457
843.566101,460
843.684204,444
843.802246,436
843.920227,444
844.038269,456
844.156311,450
844.274292,438
844.392395,446
844.510376,457
844.628357,461
844.74646,445
844.864441,440
844.982422,461
845.100403,464
845.218384,465
845.336426,464
845.454468,447
845.572449,452
845.69043,475
845.808411,431
845.926453,472
846.044373,449
846.162354,448
846.280396,453
846.398315,465
846.516296,446
846.634216,442
846.752197,450
846.870178,455
846.988098,479
847.106079,438
847.22406,449
847.34198,452
847.4599,456
847.577881,451
847.695801,459
847.813782,465
847.931641,444
848.049561,449
848.167603,450
848.285461,457
848.403381,450
848.521362,432
848.639221,459
848.75708,451
848.875,464
848.99292,463
849.110901,486
849.22876,457
849.34668,473
849.464539,440
849.582458,463
849.700317,451
849.818176,429
849.936096,461
850.053955,452
850.171875,468
850.289673,453
850.407593,453
850.525452,467
850.643311,450
850.761169,449
850.878967,464
850.996887,469
851.114746,449
851.232544,454
851.350403,451
851.468262,455
851.58606,451
851.703979,448
851.821777,455
851.939636,453
852.057434,450
852.175232,462
852.293091,458
852.410889,471
852.528687,438
852.646545,489
852.764343,453
852.88208,451
852.999939,468
853.117676,453
853.235535,451
853.353271,451
853.471069,451
853.588928,460
853.706604,460
853.824402,462
853.9422,449
854.059998,450
854.177734,438
854.295532,454
854.413269,441
854.531006,456
854.648804,448
854.766541,458
854.884277,460
855.002014,464
855.119751,447
855.237549,484
855.355225,462
855.473022,464
855.590698,456
855.708435,448
855.826172,431
855.943848,448
856.061646,451
856.179321,455
856.296997,462
856.414795,454
856.53241,471
856.650085,446
856.767822,448
856.885559,474
857.003174,438
857.120911,465
857.238586,460
857.356201,476
857.473938,433
857.591614,465
857.709351,467
857.826965,457
857.944641,443
858.062317,451
858.179993,451
858.297668,446
858.415283,463
858.532959,467
858.650574,456
858.768188,450
858.885803,449
859.003479,458
859.121094,456
859.23877,456
859.356384,460
859.473999,453
859.591675,440
859.709229,456
859.826843,459
859.944458,464
860.062012,457
860.179626,440
860.297302,436
860.414856,471
860.532471,447
860.650024,458
860.767639,445
860.885193,463
861.002808,440
861.120361,465
861.237976,450
861.35553,455
861.473022,449
861.590698,458
861.708191,437
861.825745,461
861.943298,443
862.060852,455
862.178406,440
862.295959,455
862.413513,462
862.531006,449
862.64856,449
862.766113,457
862.883667,452
863.00116,438
863.118713,451
863.236206,445
863.353699,436
863.471252,449
863.588745,453
863.706177,449
863.82373,455
863.941162,467
864.058716,442
864.176208,463
864.29364,453
864.411194,451
864.528687,442
864.646118,456
864.763611,443
864.881042,449
864.998535,459
865.116028,446
865.233459,433
865.350891,453
865.468384,426
865.585754,456
865.703308,455
865.820679,432
865.938171,453
866.055542,455
866.173035,436
866.290466,458
866.407837,444
866.52533,445
866.6427,451
866.760071,449
866.877563,456
866.994934,462
867.112305,459
867.229736,445
867.347107,473
867.464539,450
867.58197,451
867.699341,464
867.81665,452
867.934082,448
868.051453,436
868.168823,471
868.286194,467
868.403564,446
868.520935,449
868.638306,458
868.755676,456
868.872986,449
868.990295,459
869.107727,462
869.225037,464
869.342346,448
869.459717,442
869.577026,441
869.694336,454
869.811707,444
869.929016,452
870.046326,454
870.163635,453
870.280945,466
870.398254,459
870.515564,454
870.632812,454
870.750183,459
870.867432,470
870.984741,444
871.102051,453
871.219299,469
871.336609,470
871.453918,459
871.571106,434
871.688416,449
871.805664,461
871.922852,436
872.040222,478
872.157471,426
872.274719,445
872.391968,436
872.509155,441
872.626465,481
872.743652,464
872.860962,470
872.978149,455
873.095337,457
873.212646,437
873.329834,435
873.44696,459
873.564209,473
873.681396,462
873.798645,460
873.915894,465
874.03302,467
874.150208,455
874.267456,468
874.384583,440
874.501831,452
874.618958,431
874.736145,467
874.853333,463
874.970459,463
875.087646,466
875.204834,469
875.32196,455
875.439148,463
875.556274,448
875.673401,451
875.790527,438
875.907715,464
876.024841,447
876.141968,465
876.259094,447
876.376282,455
876.493347,473
876.610474,462
876.7276,451
876.844727,470
876.961853,454
877.078918,453
877.195984,455
877.313171,477
877.430237,442
877.547302,450
877.664368,457
877.781433,457
877.898499,454
878.015625,444
878.13269,456
878.249695,457
878.366821,454
878.483887,469
878.600952,453
878.717957,451
878.834961,457
878.952087,456
879.069092,464
879.186157,456
879.303162,462
879.420227,444
879.537231,457
879.654236,461
879.77124,467
879.888306,443
880.005249,447
880.122314,455
880.239319,473
880.356323,480
880.473328,448
880.590271,480
880.707275,448
880.824341,449
880.941284,453
881.058228,469
881.175232,455
881.292236,451
881.40918,471
881.526123,443
881.643066,457
881.760071,471
881.877014,462
881.993958,460
882.11084,461
882.227783,452
882.344727,463
882.46167,468
882.578613,457
882.695618,464
882.812439,455
882.929382,465
883.046326,455
883.163208,455
883.280151,472
883.397034,460
883.513916,463
883.630798,463
883.747742,458
883.864563,458
883.981506,457
884.098389,437
884.21521,471
884.332153,469
884.448975,463
884.565796,499
884.682678,437
884.7995,464
884.916443,462
885.033264,446
885.150085,472
885.266968,473
885.383789,470
885.500671,479
885.617493,463
885.734314,484
885.851196,464
885.967896,460
886.084717,464
886.201599,455
886.318359,472
886.435181,476
886.552002,456
886.668762,469
886.785645,470
886.902344,450
887.019165,467
887.135925,466
887.252747,475
887.369446,482
887.486267,463
887.603027,465
887.719788,456
887.836548,468
887.953247,454
888.070068,471
888.186829,470
888.303528,466
888.420288,454
888.536987,458
888.653687,458
888.770447,463
888.887146,458
889.003967,481
889.120667,453
889.237305,443
889.354065,464
889.470703,453
889.587463,443
889.704163,446
889.820862,455
889.937561,481
890.054199,456
890.170837,456
890.287598,471
890.404236,437
890.520874,454
890.637634,456
890.754211,477
890.87085,457
890.987549,477
891.104187,477
891.220886,459
891.337463,462
891.454102,449
891.57074,467
891.687378,471
891.804077,452
891.920654,456
892.037231,475
892.15387,457
892.270447,475
892.387085,454
892.503723,465
892.6203,453
892.736877,489
892.853516,452
892.970032,455
893.08667,480
893.203186,458
893.319763,448
893.43634,461
893.552917,467
893.669556,469
893.786011,457
893.902588,470
894.019165,459
894.135681,455
894.252197,462
894.368835,473
894.485291,472
894.601868,488
894.718384,472
894.8349,464
894.951355,453
895.067932,471
895.184448,474
895.300964,486
895.417419,478
895.533936,467
895.650452,473
895.766907,482
895.883423,481
895.999878,476
896.116333,459
896.232849,457
896.349304,466
896.465759,464
896.582214,460
896.698669,469
896.815125,459
896.931641,474
897.048035,454
897.164551,456
897.280884,463
897.397339,462
897.513794,458
897.630249,482
897.746582,462
897.863098,480
897.979431,469
898.095886,459
898.212341,464
898.328674,459
898.445129,460
898.561462,462
898.677795,474
898.794312,461
898.910645,453
899.026978,465
899.143433,454
899.259766,462
899.37616,473
899.492493,468
899.608765,454
899.725159,468
899.841553,464
899.957947,480
900.07428,462
900.190552,471
900.306946,458
900.423157,459
900.53949,466
900.655884,467
900.772156,465
900.888489,493
901.004822,473
901.121033,482
901.237366,462
901.353699,459
901.46991,439
901.586304,490
901.702515,456
901.818787,466
901.93512,457
902.051331,460
902.167603,452
902.283875,469
902.400085,474
902.516418,475
902.632629,484
902.74884,467
902.865112,494
902.981384,482
903.097595,461
903.213867,482
903.330017,462
903.446289,488
903.5625,487
903.67865,493
903.794922,460
903.911072,480
904.027344,468
904.143494,485
904.259705,477
904.375916,464
904.492065,466
904.608215,462
904.724426,467
904.840576,472
904.956726,470
905.072876,478
905.189087,467
905.305176,474
905.421387,459
905.537537,479
905.653687,459
905.769775,487
905.885925,458
906.002014,460
906.118164,496
906.234314,478
906.350403,467
906.466492,479
906.582642,451
906.69873,490
906.814758,476
906.930908,471
907.046936,485
907.163086,475
907.279175,457
907.395264,444
907.511353,466
907.62738,481
907.743408,481
907.859497,477
907.975525,475
908.091553,478
908.207703,462
908.32373,471
908.439758,460
908.555786,467
908.671814,475
908.787842,478
908.90387,481
909.019775,472
909.135864,487
909.251892,465
909.367859,472
909.483826,459
909.599854,465
909.715881,487
909.831848,476
909.947815,495
910.063782,483
910.179749,461
910.295776,473
910.411743,460
910.527649,465
910.643616,486
910.759583,450
910.875488,488
910.991455,457
911.107361,446
911.223267,478
911.339294,465
911.4552,477
911.571106,475
911.687073,473
911.802979,480
911.918823,489
912.034729,476
912.150635,473
912.266602,485
912.382446,468
912.498352,461
912.614197,463
912.730103,477
912.846008,464
