792.44574,619
792.56488,687
792.68396,684
792.80304,667
792.92218,603
793.041199,582
793.160339,583
793.279419,608
793.398499,606
793.517578,586
793.636658,580
793.755737,611
793.874817,636
793.993896,618
794.112976,595
794.232056,583
794.351074,573
794.470215,581
794.589233,564
794.708313,570
794.827393,583
794.946411,587
795.065552,600
795.18457,581
795.303589,573
795.422668,584
795.541687,578
795.660767,585
795.779846,591
795.898865,578
796.017883,584
796.136963,581
796.255981,585
796.375061,568
796.49408,568
796.613037,578
796.732117,547
796.851135,584
796.970154,582
797.089233,582
797.208191,557
797.327271,556
797.446228,545
797.565186,562
797.684265,604
797.803223,545
797.922241,582
798.04126,552
798.160278,567
798.279297,562
798.398315,552
798.517273,569
798.636292,538
798.75531,583
798.874268,547
798.993286,558
799.112244,559
799.231323,571
799.350281,582
799.469238,546
799.588257,551
799.707153,555
799.826111,572
799.945129,542
800.064087,581
800.183044,563
800.302063,548
800.421021,553
800.539978,565
800.658936,561
800.777893,580
800.896912,583
801.015747,528
801.134705,547
801.253723,559
801.37262,545
801.491638,560
801.610535,552
801.729492,562
801.84845,563
801.967407,556
802.086243,554
802.205261,552
802.324158,554
802.443115,557
802.562073,548
802.680969,574
802.799927,556
802.918762,568
803.037659,554
803.156677,576
803.275574,579
803.39447,571
803.513428,584
803.632263,587
803.751221,574
803.870117,553
803.989014,573
804.107971,569
804.226746,575
804.345642,571
804.4646,576
804.583496,576
804.702393,592
804.821228,560
804.940125,569
805.059021,566
805.177917,580
805.296814,566
805.415649,583
805.534546,563
805.653442,575
805.772278,574
805.891113,576
806.01001,583
806.128906,586
806.247742,581
806.366577,570
806.485413,570
806.604309,590
806.723145,583
806.84198,591
806.960876,566
807.079712,594
807.198486,592
807.317383,565
807.436218,562
807.554993,587
807.673889,563
807.792725,572
807.91156,572
808.030396,602
808.14917,573
808.268005,615
808.386841,588
808.505676,554
808.624451,580
808.743286,579
808.862122,581
808.980896,577
809.099731,575
809.218506,576
809.337341,583
809.456116,586
809.57489,568
809.693726,590
809.8125,579
809.931274,594
810.050049,575
810.168884,582
810.287659,577
810.406372,612
810.525269,592
810.643982,590
810.762756,594
810.881531,569
811.000305,576
811.11908,581
811.237854,589
811.356567,611
811.475403,588
811.594116,598
811.71283,589
811.831604,605
811.950378,613
812.069153,602
812.187927,564
812.30658,593
812.425415,603
812.544128,588
812.662781,583
812.781616,593
812.900269,586
813.019043,589
813.137756,592
813.256531,578
813.375244,576
813.493896,599
813.612671,565
813.731384,592
813.850037,598
813.96875,604
814.087524,578
814.206238,566
814.324951,578
814.443604,588
814.562256,559
814.68103,579
814.799683,569
814.918335,588
815.037109,564
815.155762,579
815.274475,591
815.393188,601
815.511841,595
815.630554,580
815.749146,563
815.867859,573
815.986572,570
816.105164,587
816.223877,571
816.342529,550
816.461182,564
816.579895,582
816.698486,567
816.817139,567
816.935791,576
817.054504,576
817.173096,578
817.291748,592
817.4104,551
817.529053,558
817.647644,567
817.766235,561
817.884949,568
818.00354,545
818.122192,535
818.240845,535
818.359436,522
818.478088,544
818.59668,503
818.715271,534
818.833923,496
818.952515,515
819.071106,524
819.189758,515
819.30835,496
819.426941,488
819.545532,499
819.664124,514
819.782715,496
819.901306,495
820.019897,475
820.138489,499
820.25708,493
820.375671,491
820.494202,502
820.612732,480
820.731384,487
820.849915,496
820.968506,467
821.087097,493
821.205627,479
821.324158,478
821.442749,475
821.561279,485
821.679871,508
821.798401,492
821.916931,468
822.035461,496
822.154053,471
822.272583,467
822.391174,484
822.509583,486
822.628174,479
822.746704,488
822.865234,484
822.983765,480
823.102295,486
823.220825,470
823.339294,474
823.457825,482
823.576355,497
823.694824,479
823.813354,475
823.931885,478
824.050354,494
824.168884,492
824.287354,491
824.405823,479
824.524353,472
824.642822,477
824.761353,494
824.879822,477
824.998291,476
825.116699,479
825.235291,485
825.353699,469
825.472168,472
825.590637,463
825.709106,502
825.827576,486
825.946045,476
826.064453,479
826.182983,460
826.301392,461
826.4198,478
826.53833,469
826.656738,472
826.775208,465
826.893677,475
827.012024,472
827.130493,483
827.248962,461
827.36731,471
827.485779,461
827.604248,461
827.722595,463
827.841064,463
827.959412,457
828.077942,452
828.196289,456
828.314636,464
828.433105,467
828.551514,450
828.669861,451
828.78833,462
828.906677,471
829.025085,443
829.143433,464
829.261841,450
829.38031,481
829.498657,459
829.617004,444
829.735413,487
829.85376,455
829.972107,469
830.090515,451
830.208862,463
830.327209,461
830.445557,449
830.563904,450
830.682312,457
830.800659,468
830.919006,467
831.037354,465
831.155701,471
831.274048,465
831.392395,483
831.51062,466
831.629028,452
831.747314,471
831.865662,449
831.984009,470
832.102356,451
832.220642,446
832.338928,469
832.457275,454
832.575623,472
832.693909,455
832.812134,427
832.930481,459
833.048828,458
833.167114,438
833.2854,461
833.403687,462
833.521973,457
833.640259,470
833.758545,457
833.876831,457
833.995056,461
834.113281,464
834.231628,450
834.349915,454
834.468201,452
834.586426,479
834.704651,468
834.822998,452
834.941162,473
835.059448,469
835.177673,435
835.295959,471
835.414246,452
835.53241,443
835.650635,456
835.768921,464
835.887146,467
836.005371,455
836.123596,454
836.241821,469
836.360046,468
836.478271,465
836.596497,457
836.714722,485
836.832886,461
836.95105,489
837.069336,475
837.1875,463
837.305725,476
837.423889,491
837.542053,478
837.660339,473
837.778503,478
837.896667,464
838.014832,485
838.132996,472
838.25116,458
838.369385,484
838.487488,442
838.605713,479
838.723877,488
838.84198,468
838.960205,450
839.078308,455
839.196472,465
839.314636,465
839.4328,466
839.550964,488
839.669067,471
839.787231,458
839.905396,458
840.023499,477
840.141602,481
840.259766,487
840.377869,467
840.495972,494
840.614136,471
840.732239,451
840.850342,474
840.968445,467
841.086548,457
841.204651,467
841.322754,460
841.440918,455
841.55896,461
841.677002,471
841.795166,461
841.913208,457
842.031311,480
842.149353,462
842.267456,465
842.385498,467
842.503601,451
842.621643,456
842.739746,460
842.857788,460
842.97583,454
843.093933,477
843.211975,465
843.330017,437
843.44812,452
843.566101,448
843.684204,465
843.802246,479
843.920227,462
844.038269,480
844.156311,466
844.274292,458
844.392395,458
844.510376,458
844.628357,446
844.74646,455
844.864441,450
844.982422,474
845.100403,481
845.218384,457
845.336426,453
845.454468,450
845.572449,471
845.69043,470
845.808411,463
845.926453,462
846.044373,465
846.162354,442
846.280396,471
846.398315,454
846.516296,453
846.634216,457
846.752197,449
846.870178,458
846.988098,439
847.106079,460
847.22406,446
847.34198,466
847.4599,447
847.577881,462
847.695801,471
847.813782,439
847.931641,453
848.049561,458
848.167603,446
848.285461,451
848.403381,459
848.521362,465
848.639221,455
848.75708,466
848.875,464
848.99292,465
849.110901,486
849.22876,474
849.34668,438
849.464539,477
849.582458,473
849.700317,481
849.818176,440
849.936096,457
850.053955,448
850.171875,466
850.289673,458
850.407593,469
850.525452,476
850.643311,490
850.761169,472
850.878967,462
850.996887,456
851.114746,481
851.232544,455
851.350403,457
851.468262,485
851.58606,488
851.703979,453
851.821777,466
851.939636,460
852.057434,456
852.175232,457
852.293091,465
852.410889,484
852.528687,442
852.646545,464
852.764343,475
852.88208,468
852.999939,446
853.117676,453
853.235535,451
853.353271,459
853.471069,459
853.588928,459
853.706604,467
853.824402,458
853.9422,466
854.059998,458
854.177734,466
854.295532,456
854.413269,447
854.531006,467
854.648804,452
854.766541,445
854.884277,471
855.002014,463
855.119751,452
855.237549,460
855.355225,467
855.473022,465
855.590698,462
855.708435,454
855.826172,435
855.943848,470
856.061646,459
856.179321,464
856.296997,453
856.414795,457
856.53241,457
856.650085,464
856.767822,463
856.885559,467
857.003174,468
857.120911,458
857.238586,453
857.356201,456
857.473938,463
857.591614,482
857.709351,460
857.826965,476
857.944641,469
858.062317,464
858.179993,471
858.297668,472
858.415283,485
858.532959,473
858.650574,459
858.768188,459
858.885803,462
859.003479,452
859.121094,462
859.23877,462
859.356384,468
859.473999,457
859.591675,462
859.709229,464
859.826843,460
859.944458,450
860.062012,471
860.179626,450
860.297302,464
860.414856,462
860.532471,453
860.650024,449
860.767639,455
860.885193,462
861.002808,456
861.120361,460
861.237976,450
861.35553,464
861.473022,462
861.590698,467
861.708191,478
861.825745,455
861.943298,461
862.060852,458
862.178406,476
862.295959,445
862.413513,442
862.531006,453
862.64856,457
862.766113,449
862.883667,459
863.00116,459
863.118713,447
863.236206,452
863.353699,460
863.471252,454
863.588745,448
863.706177,454
863.82373,489
863.941162,469
864.058716,466
864.176208,461
864.29364,461
864.411194,456
864.528687,472
864.646118,452
864.763611,466
864.881042,445
864.998535,444
865.116028,467
865.233459,470
865.350891,457
865.468384,453
865.585754,461
865.703308,483
865.820679,457
865.938171,463
866.055542,475
866.173035,471
866.290466,460
866.407837,457
866.52533,454
866.6427,476
866.760071,465
866.877563,469
866.994934,472
867.112305,457
867.229736,473
867.347107,450
867.464539,439
867.58197,456
867.699341,446
867.81665,448
867.934082,464
868.051453,461
868.168823,457
868.286194,460
868.403564,457
868.520935,456
868.638306,448
868.755676,458
868.872986,449
868.990295,484
869.107727,460
869.225037,484
869.342346,471
869.459717,470
869.577026,473
869.694336,455
869.811707,448
869.929016,479
870.046326,474
870.163635,454
870.280945,474
870.398254,463
870.515564,478
870.632812,454
870.750183,459
870.867432,477
870.984741,466
871.102051,469
871.219299,464
871.336609,452
871.453918,446
871.571106,489
871.688416,471
871.805664,464
871.922852,454
872.040222,482
872.157471,461
872.274719,472
872.391968,469
872.509155,475
872.626465,469
872.743652,464
872.860962,450
872.978149,467
873.095337,445
873.212646,483
873.329834,472
873.44696,464
873.564209,446
873.681396,446
873.798645,462
873.915894,457
874.03302,467
874.150208,469
874.267456,475
874.384583,463
874.501831,451
874.618958,467
874.736145,455
874.853333,502
874.970459,460
875.087646,470
875.204834,469
875.32196,483
875.439148,451
875.556274,463
875.673401,481
875.790527,469
875.907715,452
876.024841,464
876.141968,464
876.259094,483
876.376282,470
876.493347,479
876.610474,460
876.7276,475
876.844727,462
876.961853,455
877.078918,456
877.195984,477
877.313171,453
877.430237,466
877.547302,471
877.664368,467
877.781433,472
877.898499,459
878.015625,456
878.13269,455
878.249695,458
878.366821,460
878.483887,458
878.600952,478
878.717957,460
878.834961,466
878.952087,471
879.069092,468
879.186157,484
879.303162,474
879.420227,469
879.537231,446
879.654236,453
879.77124,456
879.888306,464
880.005249,453
880.122314,447
880.239319,464
880.356323,471
880.473328,447
880.590271,449
880.707275,467
880.824341,465
880.941284,464
881.058228,437
881.175232,467
881.292236,452
881.40918,462
881.526123,469
881.643066,449
881.760071,463
881.877014,470
881.993958,475
882.11084,451
882.227783,462
882.344727,463
882.46167,447
882.578613,480
882.695618,456
882.812439,463
882.929382,465
883.046326,455
883.163208,466
883.280151,465
883.397034,475
883.513916,472
883.630798,454
883.747742,482
883.864563,483
883.981506,466
884.098389,470
884.21521,455
884.332153,468
884.448975,470
884.565796,487
884.682678,449
884.7995,446
884.916443,476
885.033264,465
885.150085,464
885.266968,476
885.383789,488
885.500671,483
885.617493,491
885.734314,477
885.851196,473
885.967896,467
886.084717,493
886.201599,464
886.318359,473
886.435181,466
886.552002,471
886.668762,474
886.785645,482
886.902344,483
887.019165,459
887.135925,471
887.252747,478
887.369446,470
887.486267,459
887.603027,464
887.719788,475
887.836548,492
887.953247,463
888.070068,473
888.186829,445
888.303528,489
888.420288,492
888.536987,472
888.653687,472
888.770447,458
888.887146,460
889.003967,484
889.120667,461
889.237305,471
889.354065,472
889.470703,444
889.587463,472
889.704163,455
889.820862,472
889.937561,480
890.054199,483
890.170837,481
890.287598,463
890.404236,467
890.520874,484
890.637634,465
890.754211,444
890.87085,467
890.987549,469
891.104187,476
891.220886,462
891.337463,467
891.454102,468
891.57074,488
891.687378,484
891.804077,441
891.920654,468
892.037231,479
892.15387,458
892.270447,462
892.387085,461
892.503723,494
892.6203,474
892.736877,468
892.853516,492
892.970032,479
893.08667,476
893.203186,475
893.319763,480
893.43634,460
893.552917,483
893.669556,475
893.786011,471
893.902588,454
894.019165,480
894.135681,482
894.252197,478
894.368835,464
894.485291,460
894.601868,438
894.718384,473
894.8349,484
894.951355,480
895.067932,477
895.184448,490
895.300964,485
895.417419,464
895.533936,458
895.650452,448
895.766907,473
895.883423,453
895.999878,449
896.116333,491
896.232849,476
896.349304,473
896.465759,460
896.582214,496
896.698669,486
896.815125,476
896.931641,468
897.048035,459
897.164551,476
897.280884,482
897.397339,473
897.513794,482
897.630249,477
897.746582,490
897.863098,461
897.979431,471
898.095886,461
898.212341,465
898.328674,477
898.445129,449
898.561462,480
898.677795,494
898.794312,487
898.910645,497
899.026978,471
899.143433,462
899.259766,485
899.37616,470
899.492493,457
899.608765,485
899.725159,464
899.841553,468
899.957947,457
900.07428,499
900.190552,455
900.306946,481
900.423157,462
900.53949,487
900.655884,463
900.772156,499
900.888489,475
901.004822,470
901.121033,472
901.237366,474
901.353699,472
901.46991,460
901.586304,468
901.702515,462
901.818787,477
901.93512,479
902.051331,487
902.167603,475
902.283875,496
902.400085,489
902.516418,493
902.632629,475
902.74884,484
902.865112,495
902.981384,467
903.097595,491
903.213867,500
903.330017,485
903.446289,490
903.5625,477
903.67865,476
903.794922,458
903.911072,463
904.027344,473
904.143494,484
904.259705,477
904.375916,476
904.492065,485
904.608215,493
904.724426,492
904.840576,485
904.956726,490
905.072876,470
905.189087,470
905.305176,476
905.421387,463
905.537537,485
905.653687,479
905.769775,457
905.885925,470
906.002014,477
906.118164,477
906.234314,473
906.350403,486
906.466492,473
906.582642,489
906.69873,464
906.814758,489
906.930908,473
907.046936,469
907.163086,459
907.279175,471
907.395264,482
907.511353,476
907.62738,474
907.743408,473
907.859497,471
907.975525,480
908.091553,469
908.207703,494
908.32373,472
908.439758,475
908.555786,460
908.671814,472
908.787842,475
908.90387,478
909.019775,474
909.135864,478
909.251892,479
909.367859,490
909.483826,460
909.599854,484
909.715881,478
909.831848,487
909.947815,484
910.063782,491
910.179749,483
910.295776,472
910.411743,481
910.527649,491
910.643616,472
910.759583,463
910.875488,492
910.991455,496
911.107361,476
911.223267,485
911.339294,479
911.4552,485
911.571106,484
911.687073,483
911.802979,490
911.918823,478
912.034729,466
912.150635,476
912.266602,487
912.382446,492
912.498352,456
912.614197,472
912.730103,475
912.846008,462
792.44574,636
792.56488,656
792.68396,677
792.80304,657
792.92218,627
793.041199,618
793.160339,594
793.279419,620
793.398499,615
793.517578,596
793.636658,604
793.755737,615
793.874817,626
793.993896,593
794.112976,620
794.232056,596
794.351074,593
794.470215,610
794.589233,592
794.708313,595
794.827393,565
794.946411,581
795.065552,598
795.18457,564
795.303589,566
795.422668,551
795.541687,595
795.660767,577
795.779846,581
795.898865,575
796.017883,570
796.136963,575
796.255981,586
796.375061,567
796.49408,569
796.613037,565
796.732117,566
796.851135,578
796.970154,551
797.089233,566
797.208191,582
797.327271,586
797.446228,563
797.565186,553
797.684265,559
797.803223,549
797.922241,557
798.04126,568
798.160278,568
798.279297,555
798.398315,549
798.517273,560
798.636292,553
798.75531,570
798.874268,545
798.993286,564
799.112244,556
799.231323,565
799.350281,560
799.469238,553
799.588257,580
799.707153,570
799.826111,564
799.945129,549
800.064087,568
800.183044,569
800.302063,545
800.421021,581
800.539978,567
800.658936,550
800.777893,569
800.896912,574
801.015747,542
801.134705,557
801.253723,551
801.37262,561
801.491638,564
801.610535,560
801.729492,566
801.84845,566
801.967407,562
802.086243,567
802.205261,552
802.324158,555
802.443115,572
802.562073,575
802.680969,585
802.799927,556
802.918762,574
803.037659,559
803.156677,558
803.275574,573
803.39447,569
803.513428,554
803.632263,551
803.751221,580
803.870117,579
803.989014,570
804.107971,559
804.226746,563
804.345642,584
804.4646,564
804.583496,556
804.702393,576
804.821228,584
804.940125,572
805.059021,553
805.177917,593
805.296814,564
805.415649,562
805.534546,587
805.653442,581
805.772278,589
805.891113,571
806.01001,589
806.128906,581
806.247742,581
806.366577,596
806.485413,582
806.604309,567
806.723145,549
806.84198,561
806.960876,571
807.079712,571
807.198486,601
807.317383,581
807.436218,578
807.554993,586
807.673889,571
807.792725,587
807.91156,586
808.030396,583
808.14917,582
808.268005,564
808.386841,594
808.505676,586
808.624451,597
808.743286,578
808.862122,582
808.980896,579
809.099731,570
809.218506,578
809.337341,577
809.456116,599
809.57489,595
809.693726,586
809.8125,573
809.931274,597
810.050049,605
810.168884,592
810.287659,596
810.406372,590
810.525269,589
810.643982,582
810.762756,589
810.881531,574
811.000305,611
811.11908,581
811.237854,560
811.356567,595
811.475403,581
811.594116,586
811.71283,581
811.831604,587
811.950378,585
812.069153,594
812.187927,593
812.30658,593
812.425415,601
812.544128,603
812.662781,597
812.781616,598
812.900269,587
813.019043,589
813.137756,581
813.256531,605
813.375244,610
813.493896,611
813.612671,575
813.731384,572
813.850037,590
813.96875,565
814.087524,570
814.206238,578
814.324951,577
814.443604,576
814.562256,584
814.68103,595
814.799683,583
814.918335,564
815.037109,583
815.155762,591
815.274475,574
815.393188,569
815.511841,589
815.630554,560
815.749146,577
815.867859,556
815.986572,574
816.105164,569
816.223877,574
816.342529,572
816.461182,584
816.579895,571
816.698486,590
816.817139,569
816.935791,574
817.054504,582
817.173096,579
817.291748,558
817.4104,568
817.529053,582
817.647644,557
817.766235,562
817.884949,552
818.00354,553
818.122192,565
818.240845,524
818.359436,548
818.478088,523
818.59668,541
818.715271,534
818.833923,517
818.952515,499
819.071106,507
819.189758,489
819.30835,531
819.426941,531
819.545532,505
819.664124,496
819.782715,501
819.901306,494
820.019897,517
820.138489,511
820.25708,503
820.375671,496
820.494202,508
820.612732,490
820.731384,501
820.849915,495
820.968506,504
821.087097,493
821.205627,480
821.324158,468
821.442749,483
821.561279,481
821.679871,497
821.798401,473
821.916931,479
822.035461,467
822.154053,493
822.272583,475
822.391174,500
822.509583,482
822.628174,487
822.746704,487
822.865234,483
822.983765,487
823.102295,481
823.220825,461
823.339294,474
823.457825,489
823.576355,486
823.694824,483
823.813354,474
823.931885,484
824.050354,484
824.168884,486
824.287354,492
824.405823,494
824.524353,494
824.642822,487
824.761353,490
824.879822,484
824.998291,498
825.116699,476
825.235291,479
825.353699,471
825.472168,472
825.590637,470
825.709106,468
825.827576,477
825.946045,488
826.064453,475
826.182983,456
826.301392,463
826.4198,487
826.53833,468
826.656738,476
826.775208,470
826.893677,460
827.012024,466
827.130493,469
827.248962,458
827.36731,456
827.485779,473
827.604248,462
827.722595,457
827.841064,495
827.959412,468
828.077942,466
828.196289,468
828.314636,456
828.433105,457
828.551514,477
828.669861,474
828.78833,465
828.906677,467
829.025085,454
829.143433,458
829.261841,475
829.38031,452
829.498657,463
829.617004,464
829.735413,457
829.85376,459
829.972107,474
830.090515,443
830.208862,449
830.327209,443
830.445557,475
830.563904,458
830.682312,464
830.800659,447
830.919006,438
831.037354,442
831.155701,476
831.274048,457
831.392395,460
831.51062,462
831.629028,473
831.747314,456
831.865662,468
831.984009,464
832.102356,453
832.220642,471
832.338928,463
832.457275,460
832.575623,450
832.693909,468
832.812134,481
832.930481,451
833.048828,467
833.167114,455
833.2854,471
833.403687,459
833.521973,462
833.640259,453
833.758545,457
833.876831,444
833.995056,460
834.113281,459
834.231628,465
834.349915,462
834.468201,490
834.586426,446
834.704651,463
834.822998,442
834.941162,446
835.059448,463
835.177673,466
835.295959,447
835.414246,456
835.53241,451
835.650635,459
835.768921,459
835.887146,455
836.005371,461
836.123596,473
836.241821,457
836.360046,469
836.478271,467
836.596497,478
836.714722,476
836.832886,476
836.95105,463
837.069336,467
837.1875,486
837.305725,470
837.423889,471
837.542053,493
837.660339,472
837.778503,451
837.896667,455
838.014832,492
838.132996,474
838.25116,469
838.369385,469
838.487488,479
838.605713,468
838.723877,467
838.84198,466
838.960205,484
839.078308,463
839.196472,485
839.314636,484
839.4328,491
839.550964,472
839.669067,470
839.787231,453
839.905396,493
840.023499,457
840.141602,462
840.259766,479
840.377869,473
840.495972,459
840.614136,476
840.732239,472
840.850342,467
840.968445,461
841.086548,463
841.204651,453
841.322754,480
841.440918,455
841.55896,474
841.677002,449
841.795166,477
841.913208,476
842.031311,476
842.149353,467
842.267456,451
842.385498,463
842.503601,471
842.621643,466
842.739746,460
842.857788,470
842.97583,464
843.093933,457
843.211975,471
843.330017,475
843.44812,461
843.566101,452
843.684204,468
843.802246,453
843.920227,468
844.038269,449
844.156311,481
844.274292,456
844.392395,453
844.510376,457
844.628357,458
844.74646,458
844.864441,476
844.982422,451
845.100403,472
845.218384,449
845.336426,452
845.454468,468
845.572449,458
845.69043,454
845.808411,466
845.926453,452
846.044373,465
846.162354,451
846.280396,472
846.398315,464
846.516296,476
846.634216,464
846.752197,460
846.870178,467
846.988098,454
847.106079,452
847.22406,476
847.34198,455
847.4599,459
847.577881,455
847.695801,466
847.813782,456
847.931641,460
848.049561,458
848.167603,472
848.285461,471
848.403381,467
848.521362,467
848.639221,471
848.75708,458
848.875,466
848.99292,455
849.110901,461
849.22876,467
849.34668,462
849.464539,472
849.582458,477
849.700317,463
849.818176,471
849.936096,452
850.053955,451
850.171875,458
850.289673,458
850.407593,467
850.525452,471
850.643311,467
850.761169,466
850.878967,469
850.996887,476
851.114746,475
851.232544,464
851.350403,466
851.468262,469
851.58606,458
851.703979,483
851.821777,466
851.939636,457
852.057434,474
852.175232,463
852.293091,462
852.410889,455
852.528687,462
852.646545,478
852.764343,473
852.88208,459
852.999939,445
853.117676,459
853.235535,454
853.353271,463
853.471069,469
853.588928,473
853.706604,450
853.824402,461
853.9422,464
854.059998,460
854.177734,454
854.295532,459
854.413269,454
854.531006,475
854.648804,466
854.766541,461
854.884277,463
855.002014,478
855.119751,462
855.237549,460
855.355225,460
855.473022,460
855.590698,455
855.708435,454
855.826172,469
855.943848,467
856.061646,449
856.179321,477
856.296997,447
856.414795,474
856.53241,471
856.650085,478
856.767822,443
856.885559,477
857.003174,469
857.120911,484
857.238586,479
857.356201,469
857.473938,461
857.591614,454
857.709351,448
857.826965,496
857.944641,463
858.062317,477
858.179993,457
858.297668,491
858.415283,459
858.532959,459
858.650574,452
858.768188,487
858.885803,455
859.003479,473
859.121094,468
859.23877,471
859.356384,465
859.473999,467
859.591675,469
859.709229,467
859.826843,471
859.944458,452
860.062012,472
860.179626,473
860.297302,448
860.414856,459
860.532471,442
860.650024,462
860.767639,450
860.885193,465
861.002808,458
861.120361,475
861.237976,455
861.35553,459
861.473022,461
861.590698,449
861.708191,463
861.825745,478
861.943298,440
862.060852,460
862.178406,447
862.295959,474
862.413513,459
862.531006,468
862.64856,464
862.766113,466
862.883667,467
863.00116,466
863.118713,490
863.236206,465
863.353699,457
863.471252,457
863.588745,453
863.706177,451
863.82373,443
863.941162,453
864.058716,456
864.176208,453
864.29364,465
864.411194,444
864.528687,458
864.646118,481
864.763611,461
864.881042,465
864.998535,456
865.116028,463
865.233459,465
865.350891,464
865.468384,447
865.585754,461
865.703308,452
865.820679,463
865.938171,480
866.055542,459
866.173035,461
866.290466,469
866.407837,457
866.52533,484
866.6427,480
866.760071,471
866.877563,468
866.994934,446
867.112305,454
867.229736,447
867.347107,463
867.464539,466
867.58197,464
867.699341,472
867.81665,452
867.934082,469
868.051453,464
868.168823,456
868.286194,454
868.403564,466
868.520935,471
868.638306,460
868.755676,461
868.872986,468
868.990295,452
869.107727,467
869.225037,462
869.342346,473
869.459717,461
869.577026,460
869.694336,459
869.811707,443
869.929016,458
870.046326,460
870.163635,462
870.280945,469
870.398254,456
870.515564,452
870.632812,449
870.750183,470
870.867432,488
870.984741,462
871.102051,474
871.219299,476
871.336609,451
871.453918,461
871.571106,489
871.688416,466
871.805664,474
871.922852,491
872.040222,455
872.157471,473
872.274719,463
872.391968,458
872.509155,447
872.626465,449
872.743652,461
872.860962,458
872.978149,464
873.095337,473
873.212646,454
873.329834,478
873.44696,466
873.564209,487
873.681396,478
873.798645,472
873.915894,461
874.03302,456
874.150208,469
874.267456,468
874.384583,473
874.501831,479
874.618958,462
874.736145,481
874.853333,460
874.970459,471
875.087646,467
875.204834,468
875.32196,462
875.439148,471
875.556274,460
875.673401,463
875.790527,440
875.907715,481
876.024841,469
876.141968,453
876.259094,441
876.376282,471
876.493347,477
876.610474,467
876.7276,472
876.844727,485
876.961853,450
877.078918,482
877.195984,459
877.313171,453
877.430237,452
877.547302,461
877.664368,472
877.781433,458
877.898499,473
878.015625,449
878.13269,462
878.249695,461
878.366821,460
878.483887,487
878.600952,454
878.717957,451
878.834961,441
878.952087,464
879.069092,475
879.186157,467
879.303162,473
879.420227,467
879.537231,471
879.654236,460
879.77124,454
879.888306,476
880.005249,451
880.122314,441
880.239319,465
880.356323,465
880.473328,475
880.590271,464
880.707275,452
880.824341,455
880.941284,450
881.058228,483
881.175232,460
881.292236,470
881.40918,463
881.526123,464
881.643066,456
881.760071,485
881.877014,474
881.993958,461
882.11084,471
882.227783,461
882.344727,462
882.46167,463
882.578613,451
882.695618,458
882.812439,468
882.929382,473
883.046326,470
883.163208,467
883.280151,468
883.397034,457
883.513916,468
883.630798,491
883.747742,493
883.864563,477
883.981506,463
884.098389,467
884.21521,453
884.332153,460
884.448975,465
884.565796,464
884.682678,472
884.7995,474
884.916443,477
885.033264,452
885.150085,459
885.266968,484
885.383789,471
885.500671,468
885.617493,492
885.734314,464
885.851196,468
885.967896,478
886.084717,493
886.201599,482
886.318359,491
886.435181,490
886.552002,477
886.668762,472
886.785645,484
886.902344,481
887.019165,478
887.135925,473
887.252747,469
887.369446,476
887.486267,461
887.603027,478
887.719788,472
887.836548,481
887.953247,472
888.070068,479
888.186829,478
888.303528,463
888.420288,471
888.536987,460
888.653687,479
888.770447,475
888.887146,473
889.003967,478
889.120667,479
889.237305,459
889.354065,465
889.470703,471
889.587463,466
889.704163,463
889.820862,450
889.937561,476
890.054199,456
890.170837,486
890.287598,453
890.404236,458
890.520874,470
890.637634,464
890.754211,477
890.87085,478
890.987549,457
891.104187,469
891.220886,464
891.337463,474
891.454102,476
891.57074,471
891.687378,458
891.804077,492
891.920654,467
892.037231,468
892.15387,482
892.270447,460
892.387085,464
892.503723,473
892.6203,483
892.736877,475
892.853516,468
892.970032,465
893.08667,481
893.203186,471
893.319763,447
893.43634,478
893.552917,488
893.669556,459
893.786011,482
893.902588,498
894.019165,466
894.135681,468
894.252197,463
894.368835,480
894.485291,474
894.601868,484
894.718384,456
894.8349,480
894.951355,466
895.067932,468
895.184448,479
895.300964,504
895.417419,469
895.533936,475
895.650452,469
895.766907,478
895.883423,473
895.999878,483
896.116333,454
896.232849,474
896.349304,460
896.465759,467
896.582214,476
896.698669,468
896.815125,445
896.931641,479
897.048035,456
897.164551,483
897.280884,472
897.397339,467
897.513794,485
897.630249,478
897.746582,464
897.863098,483
897.979431,481
898.095886,498
898.212341,474
898.328674,476
898.445129,476
898.561462,496
898.677795,474
898.794312,475
898.910645,442
899.026978,477
899.143433,472
899.259766,464
899.37616,483
899.492493,482
899.608765,467
899.725159,477
899.841553,472
899.957947,477
900.07428,473
900.190552,470
900.306946,486
900.423157,487
900.53949,484
900.655884,483
900.772156,473
900.888489,465
901.004822,486
901.121033,470
901.237366,485
901.353699,490
901.46991,492
901.586304,463
901.702515,479
901.818787,477
901.93512,485
902.051331,471
902.167603,478
902.283875,495
902.400085,463
902.516418,473
902.632629,470
902.74884,509
902.865112,503
902.981384,482
903.097595,482
903.213867,472
903.330017,498
903.446289,499
903.5625,484
903.67865,476
903.794922,455
903.911072,483
904.027344,475
904.143494,491
904.259705,485
904.375916,495
904.492065,480
904.608215,485
904.724426,480
904.840576,466
904.956726,470
905.072876,497
905.189087,495
905.305176,458
905.421387,476
905.537537,489
905.653687,472
905.769775,475
905.885925,494
906.002014,484
906.118164,463
906.234314,472
906.350403,510
906.466492,469
906.582642,461
906.69873,481
906.814758,472
906.930908,491
907.046936,459
907.163086,495
907.279175,493
907.395264,471
907.511353,479
907.62738,490
907.743408,495
907.859497,486
907.975525,466
908.091553,467
908.207703,463
908.32373,475
908.439758,478
908.555786,499
908.671814,480
908.787842,492
908.90387,491
909.019775,488
909.135864,461
909.251892,476
909.367859,474
909.483826,521
909.599854,498
909.715881,488
909.831848,482
909.947815,480
910.063782,461
910.179749,483
910.295776,471
910.411743,492
910.527649,482
910.643616,491
910.759583,485
910.875488,481
910.991455,487
911.107361,485
911.223267,472
911.339294,497
911.4552,466
911.571106,499
911.687073,502
911.802979,491
911.918823,476
912.034729,496
912.150635,455
912.266602,485
912.382446,489
912.498352,484
912.614197,475
912.730103,462
912.846008,486
792.44574,632
792.56488,622
792.68396,688
792.80304,687
792.92218,613
793.041199,608
793.160339,596
793.279419,627
793.398499,589
793.517578,568
793.636658,598
793.755737,632
793.874817,615
793.993896,603
794.112976,586
794.232056,584
794.351074,593
794.470215,612
794.589233,596
794.708313,587
794.827393,582
794.946411,594
795.065552,599
795.18457,598
795.303589,598
795.422668,581
795.541687,574
795.660767,597
795.779846,573
795.898865,593
796.017883,590
796.136963,586
796.255981,609
796.375061,568
796.49408,578
796.613037,593
796.732117,574
796.851135,570
796.970154,581
797.089233,563
797.208191,583
797.327271,586
797.446228,565
797.565186,576
797.684265,567
797.803223,557
797.922241,563
798.04126,556
798.160278,544
798.279297,576
798.398315,541
798.517273,559
798.636292,566
798.75531,538
798.874268,560
798.993286,558
799.112244,584
799.231323,555
799.350281,560
799.469238,572
799.588257,562
799.707153,581
799.826111,558
799.945129,570
800.064087,568
800.183044,569
800.302063,558
800.421021,563
800.539978,573
800.658936,554
800.777893,555
800.896912,582
801.015747,577
801.134705,556
801.253723,544
801.37262,559
801.491638,562
801.610535,566
801.729492,573
801.84845,564
801.967407,551
802.086243,547
802.205261,569
802.324158,554
802.443115,570
802.562073,547
802.680969,543
802.799927,571
802.918762,566
803.037659,575
803.156677,562
803.275574,566
803.39447,575
803.513428,565
803.632263,580
803.751221,535
803.870117,554
803.989014,555
804.107971,572
804.226746,581
804.345642,561
804.4646,570
804.583496,562
804.702393,578
804.821228,565
804.940125,578
805.059021,551
805.177917,543
805.296814,552
805.415649,562
805.534546,578
805.653442,576
805.772278,582
805.891113,588
806.01001,550
806.128906,581
806.247742,586
806.366577,569
806.485413,584
806.604309,590
806.723145,573
806.84198,590
806.960876,570
807.079712,608
807.198486,576
807.317383,580
807.436218,583
807.554993,585
807.673889,577
807.792725,583
807.91156,563
808.030396,602
808.14917,579
808.268005,573
808.386841,593
808.505676,577
808.624451,585
808.743286,564
808.862122,568
808.980896,592
809.099731,588
809.218506,569
809.337341,581
809.456116,593
809.57489,613
809.693726,594
809.8125,583
809.931274,575
810.050049,602
810.168884,598
810.287659,572
810.406372,612
810.525269,582
810.643982,604
810.762756,602
810.881531,586
811.000305,596
811.11908,586
811.237854,608
811.356567,600
811.475403,588
811.594116,562
811.71283,577
811.831604,595
811.950378,593
812.069153,575
812.187927,597
812.30658,607
812.425415,589
812.544128,611
812.662781,590
812.781616,605
812.900269,598
813.019043,588
813.137756,593
813.256531,579
813.375244,582
813.493896,593
813.612671,588
813.731384,598
813.850037,588
813.96875,585
814.087524,584
814.206238,581
814.324951,591
814.443604,603
814.562256,590
814.68103,598
814.799683,589
814.918335,575
815.037109,569
815.155762,603
815.274475,588
815.393188,605
815.511841,567
815.630554,589
815.749146,594
815.867859,567
815.986572,579
816.105164,565
816.223877,583
816.342529,565
816.461182,583
816.579895,587
816.698486,575
816.817139,585
816.935791,584
817.054504,592
817.173096,601
817.291748,579
817.4104,570
817.529053,581
817.647644,556
817.766235,573
817.884949,560
818.00354,550
818.122192,531
818.240845,530
818.359436,526
818.478088,525
818.59668,536
818.715271,532
818.833923,517
818.952515,510
819.071106,513
819.189758,493
819.30835,500
819.426941,504
819.545532,475
819.664124,492
819.782715,491
819.901306,515
820.019897,497
820.138489,482
820.25708,490
820.375671,509
820.494202,514
820.612732,502
820.731384,484
820.849915,491
820.968506,507
821.087097,493
821.205627,475
821.324158,493
821.442749,483
821.561279,485
821.679871,500
821.798401,488
821.916931,494
822.035461,501
822.154053,475
822.272583,474
822.391174,470
822.509583,494
822.628174,504
822.746704,481
822.865234,479
822.983765,486
823.102295,473
823.220825,475
823.339294,482
823.457825,476
823.576355,469
823.694824,459
823.813354,477
823.931885,460
824.050354,499
824.168884,505
824.287354,469
824.405823,497
824.524353,491
824.642822,474
824.761353,483
824.879822,469
824.998291,475
825.116699,485
825.235291,478
825.353699,489
825.472168,473
825.590637,475
825.709106,466
825.827576,467
825.946045,472
826.064453,463
826.182983,480
826.301392,485
826.4198,464
826.53833,467
826.656738,450
826.775208,467
826.893677,462
827.012024,457
827.130493,474
827.248962,483
827.36731,461
827.485779,463
827.604248,495
827.722595,470
827.841064,449
827.959412,478
828.077942,467
828.196289,458
828.314636,456
828.433105,460
828.551514,482
828.669861,480
828.78833,448
828.906677,462
829.025085,471
829.143433,481
829.261841,462
829.38031,453
829.498657,456
829.617004,457
829.735413,478
829.85376,473
829.972107,458
830.090515,455
830.208862,456
830.327209,455
830.445557,477
830.563904,481
830.682312,473
830.800659,461
830.919006,464
831.037354,463
831.155701,450
831.274048,451
831.392395,448
831.51062,455
831.629028,450
831.747314,456
831.865662,469
831.984009,445
832.102356,478
832.220642,465
832.338928,462
832.457275,484
832.575623,466
832.693909,480
832.812134,455
832.930481,464
833.048828,468
833.167114,476
833.2854,477
833.403687,457
833.521973,470
833.640259,453
833.758545,456
833.876831,479
833.995056,461
834.113281,458
834.231628,457
834.349915,466
834.468201,486
834.586426,455
834.704651,456
834.822998,470
834.941162,454
835.059448,460
835.177673,474
835.295959,437
835.414246,492
835.53241,475
835.650635,461
835.768921,450
835.887146,471
836.005371,463
836.123596,460
836.241821,469
836.360046,446
836.478271,460
836.596497,462
836.714722,474
836.832886,474
836.95105,467
837.069336,466
837.1875,490
837.305725,480
837.423889,479
837.542053,487
837.660339,464
837.778503,481
837.896667,482
838.014832,489
838.132996,478
838.25116,483
838.369385,492
838.487488,471
838.605713,470
838.723877,490
838.84198,489
838.960205,487
839.078308,469
839.196472,471
839.314636,484
839.4328,473
839.550964,482
839.669067,466
839.787231,474
839.905396,450
840.023499,467
840.141602,462
840.259766,462
840.377869,477
840.495972,471
840.614136,449
840.732239,480
840.850342,448
840.968445,476
841.086548,476
841.204651,472
841.322754,479
841.440918,483
841.55896,471
841.677002,464
841.795166,471
841.913208,474
842.031311,469
842.149353,464
842.267456,475
842.385498,478
842.503601,474
842.621643,489
842.739746,465
842.857788,474
842.97583,471
843.093933,461
843.211975,476
843.330017,472
843.44812,457
843.566101,465
843.684204,465
843.802246,464
843.920227,459
844.038269,486
844.156311,446
844.274292,467
844.392395,450
844.510376,452
844.628357,451
844.74646,470
844.864441,451
844.982422,480
845.100403,453
845.218384,447
845.336426,464
845.454468,484
845.572449,458
845.69043,460
845.808411,465
845.926453,473
846.044373,446
846.162354,475
846.280396,443
846.398315,465
846.516296,458
846.634216,457
846.752197,448
846.870178,457
846.988098,473
847.106079,453
847.22406,469
847.34198,475
847.4599,462
847.577881,473
847.695801,457
847.813782,468
847.931641,476
848.049561,473
848.167603,463
848.285461,482
848.403381,459
848.521362,460
848.639221,456
848.75708,467
848.875,463
848.99292,468
849.110901,466
849.22876,469
849.34668,468
849.464539,476
849.582458,450
849.700317,461
849.818176,459
849.936096,454
850.053955,446
850.171875,456
850.289673,474
850.407593,462
850.525452,469
850.643311,460
850.761169,460
850.878967,466
850.996887,448
851.114746,466
851.232544,445
851.350403,465
851.468262,458
851.58606,481
851.703979,463
851.821777,458
851.939636,456
852.057434,463
852.175232,467
852.293091,456
852.410889,443
852.528687,475
852.646545,468
852.764343,466
852.88208,454
852.999939,461
853.117676,474
853.235535,478
853.353271,466
853.471069,449
853.588928,445
853.706604,470
853.824402,462
853.9422,477
854.059998,449
854.177734,472
854.295532,455
854.413269,452
854.531006,477
854.648804,476
854.766541,473
854.884277,465
855.002014,464
855.119751,465
855.237549,485
855.355225,474
855.473022,456
855.590698,445
855.708435,476
855.826172,461
855.943848,462
856.061646,481
856.179321,473
856.296997,468
856.414795,479
856.53241,443
856.650085,448
856.767822,470
856.885559,477
857.003174,486
857.120911,460
857.238586,456
857.356201,457
857.473938,464
857.591614,469
857.709351,484
857.826965,483
857.944641,469
858.062317,456
858.179993,473
858.297668,460
858.415283,463
858.532959,461
858.650574,476
858.768188,487
858.885803,480
859.003479,438
859.121094,463
859.23877,468
859.356384,451
859.473999,469
859.591675,472
859.709229,472
859.826843,464
859.944458,477
860.062012,466
860.179626,450
860.297302,455
860.414856,461
860.532471,455
860.650024,459
860.767639,444
860.885193,467
861.002808,470
861.120361,447
861.237976,461
861.35553,455
861.473022,465
861.590698,475
861.708191,462
861.825745,471
861.943298,450
862.060852,452
862.178406,478
862.295959,452
862.413513,466
862.531006,477
862.64856,458
862.766113,469
862.883667,458
863.00116,477
863.118713,466
863.236206,458
863.353699,457
863.471252,467
863.588745,471
863.706177,465
863.82373,462
863.941162,457
864.058716,451
864.176208,440
864.29364,467
864.411194,475
864.528687,466
864.646118,457
864.763611,464
864.881042,460
864.998535,465
865.116028,465
865.233459,458
865.350891,454
865.468384,455
865.585754,465
865.703308,447
865.820679,451
865.938171,464
866.055542,442
866.173035,444
866.290466,457
866.407837,466
866.52533,456
866.6427,478
866.760071,446
866.877563,493
866.994934,472
867.112305,484
867.229736,465
867.347107,472
867.464539,468
867.58197,480
867.699341,450
867.81665,469
867.934082,452
868.051453,456
868.168823,473
868.286194,471
868.403564,446
868.520935,474
868.638306,481
868.755676,471
868.872986,479
868.990295,462
869.107727,469
869.225037,452
869.342346,460
869.459717,457
869.577026,455
869.694336,470
869.811707,457
869.929016,478
870.046326,464
870.163635,464
870.280945,459
870.398254,475
870.515564,468
870.632812,453
870.750183,471
870.867432,468
870.984741,456
871.102051,463
871.219299,461
871.336609,479
871.453918,455
871.571106,470
871.688416,467
871.805664,466
871.922852,453
872.040222,466
872.157471,476
872.274719,483
872.391968,471
872.509155,472
872.626465,455
872.743652,485
872.860962,453
872.978149,453
873.095337,468
873.212646,468
873.329834,485
873.44696,455
873.564209,465
873.681396,465
873.798645,439
873.915894,477
874.03302,454
874.150208,479
874.267456,469
874.384583,489
874.501831,465
874.618958,469
874.736145,470
874.853333,486
874.970459,474
875.087646,446
875.204834,454
875.32196,467
875.439148,477
875.556274,476
875.673401,482
875.790527,481
875.907715,467
876.024841,464
876.141968,458
876.259094,485
876.376282,471
876.493347,484
876.610474,467
876.7276,473
876.844727,484
876.961853,486
877.078918,459
877.195984,468
877.313171,470
877.430237,465
877.547302,474
877.664368,453
877.781433,464
877.898499,460
878.015625,474
878.13269,467
878.249695,471
878.366821,488
878.483887,471
878.600952,475
878.717957,460
878.834961,466
878.952087,457
879.069092,479
879.186157,470
879.303162,471
879.420227,464
879.537231,454
879.654236,463
879.77124,480
879.888306,452
880.005249,468
880.122314,479
880.239319,466
880.356323,472
880.473328,465
880.590271,465
880.707275,458
880.824341,468
880.941284,473
881.058228,443
881.175232,475
881.292236,450
881.40918,461
881.526123,465
881.643066,464
881.760071,468
881.877014,472
881.993958,479
882.11084,454
882.227783,462
882.344727,467
882.46167,474
882.578613,471
882.695618,464
882.812439,490
882.929382,458
883.046326,471
883.163208,477
883.280151,467
883.397034,478
883.513916,470
883.630798,485
883.747742,478
883.864563,460
883.981506,462
884.098389,448
884.21521,473
884.332153,471
884.448975,450
884.565796,473
884.682678,464
884.7995,455
884.916443,469
885.033264,495
885.150085,487
885.266968,482
885.383789,492
885.500671,475
885.617493,483
885.734314,472
885.851196,496
885.967896,478
886.084717,494
886.201599,480
886.318359,476
886.435181,463
886.552002,493
886.668762,481
886.785645,501
886.902344,483
887.019165,459
887.135925,478
887.252747,480
887.369446,470
887.486267,490
887.603027,468
887.719788,473
887.836548,466
887.953247,460
888.070068,459
888.186829,486
888.303528,491
888.420288,465
888.536987,464
888.653687,471
888.770447,476
888.887146,484
889.003967,477
889.120667,493
889.237305,463
889.354065,485
889.470703,460
889.587463,459
889.704163,480
889.820862,480
889.937561,484
890.054199,478
890.170837,464
890.287598,466
890.404236,456
890.520874,488
890.637634,465
890.754211,480
890.87085,482
890.987549,468
891.104187,453
891.220886,477
891.337463,480
891.454102,474
891.57074,474
891.687378,471
891.804077,474
891.920654,470
892.037231,471
892.15387,484
892.270447,475
892.387085,470
892.503723,480
892.6203,476
892.736877,477
892.853516,472
892.970032,482
893.08667,482
893.203186,483
893.319763,473
893.43634,481
893.552917,449
893.669556,475
893.786011,466
893.902588,460
894.019165,472
894.135681,490
894.252197,463
894.368835,485
894.485291,480
894.601868,461
894.718384,475
894.8349,465
894.951355,454
895.067932,472
895.184448,467
895.300964,492
895.417419,470
895.533936,477
895.650452,482
895.766907,471
895.883423,490
895.999878,492
896.116333,479
896.232849,475
896.349304,477
896.465759,466
896.582214,486
896.698669,482
896.815125,483
896.931641,470
897.048035,478
897.164551,468
897.280884,466
897.397339,480
897.513794,470
897.630249,478
897.746582,478
897.863098,482
897.979431,484
898.095886,472
898.212341,488
898.328674,467
898.445129,453
898.561462,481
898.677795,468
898.794312,495
898.910645,496
899.026978,473
899.143433,488
899.259766,479
899.37616,497
899.492493,474
899.608765,473
899.725159,481
899.841553,498
899.957947,488
900.07428,491
900.190552,484
900.306946,494
900.423157,494
900.53949,502
900.655884,465
900.772156,499
900.888489,483
901.004822,478
901.121033,484
901.237366,474
901.353699,490
901.46991,475
901.586304,481
901.702515,480
901.818787,479
901.93512,486
902.051331,474
902.167603,483
902.283875,494
902.400085,495
902.516418,471
902.632629,495
902.74884,493
902.865112,504
902.981384,485
903.097595,490
903.213867,497
903.330017,485
903.446289,483
903.5625,483
903.67865,490
903.794922,497
903.911072,499
904.027344,477
904.143494,485
904.259705,490
904.375916,475
904.492065,487
904.608215,495
904.724426,469
904.840576,494
904.956726,493
905.072876,471
905.189087,497
905.305176,486
905.421387,482
905.537537,475
905.653687,480
905.769775,492
905.885925,472
906.002014,479
906.118164,457
906.234314,490
906.350403,475
906.466492,489
906.582642,492
906.69873,477
906.814758,494
906.930908,488
907.046936,466
907.163086,484
907.279175,490
907.395264,464
907.511353,488
907.62738,476
907.743408,472
907.859497,462
907.975525,514
908.091553,485
908.207703,488
908.32373,467
908.439758,487
908.555786,481
908.671814,476
908.787842,467
908.90387,494
909.019775,474
909.135864,482
909.251892,499
909.367859,501
909.483826,484
909.599854,488
909.715881,497
909.831848,468
909.947815,467
910.063782,494
910.179749,468
910.295776,487
910.411743,494
910.527649,472
910.643616,483
910.759583,496
910.875488,484
910.991455,466
911.107361,478
911.223267,474
911.339294,492
911.4552,467
911.571106,476
911.687073,488
911.802979,493
911.918823,498
912.034729,488
912.150635,494
912.266602,492
912.382446,484
912.498352,478
912.614197,464
912.730103,502
912.846008,479
