792.44574,607
792.56488,629
792.68396,679
792.80304,655
792.92218,617
793.041199,585
793.160339,587
793.279419,606
793.398499,600
793.517578,572
793.636658,595
793.755737,594
793.874817,600
793.993896,600
794.112976,592
794.232056,576
794.351074,585
794.470215,598
794.589233,578
794.708313,573
794.827393,588
794.946411,572
795.065552,626
795.18457,568
795.303589,604
795.422668,585
795.541687,584
795.660767,569
795.779846,570
795.898865,565
796.017883,597
796.136963,566
796.255981,576
796.375061,596
796.49408,568
796.613037,565
796.732117,561
796.851135,584
796.970154,596
797.089233,570
797.208191,599
797.327271,567
797.446228,546
797.565186,565
797.684265,591
797.803223,569
797.922241,560
798.04126,582
798.160278,555
798.279297,573
798.398315,581
798.517273,553
798.636292,588
798.75531,548
798.874268,572
798.993286,552
799.112244,573
799.231323,565
799.350281,571
799.469238,569
799.588257,589
799.707153,557
799.826111,579
799.945129,552
800.064087,559
800.183044,572
800.302063,543
800.421021,593
800.539978,573
800.658936,570
800.777893,557
800.896912,559
801.015747,583
801.134705,556
801.253723,560
801.37262,591
801.491638,554
801.610535,572
801.729492,580
801.84845,577
801.967407,561
802.086243,558
802.205261,577
802.324158,563
802.443115,576
802.562073,572
802.680969,563
802.799927,594
802.918762,562
803.037659,577
803.156677,592
803.275574,580
803.39447,587
803.513428,579
803.632263,560
803.751221,572
803.870117,581
803.989014,576
804.107971,593
804.226746,578
804.345642,576
804.4646,602
804.583496,579
804.702393,595
804.821228,585
804.940125,593
805.059021,579
805.177917,596
805.296814,578
805.415649,605
805.534546,609
805.653442,566
805.772278,619
805.891113,586
806.01001,577
806.128906,582
806.247742,604
806.366577,594
806.485413,586
806.604309,607
806.723145,606
806.84198,613
806.960876,608
807.079712,598
807.198486,613
807.317383,621
807.436218,593
807.554993,593
807.673889,620
807.792725,594
807.91156,627
808.030396,614
808.14917,592
808.268005,578
808.386841,614
808.505676,596
808.624451,626
808.743286,597
808.862122,603
808.980896,608
809.099731,597
809.218506,618
809.337341,613
809.456116,587
809.57489,617
809.693726,608
809.8125,596
809.931274,616
810.050049,588
810.168884,621
810.287659,603
810.406372,596
810.525269,605
810.643982,589
810.762756,611
810.881531,613
811.000305,609
811.11908,604
811.237854,588
811.356567,597
811.475403,597
811.594116,608
811.71283,616
811.831604,609
811.950378,629
812.069153,608
812.187927,602
812.30658,621
812.425415,611
812.544128,609
812.662781,609
812.781616,623
812.900269,619
813.019043,614
813.137756,625
813.256531,621
813.375244,599
813.493896,632
813.612671,633
813.731384,593
813.850037,615
813.96875,614
814.087524,624
814.206238,610
814.324951,606
814.443604,625
814.562256,606
814.68103,600
814.799683,606
814.918335,598
815.037109,620
815.155762,602
815.274475,596
815.393188,604
815.511841,599
815.630554,591
815.749146,596
815.867859,584
815.986572,589
816.105164,604
816.223877,612
816.342529,593
816.461182,599
816.579895,609
816.698486,577
816.817139,585
816.935791,597
817.054504,600
817.173096,571
817.291748,586
817.4104,588
817.529053,606
817.647644,568
817.766235,579
817.884949,563
818.00354,542
818.122192,554
818.240845,529
818.359436,547
818.478088,518
818.59668,518
818.715271,540
818.833923,519
818.952515,519
819.071106,542
819.189758,498
819.30835,518
819.426941,504
819.545532,523
819.664124,514
819.782715,488
819.901306,508
820.019897,507
820.138489,503
820.25708,516
820.375671,498
820.494202,485
820.612732,523
820.731384,495
820.849915,485
820.968506,495
821.087097,492
821.205627,491
821.324158,500
821.442749,486
821.561279,482
821.679871,499
821.798401,495
821.916931,473
822.035461,490
822.154053,477
822.272583,489
822.391174,476
822.509583,488
822.628174,480
822.746704,474
822.865234,464
822.983765,467
823.102295,488
823.220825,497
823.339294,493
823.457825,494
823.576355,501
823.694824,491
823.813354,475
823.931885,493
824.050354,498
824.168884,519
824.287354,474
824.405823,470
824.524353,494
824.642822,482
824.761353,489
824.879822,469
824.998291,492
825.116699,487
825.235291,505
825.353699,491
825.472168,468
825.590637,470
825.709106,485
825.827576,479
825.946045,484
826.064453,485
826.182983,498
826.301392,487
826.4198,486
826.53833,459
826.656738,431
826.775208,464
826.893677,454
827.012024,463
827.130493,482
827.248962,476
827.36731,457
827.485779,471
827.604248,449
827.722595,454
827.841064,469
827.959412,471
828.077942,477
828.196289,475
828.314636,459
828.433105,459
828.551514,468
828.669861,459
828.78833,474
828.906677,437
829.025085,473
829.143433,450
829.261841,479
829.38031,442
829.498657,477
829.617004,464
829.735413,491
829.85376,452
829.972107,441
830.090515,486
830.208862,452
830.327209,450
830.445557,461
830.563904,463
830.682312,484
830.800659,448
830.919006,445
831.037354,452
831.155701,471
831.274048,450
831.392395,470
831.51062,456
831.629028,455
831.747314,443
831.865662,463
831.984009,453
832.102356,457
832.220642,454
832.338928,481
832.457275,457
832.575623,453
832.693909,458
832.812134,463
832.930481,458
833.048828,448
833.167114,459
833.2854,471
833.403687,456
833.521973,456
833.640259,466
833.758545,472
833.876831,433
833.995056,461
834.113281,447
834.231628,460
834.349915,460
834.468201,477
834.586426,458
834.704651,469
834.822998,475
834.941162,455
835.059448,467
835.177673,477
835.295959,469
835.414246,467
835.53241,463
835.650635,484
835.768921,448
835.887146,463
836.005371,471
836.123596,474
836.241821,475
836.360046,467
836.478271,462
836.596497,479
836.714722,446
836.832886,481
836.95105,480
837.069336,482
837.1875,476
837.305725,485
837.423889,469
837.542053,464
837.660339,464
837.778503,469
837.896667,472
838.014832,486
838.132996,476
838.25116,493
838.369385,477
838.487488,468
838.605713,451
838.723877,475
838.84198,466
838.960205,496
839.078308,487
839.196472,486
839.314636,481
839.4328,482
839.550964,467
839.669067,473
839.787231,469
839.905396,477
840.023499,483
840.141602,471
840.259766,460
840.377869,475
840.495972,470
840.614136,484
840.732239,479
840.850342,479
840.968445,476
841.086548,482
841.204651,478
841.322754,487
841.440918,457
841.55896,465
841.677002,473
841.795166,462
841.913208,456
842.031311,465
842.149353,457
842.267456,458
842.385498,459
842.503601,475
842.621643,441
842.739746,452
842.857788,451
842.97583,458
843.093933,442
843.211975,450
843.330017,472
843.44812,474
843.566101,468
843.684204,470
843.802246,445
843.920227,452
844.038269,445
844.156311,450
844.274292,473
844.392395,453
844.510376,454
844.628357,450
844.74646,441
844.864441,462
844.982422,452
845.100403,452
845.218384,455
845.336426,456
845.454468,456
845.572449,460
845.69043,468
845.808411,443
845.926453,460
846.044373,461
846.162354,465
846.280396,458
846.398315,435
846.516296,478
846.634216,456
846.752197,460
846.870178,456
846.988098,464
847.106079,448
847.22406,445
847.34198,442
847.4599,451
847.577881,437
847.695801,471
847.813782,448
847.931641,475
848.049561,461
848.167603,452
848.285461,438
848.403381,458
848.521362,453
848.639221,455
848.75708,460
848.875,464
848.99292,459
849.110901,459
849.22876,458
849.34668,458
849.464539,455
849.582458,458
849.700317,461
849.818176,468
849.936096,466
850.053955,447
850.171875,441
850.289673,452
850.407593,449
850.525452,457
850.643311,444
850.761169,465
850.878967,465
850.996887,494
851.114746,443
851.232544,458
851.350403,463
851.468262,472
851.58606,448
851.703979,455
851.821777,456
851.939636,443
852.057434,450
852.175232,457
852.293091,448
852.410889,476
852.528687,453
852.646545,461
852.764343,451
852.88208,461
852.999939,440
853.117676,468
853.235535,450
853.353271,479
853.471069,462
853.588928,435
853.706604,454
853.824402,479
853.9422,459
854.059998,441
854.177734,458
854.295532,456
854.413269,447
854.531006,439
854.648804,463
854.766541,457
854.884277,452
855.002014,457
855.119751,465
855.237549,472
855.355225,444
855.473022,459
855.590698,446
855.708435,447
855.826172,451
855.943848,449
856.061646,449
856.179321,457
856.296997,453
856.414795,443
856.53241,442
856.650085,454
856.767822,453
856.885559,484
857.003174,444
857.120911,457
857.238586,466
857.356201,480
857.473938,432
857.591614,479
857.709351,458
857.826965,469
857.944641,449
858.062317,473
858.179993,475
858.297668,455
858.415283,477
858.532959,447
858.650574,458
858.768188,468
858.885803,474
859.003479,450
859.121094,467
859.23877,478
859.356384,470
859.473999,465
859.591675,456
859.709229,473
859.826843,460
859.944458,470
860.062012,473
860.179626,470
860.297302,460
860.414856,466
860.532471,454
860.650024,457
860.767639,468
860.885193,449
861.002808,467
861.120361,469
861.237976,457
861.35553,472
861.473022,448
861.590698,465
861.708191,443
861.825745,474
861.943298,446
862.060852,464
862.178406,464
862.295959,456
862.413513,443
862.531006,456
862.64856,478
862.766113,461
862.883667,455
863.00116,469
863.118713,462
863.236206,459
863.353699,464
863.471252,470
863.588745,458
863.706177,460
863.82373,472
863.941162,447
864.058716,455
864.176208,454
864.29364,470
864.411194,456
864.528687,460
864.646118,471
864.763611,460
864.881042,466
864.998535,454
865.116028,473
865.233459,460
865.350891,458
865.468384,480
865.585754,451
865.703308,460
865.820679,468
865.938171,469
866.055542,455
866.173035,452
866.290466,452
866.407837,461
866.52533,461
866.6427,460
866.760071,479
866.877563,468
866.994934,468
867.112305,445
867.229736,456
867.347107,440
867.464539,490
867.58197,481
867.699341,476
867.81665,468
867.934082,478
868.051453,461
868.168823,457
868.286194,448
868.403564,477
868.520935,466
868.638306,477
868.755676,469
868.872986,476
868.990295,439
869.107727,488
869.225037,456
869.342346,456
869.459717,463
869.577026,469
869.694336,452
869.811707,479
869.929016,457
870.046326,463
870.163635,453
870.280945,459
870.398254,457
870.515564,463
870.632812,454
870.750183,489
870.867432,452
870.984741,462
871.102051,473
871.219299,486
871.336609,447
871.453918,477
871.571106,483
871.688416,467
871.805664,476
871.922852,485
872.040222,464
872.157471,467
872.274719,458
872.391968,471
872.509155,465
872.626465,456
872.743652,469
872.860962,466
872.978149,461
873.095337,479
873.212646,480
873.329834,469
873.44696,445
873.564209,459
873.681396,457
873.798645,459
873.915894,446
874.03302,462
874.150208,476
874.267456,481
874.384583,456
874.501831,468
874.618958,464
874.736145,478
874.853333,454
874.970459,469
875.087646,435
875.204834,479
875.32196,468
875.439148,450
875.556274,451
875.673401,483
875.790527,453
875.907715,480
876.024841,491
876.141968,464
876.259094,459
876.376282,459
876.493347,443
876.610474,476
876.7276,460
876.844727,480
876.961853,449
877.078918,468
877.195984,460
877.313171,480
877.430237,472
877.547302,477
877.664368,485
877.781433,455
877.898499,475
878.015625,459
878.13269,473
878.249695,467
878.366821,453
878.483887,472
878.600952,482
878.717957,475
878.834961,461
878.952087,459
879.069092,464
879.186157,479
879.303162,462
879.420227,467
879.537231,474
879.654236,466
879.77124,470
879.888306,467
880.005249,482
880.122314,490
880.239319,463
880.356323,481
880.473328,483
880.590271,473
880.707275,471
880.824341,464
880.941284,465
881.058228,478
881.175232,471
881.292236,475
881.40918,472
881.526123,459
881.643066,493
881.760071,468
881.877014,479
881.993958,467
882.11084,483
882.227783,484
882.344727,465
882.46167,480
882.578613,467
882.695618,478
882.812439,475
882.929382,473
883.046326,463
883.163208,483
883.280151,464
883.397034,476
883.513916,476
883.630798,480
883.747742,473
883.864563,469
883.981506,452
884.098389,455
884.21521,460
884.332153,473
884.448975,464
884.565796,481
884.682678,476
884.7995,468
884.916443,473
885.033264,462
885.150085,471
885.266968,485
885.383789,481
885.500671,478
885.617493,493
885.734314,492
885.851196,478
885.967896,479
886.084717,460
886.201599,475
886.318359,486
886.435181,476
886.552002,477
886.668762,490
886.785645,492
886.902344,487
887.019165,461
887.135925,483
887.252747,466
887.369446,466
887.486267,470
887.603027,476
887.719788,471
887.836548,468
887.953247,474
888.070068,471
888.186829,457
888.303528,491
888.420288,465
888.536987,478
888.653687,466
888.770447,471
888.887146,479
889.003967,479
889.120667,467
889.237305,468
889.354065,469
889.470703,475
889.587463,472
889.704163,475
889.820862,468
889.937561,460
890.054199,457
890.170837,487
890.287598,470
890.404236,476
890.520874,468
890.637634,474
890.754211,483
890.87085,467
890.987549,474
891.104187,472
891.220886,482
891.337463,462
891.454102,480
891.57074,479
891.687378,466
891.804077,480
891.920654,475
892.037231,479
892.15387,506
892.270447,499
892.387085,448
892.503723,481
892.6203,494
892.736877,495
892.853516,463
892.970032,499
893.08667,496
893.203186,491
893.319763,479
893.43634,474
893.552917,484
893.669556,485
893.786011,485
893.902588,490
894.019165,471
894.135681,471
894.252197,466
894.368835,475
894.485291,469
894.601868,460
894.718384,473
894.8349,486
894.951355,488
895.067932,476
895.184448,469
895.300964,474
895.417419,468
895.533936,507
895.650452,485
895.766907,483
895.883423,490
895.999878,482
896.116333,462
896.232849,483
896.349304,493
896.465759,488
896.582214,492
896.698669,474
896.815125,496
896.931641,475
897.048035,477
897.164551,475
897.280884,474
897.397339,502
897.513794,485
897.630249,484
897.746582,469
897.863098,491
897.979431,492
898.095886,483
898.212341,491
898.328674,490
898.445129,484
898.561462,482
898.677795,471
898.794312,480
898.910645,487
899.026978,492
899.143433,489
899.259766,471
899.37616,485
899.492493,466
899.608765,507
899.725159,504
899.841553,467
899.957947,479
900.07428,491
900.190552,492
900.306946,478
900.423157,484
900.53949,503
900.655884,479
900.772156,484
900.888489,492
901.004822,484
901.121033,496
901.237366,468
901.353699,475
901.46991,483
901.586304,476
901.702515,492
901.818787,473
901.93512,483
902.051331,479
902.167603,495
902.283875,495
902.400085,483
902.516418,485
902.632629,496
902.74884,498
902.865112,473
902.981384,497
903.097595,486
903.213867,507
903.330017,500
903.446289,488
903.5625,484
903.67865,498
903.794922,478
903.911072,469
904.027344,497
904.143494,488
904.259705,482
904.375916,473
904.492065,481
904.608215,497
904.724426,487
904.840576,494
904.956726,487
905.072876,482
905.189087,489
905.305176,481
905.421387,506
905.537537,498
905.653687,500
905.769775,496
905.885925,481
906.002014,481
906.118164,480
906.234314,491
906.350403,492
906.466492,493
906.582642,495
906.69873,496
906.814758,495
906.930908,507
907.046936,469
907.163086,502
907.279175,472
907.395264,496
907.511353,472
907.62738,476
907.743408,485
907.859497,489
907.975525,473
908.091553,477
908.207703,497
908.32373,473
908.439758,475
908.555786,517
908.671814,497
908.787842,492
908.90387,468
909.019775,491
909.135864,470
909.251892,474
909.367859,479
909.483826,491
909.599854,498
909.715881,487
909.831848,475
909.947815,485
910.063782,491
910.179749,500
910.295776,489
910.411743,496
910.527649,515
910.643616,504
910.759583,507
910.875488,497
910.991455,475
911.107361,482
911.223267,508
911.339294,496
911.4552,471
911.571106,483
911.687073,487
911.802979,500
911.918823,494
912.034729,486
912.150635,496
912.266602,512
912.382446,461
912.498352,501
912.614197,499
912.730103,498
912.846008,499
792.44574,624
792.56488,646
792.68396,677
792.80304,670
792.92218,613
793.041199,603
793.160339,580
793.279419,624
793.398499,612
793.517578,603
793.636658,612
793.755737,602
793.874817,620
793.993896,648
794.112976,596
794.232056,594
794.351074,579
794.470215,599
794.589233,611
794.708313,577
794.827393,578
794.946411,579
795.065552,606
795.18457,602
795.303589,579
795.422668,610
795.541687,578
795.660767,590
795.779846,588
795.898865,586
796.017883,579
796.136963,564
796.255981,588
796.375061,553
796.49408,591
796.613037,589
796.732117,576
796.851135,590
796.970154,576
797.089233,585
797.208191,567
797.327271,551
797.446228,563
797.565186,570
797.684265,577
797.803223,579
797.922241,570
798.04126,574
798.160278,564
798.279297,594
798.398315,549
798.517273,574
798.636292,561
798.75531,592
798.874268,551
798.993286,559
799.112244,567
799.231323,585
799.350281,549
799.469238,576
799.588257,562
799.707153,564
799.826111,578
799.945129,571
800.064087,576
800.183044,570
800.302063,577
800.421021,568
800.539978,586
800.658936,551
800.777893,569
800.896912,574
801.015747,579
801.134705,573
801.253723,570
801.37262,571
801.491638,567
801.610535,585
801.729492,591
801.84845,558
801.967407,565
802.086243,585
802.205261,575
802.324158,556
802.443115,574
802.562073,575
802.680969,562
802.799927,605
802.918762,574
803.037659,591
803.156677,586
803.275574,569
803.39447,586
803.513428,584
803.632263,587
803.751221,590
803.870117,593
803.989014,606
804.107971,612
804.226746,581
804.345642,594
804.4646,595
804.583496,588
804.702393,598
804.821228,593
804.940125,602
805.059021,571
805.177917,602
805.296814,587
805.415649,585
805.534546,582
805.653442,606
805.772278,580
805.891113,599
806.01001,585
806.128906,600
806.247742,607
806.366577,588
806.485413,618
806.604309,593
806.723145,590
806.84198,586
806.960876,614
807.079712,599
807.198486,610
807.317383,610
807.436218,619
807.554993,597
807.673889,600
807.792725,613
807.91156,620
808.030396,613
808.14917,624
808.268005,586
808.386841,576
808.505676,620
808.624451,602
808.743286,628
808.862122,618
808.980896,608
809.099731,617
809.218506,619
809.337341,599
809.456116,621
809.57489,582
809.693726,607
809.8125,610
809.931274,601
810.050049,612
810.168884,597
810.287659,616
810.406372,614
810.525269,595
810.643982,605
810.762756,613
810.881531,641
811.000305,615
811.11908,613
811.237854,598
811.356567,587
811.475403,626
811.594116,611
811.71283,604
811.831604,614
811.950378,593
812.069153,620
812.187927,622
812.30658,615
812.425415,614
812.544128,612
812.662781,607
812.781616,619
812.900269,614
813.019043,619
813.137756,605
813.256531,618
813.375244,623
813.493896,624
813.612671,626
813.731384,616
813.850037,621
813.96875,618
814.087524,595
814.206238,590
814.324951,619
814.443604,602
814.562256,611
814.68103,624
814.799683,616
814.918335,594
815.037109,624
815.155762,608
815.274475,624
815.393188,618
815.511841,590
815.630554,638
815.749146,584
815.867859,610
815.986572,599
816.105164,614
816.223877,592
816.342529,591
816.461182,589
816.579895,591
816.698486,605
816.817139,615
816.935791,615
817.054504,587
817.173096,587
817.291748,581
817.4104,595
817.529053,588
817.647644,569
817.766235,565
817.884949,557
818.00354,559
818.122192,554
818.240845,570
818.359436,549
818.478088,544
818.59668,503
818.715271,534
818.833923,532
818.952515,530
819.071106,513
819.189758,524
819.30835,501
819.426941,507
819.545532,499
819.664124,506
819.782715,504
819.901306,492
820.019897,501
820.138489,497
820.25708,506
820.375671,515
820.494202,483
820.612732,503
820.731384,469
820.849915,499
820.968506,494
821.087097,498
821.205627,493
821.324158,499
821.442749,508
821.561279,500
821.679871,481
821.798401,491
821.916931,490
822.035461,498
822.154053,498
822.272583,488
822.391174,476
822.509583,474
822.628174,507
822.746704,490
822.865234,472
822.983765,498
823.102295,477
823.220825,487
823.339294,472
823.457825,466
823.576355,490
823.694824,490
823.813354,478
823.931885,494
824.050354,466
824.168884,487
824.287354,520
824.405823,469
824.524353,485
824.642822,476
824.761353,482
824.879822,484
824.998291,490
825.116699,488
825.235291,488
825.353699,511
825.472168,494
825.590637,490
825.709106,476
825.827576,476
825.946045,459
826.064453,482
826.182983,458
826.301392,459
826.4198,473
826.53833,460
826.656738,476
826.775208,464
826.893677,481
827.012024,467
827.130493,475
827.248962,473
827.36731,467
827.485779,461
827.604248,467
827.722595,476
827.841064,461
827.959412,465
828.077942,483
828.196289,474
828.314636,446
828.433105,468
828.551514,462
828.669861,483
828.78833,458
828.906677,471
829.025085,464
829.143433,477
829.261841,444
829.38031,463
829.498657,467
829.617004,471
829.735413,460
829.85376,462
829.972107,442
830.090515,458
830.208862,471
830.327209,473
830.445557,459
830.563904,453
830.682312,461
830.800659,452
830.919006,460
831.037354,488
831.155701,457
831.274048,478
831.392395,472
831.51062,446
831.629028,466
831.747314,466
831.865662,463
831.984009,469
832.102356,470
832.220642,457
832.338928,458
832.457275,448
832.575623,451
832.693909,469
832.812134,469
832.930481,467
833.048828,460
833.167114,491
833.2854,457
833.403687,466
833.521973,479
833.640259,464
833.758545,458
833.876831,462
833.995056,462
834.113281,485
834.231628,456
834.349915,474
834.468201,460
834.586426,466
834.704651,452
834.822998,472
834.941162,472
835.059448,458
835.177673,477
835.295959,473
835.414246,468
835.53241,469
835.650635,459
835.768921,467
835.887146,450
836.005371,478
836.123596,448
836.241821,486
836.360046,462
836.478271,469
836.596497,464
836.714722,463
836.832886,472
836.95105,469
837.069336,484
837.1875,485
837.305725,490
837.423889,477
837.542053,508
837.660339,488
837.778503,468
837.896667,469
838.014832,461
838.132996,482
838.25116,465
838.369385,484
838.487488,477
838.605713,497
838.723877,490
838.84198,490
838.960205,475
839.078308,473
839.196472,462
839.314636,479
839.4328,469
839.550964,483
839.669067,453
839.787231,498
839.905396,479
840.023499,455
840.141602,457
840.259766,474
840.377869,474
840.495972,469
840.614136,494
840.732239,468
840.850342,479
840.968445,473
841.086548,461
841.204651,454
841.322754,474
841.440918,470
841.55896,456
841.677002,487
841.795166,453
841.913208,485
842.031311,472
842.149353,461
842.267456,471
842.385498,475
842.503601,478
842.621643,477
842.739746,466
842.857788,461
842.97583,464
843.093933,468
843.211975,455
843.330017,448
843.44812,472
843.566101,459
843.684204,471
843.802246,477
843.920227,449
844.038269,465
844.156311,432
844.274292,461
844.392395,464
844.510376,455
844.628357,442
844.74646,457
844.864441,458
844.982422,450
845.100403,459
845.218384,457
845.336426,473
845.454468,451
845.572449,460
845.69043,440
845.808411,468
845.926453,456
846.044373,455
846.162354,449
846.280396,446
846.398315,473
846.516296,452
846.634216,457
846.752197,468
846.870178,463
846.988098,459
847.106079,456
847.22406,461
847.34198,453
847.4599,464
847.577881,465
847.695801,450
847.813782,454
847.931641,439
848.049561,449
848.167603,462
848.285461,455
848.403381,459
848.521362,456
848.639221,439
848.75708,462
848.875,456
848.99292,464
849.110901,458
849.22876,465
849.34668,449
849.464539,459
849.582458,449
849.700317,465
849.818176,445
849.936096,453
850.053955,475
850.171875,473
850.289673,476
850.407593,451
850.525452,444
850.643311,439
850.761169,455
850.878967,454
850.996887,457
851.114746,455
851.232544,463
851.350403,451
851.468262,456
851.58606,457
851.703979,475
851.821777,474
851.939636,481
852.057434,466
852.175232,466
852.293091,470
852.410889,482
852.528687,447
852.646545,467
852.764343,486
852.88208,449
852.999939,445
853.117676,463
853.235535,465
853.353271,444
853.471069,476
853.588928,460
853.706604,465
853.824402,464
853.9422,457
854.059998,471
854.177734,440
854.295532,463
854.413269,467
854.531006,448
854.648804,461
854.766541,457
854.884277,453
855.002014,470
855.119751,463
855.237549,453
855.355225,485
855.473022,479
855.590698,476
855.708435,452
855.826172,467
855.943848,452
856.061646,473
856.179321,461
856.296997,463
856.414795,479
856.53241,472
856.650085,464
856.767822,473
856.885559,450
857.003174,469
857.120911,475
857.238586,466
857.356201,452
857.473938,464
857.591614,462
857.709351,444
857.826965,478
857.944641,474
858.062317,448
858.179993,455
858.297668,464
858.415283,484
858.532959,487
858.650574,462
858.768188,460
858.885803,467
859.003479,477
859.121094,472
859.23877,471
859.356384,462
859.473999,472
859.591675,477
859.709229,457
859.826843,459
859.944458,456
860.062012,470
860.179626,458
860.297302,466
860.414856,461
860.532471,441
860.650024,466
860.767639,459
860.885193,478
861.002808,461
861.120361,452
861.237976,466
861.35553,462
861.473022,471
861.590698,461
861.708191,455
861.825745,456
861.943298,474
862.060852,465
862.178406,455
862.295959,470
862.413513,463
862.531006,477
862.64856,475
862.766113,466
862.883667,461
863.00116,441
863.118713,471
863.236206,458
863.353699,451
863.471252,466
863.588745,454
863.706177,479
863.82373,471
863.941162,439
864.058716,481
864.176208,457
864.29364,466
864.411194,463
864.528687,460
864.646118,482
864.763611,469
864.881042,450
864.998535,470
865.116028,466
865.233459,463
865.350891,452
865.468384,475
865.585754,465
865.703308,461
865.820679,486
865.938171,489
866.055542,477
866.173035,456
866.290466,453
866.407837,465
866.52533,463
866.6427,492
866.760071,460
866.877563,464
866.994934,459
867.112305,452
867.229736,459
867.347107,480
867.464539,462
867.58197,474
867.699341,473
867.81665,465
867.934082,490
868.051453,440
868.168823,456
868.286194,496
868.403564,488
868.520935,473
868.638306,470
868.755676,463
868.872986,465
868.990295,462
869.107727,455
869.225037,467
869.342346,475
869.459717,485
869.577026,471
869.694336,486
869.811707,454
869.929016,465
870.046326,452
870.163635,461
870.280945,476
870.398254,455
870.515564,469
870.632812,465
870.750183,478
870.867432,492
870.984741,466
871.102051,461
871.219299,476
871.336609,473
871.453918,464
871.571106,468
871.688416,494
871.805664,478
871.922852,475
872.040222,475
872.157471,462
872.274719,466
872.391968,453
872.509155,488
872.626465,478
872.743652,462
872.860962,464
872.978149,474
873.095337,476
873.212646,484
873.329834,446
873.44696,473
873.564209,466
873.681396,475
873.798645,470
873.915894,475
874.03302,473
874.150208,442
874.267456,479
874.384583,481
874.501831,453
874.618958,485
874.736145,462
874.853333,489
874.970459,458
875.087646,453
875.204834,455
875.32196,463
875.439148,466
875.556274,482
875.673401,468
875.790527,461
875.907715,480
876.024841,466
876.141968,473
876.259094,458
876.376282,461
876.493347,462
876.610474,464
876.7276,450
876.844727,448
876.961853,458
877.078918,460
877.195984,469
877.313171,470
877.430237,478
877.547302,473
877.664368,459
877.781433,464
877.898499,494
878.015625,460
878.13269,481
878.249695,492
878.366821,460
878.483887,484
878.600952,479
878.717957,465
878.834961,484
878.952087,459
879.069092,462
879.186157,462
879.303162,466
879.420227,463
879.537231,481
879.654236,468
879.77124,457
879.888306,480
880.005249,485
880.122314,477
880.239319,491
880.356323,472
880.473328,466
880.590271,466
880.707275,463
880.824341,468
880.941284,466
881.058228,457
881.175232,479
881.292236,466
881.40918,503
881.526123,474
881.643066,462
881.760071,472
881.877014,482
881.993958,481
882.11084,472
882.227783,481
882.344727,485
882.46167,454
882.578613,472
882.695618,475
882.812439,471
882.929382,466
883.046326,494
883.163208,477
883.280151,479
883.397034,464
883.513916,461
883.630798,490
883.747742,454
883.864563,466
883.981506,466
884.098389,452
884.21521,474
884.332153,484
884.448975,471
884.565796,465
884.682678,466
884.7995,489
884.916443,483
885.033264,487
885.150085,475
885.266968,478
885.383789,487
885.500671,486
885.617493,483
885.734314,490
885.851196,472
885.967896,480
886.084717,493
886.201599,492
886.318359,488
886.435181,483
886.552002,478
886.668762,484
886.785645,474
886.902344,487
887.019165,483
887.135925,464
887.252747,486
887.369446,458
887.486267,477
887.603027,485
887.719788,488
887.836548,475
887.953247,482
888.070068,488
888.186829,472
888.303528,486
888.420288,495
888.536987,489
888.653687,488
888.770447,473
888.887146,473
889.003967,483
889.120667,463
889.237305,477
889.354065,481
889.470703,466
889.587463,471
889.704163,483
889.820862,488
889.937561,483
890.054199,468
890.170837,470
890.287598,491
890.404236,473
890.520874,480
890.637634,493
890.754211,494
890.87085,482
890.987549,472
891.104187,473
891.220886,484
891.337463,476
891.454102,493
891.57074,480
891.687378,485
891.804077,480
891.920654,496
892.037231,488
892.15387,475
892.270447,475
892.387085,463
892.503723,478
892.6203,485
892.736877,498
892.853516,470
892.970032,470
893.08667,484
893.203186,466
893.319763,481
893.43634,486
893.552917,477
893.669556,487
893.786011,486
893.902588,476
894.019165,494
894.135681,490
894.252197,474
894.368835,489
894.485291,478
894.601868,474
894.718384,486
894.8349,485
894.951355,499
895.067932,511
895.184448,463
895.300964,468
895.417419,477
895.533936,477
895.650452,490
895.766907,507
895.883423,469
895.999878,466
896.116333,479
896.232849,492
896.349304,483
896.465759,482
896.582214,493
896.698669,485
896.815125,476
896.931641,495
897.048035,494
897.164551,471
897.280884,488
897.397339,484
897.513794,466
897.630249,497
897.746582,475
897.863098,478
897.979431,472
898.095886,475
898.212341,487
898.328674,469
898.445129,484
898.561462,507
898.677795,486
898.794312,498
898.910645,493
899.026978,465
899.143433,495
899.259766,480
899.37616,462
899.492493,465
899.608765,499
899.725159,503
899.841553,481
899.957947,489
900.07428,471
900.190552,489
900.306946,472
900.423157,484
900.53949,492
900.655884,495
900.772156,501
900.888489,493
901.004822,483
901.121033,497
901.237366,497
901.353699,492
901.46991,483
901.586304,494
901.702515,477
901.818787,493
901.93512,491
902.051331,491
902.167603,505
902.283875,482
902.400085,473
902.516418,484
902.632629,507
902.74884,478
902.865112,502
902.981384,503
903.097595,503
903.213867,496
903.330017,473
903.446289,496
903.5625,515
903.67865,490
903.794922,504
903.911072,485
904.027344,494
904.143494,509
904.259705,499
904.375916,483
904.492065,505
904.608215,493
904.724426,486
904.840576,478
904.956726,472
905.072876,491
905.189087,512
905.305176,494
905.421387,502
905.537537,496
905.653687,481
905.769775,479
905.885925,499
906.002014,488
906.118164,507
906.234314,477
906.350403,480
906.466492,494
906.582642,496
906.69873,486
906.814758,474
906.930908,506
907.046936,504
907.163086,487
907.279175,493
907.395264,476
907.511353,495
907.62738,497
907.743408,502
907.859497,479
907.975525,492
908.091553,500
908.207703,493
908.32373,488
908.439758,483
908.555786,483
908.671814,497
908.787842,512
908.90387,506
909.019775,494
909.135864,502
909.251892,476
909.367859,497
909.483826,494
909.599854,494
909.715881,477
909.831848,476
909.947815,471
910.063782,478
910.179749,507
910.295776,494
910.411743,514
910.527649,517
910.643616,494
910.759583,501
910.875488,505
910.991455,520
911.107361,494
911.223267,506
911.339294,486
911.4552,495
911.571106,485
911.687073,498
911.802979,490
911.918823,489
912.034729,474
912.150635,489
912.266602,487
912.382446,480
912.498352,500
912.614197,509
912.730103,499
912.846008,509
792.44574,598
792.56488,650
792.68396,689
792.80304,669
792.92218,622
793.041199,597
793.160339,596
793.279419,603
793.398499,620
793.517578,603
793.636658,542
793.755737,607
793.874817,601
793.993896,638
794.112976,600
794.232056,590
794.351074,577
794.470215,613
794.589233,609
794.708313,587
794.827393,578
794.946411,568
795.065552,584
795.18457,594
795.303589,591
795.422668,595
795.541687,561
795.660767,598
795.779846,582
795.898865,582
796.017883,572
796.136963,599
796.255981,581
796.375061,579
796.49408,575
796.613037,588
796.732117,550
796.851135,574
796.970154,584
797.089233,590
797.208191,573
797.327271,571
797.446228,587
797.565186,582
797.684265,569
797.803223,586
797.922241,571
798.04126,569
798.160278,560
798.279297,598
798.398315,565
798.517273,572
798.636292,578
798.75531,580
798.874268,583
798.993286,573
799.112244,558
799.231323,578
799.350281,571
799.469238,579
799.588257,565
799.707153,577
799.826111,577
799.945129,588
800.064087,570
800.183044,575
800.302063,584
800.421021,582
800.539978,565
800.658936,576
800.777893,604
800.896912,563
801.015747,574
801.134705,579
801.253723,568
801.37262,568
801.491638,569
801.610535,582
801.729492,594
801.84845,580
801.967407,562
802.086243,595
802.205261,568
802.324158,564
802.443115,594
802.562073,598
802.680969,556
802.799927,572
802.918762,593
803.037659,566
803.156677,572
803.275574,573
803.39447,583
803.513428,595
803.632263,594
803.751221,572
803.870117,572
803.989014,589
804.107971,573
804.226746,595
804.345642,565
804.4646,589
804.583496,571
804.702393,608
804.821228,583
804.940125,573
805.059021,586
805.177917,622
805.296814,577
805.415649,608
805.534546,596
805.653442,575
805.772278,613
805.891113,563
806.01001,599
806.128906,646
806.247742,576
806.366577,594
806.485413,600
806.604309,596
806.723145,611
806.84198,584
806.960876,596
807.079712,602
807.198486,606
807.317383,583
807.436218,595
807.554993,593
807.673889,581
807.792725,614
807.91156,614
808.030396,583
808.14917,618
808.268005,611
808.386841,634
808.505676,600
808.624451,608
808.743286,614
808.862122,619
808.980896,601
809.099731,610
809.218506,604
809.337341,613
809.456116,610
809.57489,627
809.693726,607
809.8125,609
809.931274,610
810.050049,601
810.168884,620
810.287659,604
810.406372,611
810.525269,632
810.643982,613
810.762756,603
810.881531,612
811.000305,615
811.11908,635
811.237854,607
811.356567,603
811.475403,618
811.594116,605
811.71283,628
811.831604,604
811.950378,599
812.069153,609
812.187927,602
812.30658,623
812.425415,608
812.544128,614
812.662781,597
812.781616,617
812.900269,622
813.019043,615
813.137756,601
813.256531,618
813.375244,614
813.493896,632
813.612671,606
813.731384,604
813.850037,611
813.96875,622
814.087524,615
814.206238,605
814.324951,638
814.443604,616
814.562256,605
814.68103,604
814.799683,613
814.918335,597
815.037109,598
815.155762,606
815.274475,601
815.393188,615
815.511841,600
815.630554,606
815.749146,585
815.867859,597
815.986572,606
816.105164,615
816.223877,586
816.342529,594
816.461182,595
816.579895,605
816.698486,572
816.817139,582
816.935791,594
817.054504,620
817.173096,614
817.291748,599
817.4104,592
817.529053,592
817.647644,588
817.766235,576
817.884949,541
818.00354,548
818.122192,551
818.240845,537
818.359436,547
818.478088,542
818.59668,521
818.715271,520
818.833923,513
818.952515,517
819.071106,511
819.189758,511
819.30835,521
819.426941,522
819.545532,491
819.664124,509
819.782715,495
819.901306,495
820.019897,510
820.138489,474
820.25708,502
820.375671,522
820.494202,507
820.612732,494
820.731384,510
820.849915,505
820.968506,513
821.087097,507
821.205627,484
821.324158,466
821.442749,494
821.561279,480
821.679871,500
821.798401,496
821.916931,487
822.035461,489
822.154053,504
822.272583,475
822.391174,481
822.509583,500
822.628174,473
822.746704,491
822.865234,476
822.983765,478
823.102295,490
823.220825,475
823.339294,504
823.457825,476
823.576355,489
823.694824,507
823.813354,491
823.931885,500
824.050354,492
824.168884,497
824.287354,483
824.405823,488
824.524353,508
824.642822,492
824.761353,482
824.879822,488
824.998291,479
825.116699,483
825.235291,475
825.353699,485
825.472168,491
825.590637,471
825.709106,465
825.827576,498
825.946045,470
826.064453,480
826.182983,455
826.301392,474
826.4198,470
826.53833,486
826.656738,479
826.775208,479
826.893677,469
827.012024,468
827.130493,486
827.248962,466
827.36731,453
827.485779,467
827.604248,464
827.722595,484
827.841064,475
827.959412,479
828.077942,462
828.196289,478
828.314636,474
828.433105,474
828.551514,471
828.669861,465
828.78833,459
828.906677,463
829.025085,487
829.143433,480
829.261841,468
829.38031,463
829.498657,466
829.617004,473
829.735413,478
829.85376,454
829.972107,463
830.090515,478
830.208862,457
830.327209,476
830.445557,464
830.563904,466
830.682312,458
830.800659,472
830.919006,475
831.037354,483
831.155701,457
831.274048,478
831.392395,466
831.51062,454
831.629028,470
831.747314,475
831.865662,468
831.984009,458
832.102356,462
832.220642,467
832.338928,458
832.457275,456
832.575623,461
832.693909,493
832.812134,462
832.930481,466
833.048828,463
833.167114,474
833.2854,467
833.403687,457
833.521973,458
833.640259,470
833.758545,486
833.876831,473
833.995056,446
834.113281,472
834.231628,444
834.349915,461
834.468201,468
834.586426,458
834.704651,456
834.822998,455
834.941162,480
835.059448,464
835.177673,467
835.295959,470
835.414246,449
835.53241,481
835.650635,468
835.768921,485
835.887146,493
836.005371,459
836.123596,477
836.241821,479
836.360046,472
836.478271,471
836.596497,466
836.714722,467
836.832886,498
836.95105,506
837.069336,492
837.1875,481
837.305725,478
837.423889,487
837.542053,496
837.660339,471
837.778503,500
837.896667,469
838.014832,490
838.132996,502
838.25116,476
838.369385,494
838.487488,492
838.605713,476
838.723877,487
838.84198,458
838.960205,461
839.078308,482
839.196472,478
839.314636,487
839.4328,483
839.550964,469
839.669067,482
839.787231,476
839.905396,451
840.023499,486
840.141602,471
840.259766,475
840.377869,461
840.495972,470
840.614136,468
840.732239,477
840.850342,471
840.968445,466
841.086548,497
841.204651,468
841.322754,468
841.440918,463
841.55896,463
841.677002,477
841.795166,460
841.913208,446
842.031311,486
842.149353,473
842.267456,469
842.385498,450
842.503601,460
842.621643,464
842.739746,455
842.857788,469
842.97583,460
843.093933,458
843.211975,452
843.330017,446
843.44812,462
843.566101,472
843.684204,457
843.802246,466
843.920227,473
844.038269,468
844.156311,468
844.274292,475
844.392395,452
844.510376,463
844.628357,447
844.74646,463
844.864441,442
844.982422,470
845.100403,455
845.218384,463
845.336426,459
845.454468,468
845.572449,455
845.69043,454
845.808411,466
845.926453,455
846.044373,440
846.162354,449
846.280396,458
846.398315,469
846.516296,461
846.634216,452
846.752197,449
846.870178,448
846.988098,456
847.106079,463
847.22406,467
847.34198,466
847.4599,473
847.577881,469
847.695801,458
847.813782,440
847.931641,460
848.049561,464
848.167603,450
848.285461,476
848.403381,465
848.521362,468
848.639221,468
848.75708,456
848.875,478
848.99292,454
849.110901,450
849.22876,464
849.34668,448
849.464539,449
849.582458,454
849.700317,459
849.818176,473
849.936096,462
850.053955,457
850.171875,464
850.289673,449
850.407593,465
850.525452,437
850.643311,479
850.761169,435
850.878967,472
850.996887,464
851.114746,471
851.232544,472
851.350403,472
851.468262,461
851.58606,471
851.703979,449
851.821777,465
851.939636,459
852.057434,474
852.175232,458
852.293091,461
852.410889,460
852.528687,461
852.646545,453
852.764343,450
852.88208,438
852.999939,462
853.117676,463
853.235535,466
853.353271,452
853.471069,458
853.588928,466
853.706604,469
853.824402,450
853.9422,483
854.059998,440
854.177734,481
854.295532,466
854.413269,459
854.531006,467
854.648804,477
854.766541,474
854.884277,446
855.002014,461
855.119751,456
855.237549,466
855.355225,451
855.473022,484
855.590698,470
855.708435,468
855.826172,461
855.943848,459
856.061646,471
856.179321,475
856.296997,485
856.414795,466
856.53241,464
856.650085,474
856.767822,462
856.885559,469
857.003174,458
857.120911,452
857.238586,496
857.356201,460
857.473938,482
857.591614,484
857.709351,477
857.826965,474
857.944641,488
858.062317,474
858.179993,464
858.297668,452
858.415283,451
858.532959,460
858.650574,463
858.768188,469
858.885803,458
859.003479,475
859.121094,481
859.23877,461
859.356384,454
859.473999,482
859.591675,479
859.709229,463
859.826843,468
859.944458,452
860.062012,457
860.179626,466
860.297302,470
860.414856,447
860.532471,471
860.650024,475
860.767639,472
860.885193,453
861.002808,460
861.120361,478
861.237976,465
861.35553,465
861.473022,473
861.590698,481
861.708191,468
861.825745,453
861.943298,468
862.060852,472
862.178406,478
862.295959,477
862.413513,469
862.531006,461
862.64856,468
862.766113,472
862.883667,490
863.00116,459
863.118713,474
863.236206,465
863.353699,465
863.471252,488
863.588745,461
863.706177,464
863.82373,476
863.941162,487
864.058716,449
864.176208,468
864.29364,470
864.411194,466
864.528687,472
864.646118,467
864.763611,457
864.881042,459
864.998535,478
865.116028,483
865.233459,444
865.350891,459
865.468384,486
865.585754,465
865.703308,464
865.820679,464
865.938171,478
866.055542,470
866.173035,452
866.290466,467
866.407837,457
866.52533,482
866.6427,468
866.760071,461
866.877563,454
866.994934,471
867.112305,470
867.229736,478
867.347107,479
867.464539,476
867.58197,470
867.699341,462
867.81665,472
867.934082,447
868.051453,466
868.168823,482
868.286194,477
868.403564,467
868.520935,471
868.638306,449
868.755676,449
868.872986,478
868.990295,467
869.107727,460
869.225037,474
869.342346,479
869.459717,455
869.577026,493
869.694336,488
869.811707,470
869.929016,492
870.046326,451
870.163635,478
870.280945,446
870.398254,468
870.515564,479
870.632812,466
870.750183,463
870.867432,449
870.984741,447
871.102051,464
871.219299,474
871.336609,477
871.453918,455
871.571106,471
871.688416,449
871.805664,467
871.922852,472
872.040222,478
872.157471,485
872.274719,473
872.391968,483
872.509155,470
872.626465,483
872.743652,477
872.860962,473
872.978149,492
873.095337,482
873.212646,478
873.329834,466
873.44696,455
873.564209,453
873.681396,460
873.798645,462
873.915894,467
874.03302,472
874.150208,470
874.267456,454
874.384583,471
874.501831,475
874.618958,459
874.736145,473
874.853333,468
874.970459,468
875.087646,460
875.204834,474
875.32196,479
875.439148,455
875.556274,446
875.673401,449
875.790527,462
875.907715,470
876.024841,466
876.141968,469
876.259094,471
876.376282,479
876.493347,454
876.610474,461
876.7276,477
876.844727,450
876.961853,478
877.078918,453
877.195984,479
877.313171,440
877.430237,480
877.547302,457
877.664368,469
877.781433,479
877.898499,493
878.015625,472
878.13269,458
878.249695,479
878.366821,461
878.483887,468
878.600952,470
878.717957,471
878.834961,458
878.952087,496
879.069092,484
879.186157,463
879.303162,478
879.420227,453
879.537231,489
879.654236,482
879.77124,486
879.888306,472
880.005249,463
880.122314,483
880.239319,475
880.356323,472
880.473328,501
880.590271,466
880.707275,471
880.824341,484
880.941284,476
881.058228,490
881.175232,465
881.292236,480
881.40918,463
881.526123,469
881.643066,461
881.760071,476
881.877014,469
881.993958,481
882.11084,458
882.227783,461
882.344727,475
882.46167,476
882.578613,470
882.695618,464
882.812439,472
882.929382,465
883.046326,484
883.163208,455
883.280151,476
883.397034,481
883.513916,491
883.630798,468
883.747742,474
883.864563,466
883.981506,473
884.098389,475
884.21521,463
884.332153,490
884.448975,469
884.565796,477
884.682678,480
884.7995,472
884.916443,482
885.033264,478
885.150085,465
885.266968,487
885.383789,466
885.500671,490
885.617493,481
885.734314,495
885.851196,484
885.967896,458
886.084717,477
886.201599,468
886.318359,486
886.435181,461
886.552002,489
886.668762,461
886.785645,467
886.902344,472
887.019165,467
887.135925,467
887.252747,476
887.369446,472
887.486267,478
887.603027,486
887.719788,470
887.836548,481
887.953247,491
888.070068,482
888.186829,490
888.303528,471
888.420288,484
888.536987,482
888.653687,485
888.770447,480
888.887146,469
889.003967,459
889.120667,469
889.237305,476
889.354065,458
889.470703,474
889.587463,480
889.704163,476
889.820862,495
889.937561,474
890.054199,477
890.170837,499
890.287598,491
890.404236,470
890.520874,480
890.637634,516
890.754211,476
890.87085,472
890.987549,478
891.104187,494
891.220886,508
891.337463,492
891.454102,491
891.57074,474
891.687378,495
891.804077,482
891.920654,462
892.037231,477
892.15387,494
892.270447,485
892.387085,476
892.503723,472
892.6203,490
892.736877,488
892.853516,473
892.970032,475
893.08667,451
893.203186,473
893.319763,483
893.43634,479
893.552917,483
893.669556,460
893.786011,486
893.902588,476
894.019165,475
894.135681,486
894.252197,472
894.368835,481
894.485291,478
894.601868,473
894.718384,502
894.8349,473
894.951355,483
895.067932,488
895.184448,478
895.300964,482
895.417419,485
895.533936,484
895.650452,490
895.766907,480
895.883423,493
895.999878,482
896.116333,477
896.232849,476
896.349304,493
896.465759,494
896.582214,472
896.698669,497
896.815125,488
896.931641,478
897.048035,486
897.164551,476
897.280884,493
897.397339,507
897.513794,485
897.630249,503
897.746582,474
897.863098,473
897.979431,511
898.095886,486
898.212341,496
898.328674,503
898.445129,494
898.561462,485
898.677795,482
898.794312,490
898.910645,474
899.026978,488
899.143433,482
899.259766,483
899.37616,488
899.492493,497
899.608765,481
899.725159,488
899.841553,495
899.957947,489
900.07428,494
900.190552,495
900.306946,464
900.423157,507
900.53949,502
900.655884,489
900.772156,515
900.888489,481
901.004822,499
901.121033,477
901.237366,505
901.353699,475
901.46991,486
901.586304,473
901.702515,493
901.818787,493
901.93512,505
902.051331,506
902.167603,497
902.283875,493
902.400085,472
902.516418,478
902.632629,492
902.74884,486
902.865112,495
902.981384,499
903.097595,514
903.213867,491
903.330017,498
903.446289,478
903.5625,506
903.67865,494
903.794922,499
903.911072,475
904.027344,496
904.143494,484
904.259705,506
904.375916,509
904.492065,476
904.608215,506
904.724426,469
904.840576,490
904.956726,512
905.072876,476
905.189087,491
905.305176,469
905.421387,517
905.537537,490
905.653687,501
905.769775,497
905.885925,508
906.002014,485
906.118164,508
906.234314,503
906.350403,509
906.466492,504
906.582642,504
906.69873,481
906.814758,491
906.930908,486
907.046936,484
907.163086,493
907.279175,489
907.395264,493
907.511353,478
907.62738,502
907.743408,502
907.859497,485
907.975525,491
908.091553,483
908.207703,491
908.32373,493
908.439758,500
908.555786,478
908.671814,474
908.787842,488
908.90387,494
909.019775,494
909.135864,496
909.251892,499
909.367859,495
909.483826,485
909.599854,478
909.715881,512
909.831848,495
909.947815,480
910.063782,505
910.179749,501
910.295776,505
910.411743,491
910.527649,487
910.643616,511
910.759583,501
910.875488,492
910.991455,483
911.107361,481
911.223267,516
911.339294,499
911.4552,508
911.571106,494
911.687073,503
911.802979,499
911.918823,495
912.034729,494
912.150635,492
912.266602,493
912.382446,502
912.498352,480
912.614197,516
912.730103,496
912.846008,506
