792.44574,625
792.56488,648
792.68396,691
792.80304,663
792.92218,628
793.041199,625
793.160339,602
793.279419,619
793.398499,636
793.517578,630
793.636658,591
793.755737,612
793.874817,615
793.993896,605
794.112976,619
794.232056,573
794.351074,597
794.470215,598
794.589233,574
794.708313,609
794.827393,578
794.946411,596
795.065552,606
795.18457,601
795.303589,601
795.422668,585
795.541687,588
795.660767,589
795.779846,567
795.898865,571
796.017883,601
796.136963,589
796.255981,571
796.375061,601
796.49408,579
796.613037,583
796.732117,601
796.851135,566
796.970154,591
797.089233,580
797.208191,554
797.327271,575
797.446228,575
797.565186,601
797.684265,565
797.803223,588
797.922241,578
798.04126,583
798.160278,574
798.279297,572
798.398315,577
798.517273,605
798.636292,566
798.75531,567
798.874268,558
798.993286,554
799.112244,581
799.231323,565
799.350281,574
799.469238,566
799.588257,586
799.707153,596
799.826111,592
799.945129,593
800.064087,580
800.183044,578
800.302063,590
800.421021,565
800.539978,577
800.658936,569
800.777893,557
800.896912,555
801.015747,573
801.134705,562
801.253723,563
801.37262,559
801.491638,570
801.610535,576
801.729492,571
801.84845,592
801.967407,572
802.086243,586
802.205261,573
802.324158,604
802.443115,580
802.562073,592
802.680969,561
802.799927,582
802.918762,589
803.037659,604
803.156677,585
803.275574,581
803.39447,571
803.513428,573
803.632263,597
803.751221,574
803.870117,580
803.989014,591
804.107971,585
804.226746,622
804.345642,575
804.4646,596
804.583496,591
804.702393,593
804.821228,592
804.940125,593
805.059021,601
805.177917,587
805.296814,596
805.415649,608
805.534546,589
805.653442,589
805.772278,598
805.891113,613
806.01001,610
806.128906,590
806.247742,589
806.366577,609
806.485413,622
806.604309,627
806.723145,589
806.84198,598
806.960876,611
807.079712,597
807.198486,620
807.317383,619
807.436218,599
807.554993,607
807.673889,589
807.792725,605
807.91156,586
808.030396,600
808.14917,595
808.268005,604
808.386841,606
808.505676,618
808.624451,608
808.743286,575
808.862122,607
808.980896,609
809.099731,613
809.218506,598
809.337341,610
809.456116,592
809.57489,608
809.693726,633
809.8125,641
809.931274,632
810.050049,599
810.168884,635
810.287659,622
810.406372,620
810.525269,607
810.643982,598
810.762756,614
810.881531,619
811.000305,608
811.11908,619
811.237854,600
811.356567,612
811.475403,616
811.594116,645
811.71283,619
811.831604,600
811.950378,648
812.069153,599
812.187927,601
812.30658,646
812.425415,612
812.544128,625
812.662781,616
812.781616,600
812.900269,637
813.019043,598
813.137756,626
813.256531,621
813.375244,608
813.493896,609
813.612671,626
813.731384,600
813.850037,615
813.96875,619
814.087524,594
814.206238,602
814.324951,641
814.443604,599
814.562256,604
814.68103,626
814.799683,626
814.918335,607
815.037109,614
815.155762,601
815.274475,600
815.393188,604
815.511841,595
815.630554,587
815.749146,601
815.867859,589
815.986572,612
816.105164,583
816.223877,628
816.342529,612
816.461182,608
816.579895,602
816.698486,601
816.817139,599
816.935791,616
817.054504,597
817.173096,603
817.291748,611
817.4104,590
817.529053,594
817.647644,577
817.766235,589
817.884949,566
818.00354,585
818.122192,578
818.240845,566
818.359436,537
818.478088,542
818.59668,540
818.715271,534
818.833923,528
818.952515,516
819.071106,504
819.189758,513
819.30835,508
819.426941,542
819.545532,511
819.664124,529
819.782715,474
819.901306,527
820.019897,510
820.138489,503
820.25708,508
820.375671,521
820.494202,487
820.612732,487
820.731384,521
820.849915,501
820.968506,500
821.087097,494
821.205627,479
821.324158,501
821.442749,490
821.561279,490
821.679871,496
821.798401,491
821.916931,465
822.035461,472
822.154053,486
822.272583,473
822.391174,494
822.509583,492
822.628174,487
822.746704,498
822.865234,499
822.983765,496
823.102295,491
823.220825,507
823.339294,469
823.457825,468
823.576355,496
823.694824,512
823.813354,493
823.931885,469
824.050354,481
824.168884,493
824.287354,495
824.405823,498
824.524353,479
824.642822,476
824.761353,491
824.879822,493
824.998291,495
825.116699,507
825.235291,481
825.353699,490
825.472168,492
825.590637,481
825.709106,480
825.827576,485
825.946045,460
826.064453,489
826.182983,476
826.301392,483
826.4198,464
826.53833,459
826.656738,446
826.775208,467
826.893677,495
827.012024,474
827.130493,444
827.248962,489
827.36731,477
827.485779,460
827.604248,447
827.722595,483
827.841064,449
827.959412,456
828.077942,443
828.196289,480
828.314636,478
828.433105,463
828.551514,454
828.669861,474
828.78833,478
828.906677,473
829.025085,492
829.143433,474
829.261841,470
829.38031,472
829.498657,473
829.617004,467
829.735413,460
829.85376,463
829.972107,472
830.090515,482
830.208862,460
830.327209,456
830.445557,461
830.563904,461
830.682312,478
830.800659,460
830.919006,461
831.037354,460
831.155701,479
831.274048,468
831.392395,457
831.51062,488
831.629028,475
831.747314,449
831.865662,465
831.984009,464
832.102356,470
832.220642,479
832.338928,452
832.457275,451
832.575623,469
832.693909,471
832.812134,452
832.930481,459
833.048828,460
833.167114,480
833.2854,458
833.403687,459
833.521973,466
833.640259,445
833.758545,456
833.876831,459
833.995056,455
834.113281,451
834.231628,474
834.349915,484
834.468201,473
834.586426,469
834.704651,449
834.822998,451
834.941162,462
835.059448,483
835.177673,454
835.295959,470
835.414246,444
835.53241,485
835.650635,468
835.768921,481
835.887146,484
836.005371,470
836.123596,467
836.241821,496
836.360046,490
836.478271,485
836.596497,473
836.714722,473
836.832886,463
836.95105,458
837.069336,466
837.1875,494
837.305725,479
837.423889,491
837.542053,480
837.660339,511
837.778503,480
837.896667,480
838.014832,488
838.132996,463
838.25116,479
838.369385,495
838.487488,473
838.605713,477
838.723877,475
838.84198,470
838.960205,490
839.078308,467
839.196472,472
839.314636,491
839.4328,470
839.550964,497
839.669067,476
839.787231,506
839.905396,485
840.023499,457
840.141602,489
840.259766,465
840.377869,468
840.495972,475
840.614136,476
840.732239,474
840.850342,476
840.968445,488
841.086548,477
841.204651,464
841.322754,473
841.440918,492
841.55896,459
841.677002,447
841.795166,470
841.913208,466
842.031311,459
842.149353,471
842.267456,459
842.385498,472
842.503601,463
842.621643,471
842.739746,477
842.857788,459
842.97583,466
843.093933,471
843.211975,460
843.330017,471
843.44812,460
843.566101,467
843.684204,456
843.802246,461
843.920227,466
844.038269,476
844.156311,465
844.274292,475
844.392395,465
844.510376,463
844.628357,466
844.74646,460
844.864441,466
844.982422,448
845.100403,459
845.218384,468
845.336426,471
845.454468,462
845.572449,449
845.69043,452
845.808411,462
845.926453,481
846.044373,461
846.162354,466
846.280396,479
846.398315,474
846.516296,465
846.634216,448
846.752197,465
846.870178,456
846.988098,463
847.106079,457
847.22406,467
847.34198,471
847.4599,475
847.577881,470
847.695801,466
847.813782,471
847.931641,461
848.049561,450
848.167603,457
848.285461,462
848.403381,470
848.521362,466
848.639221,473
848.75708,469
848.875,458
848.99292,457
849.110901,463
849.22876,469
849.34668,439
849.464539,456
849.582458,459
849.700317,458
849.818176,488
849.936096,454
850.053955,477
850.171875,469
850.289673,490
850.407593,491
850.525452,461
850.643311,477
850.761169,487
850.878967,476
850.996887,480
851.114746,480
851.232544,456
851.350403,467
851.468262,466
851.58606,470
851.703979,460
851.821777,482
851.939636,443
852.057434,473
852.175232,475
852.293091,476
852.410889,506
852.528687,475
852.646545,468
852.764343,491
852.88208,454
852.999939,478
853.117676,450
853.235535,470
853.353271,467
853.471069,476
853.588928,477
853.706604,462
853.824402,446
853.9422,473
854.059998,456
854.177734,459
854.295532,458
854.413269,469
854.531006,449
854.648804,463
854.766541,457
854.884277,451
855.002014,451
855.119751,498
855.237549,463
855.355225,473
855.473022,456
855.590698,474
855.708435,467
855.826172,484
855.943848,449
856.061646,463
856.179321,467
856.296997,463
856.414795,463
856.53241,480
856.650085,482
856.767822,467
856.885559,480
857.003174,457
857.120911,469
857.238586,477
857.356201,451
857.473938,474
857.591614,478
857.709351,465
857.826965,484
857.944641,480
858.062317,441
858.179993,449
858.297668,462
858.415283,463
858.532959,489
858.650574,465
858.768188,472
858.885803,466
859.003479,464
859.121094,461
859.23877,480
859.356384,484
859.473999,465
859.591675,476
859.709229,475
859.826843,461
859.944458,446
860.062012,482
860.179626,462
860.297302,469
860.414856,468
860.532471,477
860.650024,466
860.767639,466
860.885193,456
861.002808,464
861.120361,481
861.237976,448
861.35553,442
861.473022,462
861.590698,469
861.708191,454
861.825745,452
861.943298,445
862.060852,466
862.178406,476
862.295959,455
862.413513,452
862.531006,469
862.64856,479
862.766113,450
862.883667,469
863.00116,471
863.118713,474
863.236206,481
863.353699,480
863.471252,482
863.588745,459
863.706177,458
863.82373,474
863.941162,456
864.058716,489
864.176208,444
864.29364,465
864.411194,458
864.528687,473
864.646118,485
864.763611,478
864.881042,465
864.998535,470
865.116028,455
865.233459,473
865.350891,468
865.468384,480
865.585754,478
865.703308,470
865.820679,459
865.938171,472
866.055542,466
866.173035,467
866.290466,453
866.407837,443
866.52533,472
866.6427,470
866.760071,467
866.877563,480
866.994934,469
867.112305,466
867.229736,463
867.347107,470
867.464539,485
867.58197,479
867.699341,478
867.81665,479
867.934082,447
868.051453,469
868.168823,462
868.286194,449
868.403564,458
868.520935,467
868.638306,451
868.755676,463
868.872986,470
868.990295,464
869.107727,470
869.225037,472
869.342346,455
869.459717,470
869.577026,485
869.694336,478
869.811707,475
869.929016,461
870.046326,466
870.163635,477
870.280945,456
870.398254,458
870.515564,471
870.632812,443
870.750183,469
870.867432,473
870.984741,460
871.102051,452
871.219299,465
871.336609,484
871.453918,488
871.571106,490
871.688416,466
871.805664,466
871.922852,449
872.040222,471
872.157471,492
872.274719,462
872.391968,490
872.509155,471
872.626465,464
872.743652,481
872.860962,471
872.978149,474
873.095337,479
873.212646,442
873.329834,457
873.44696,470
873.564209,459
873.681396,463
873.798645,473
873.915894,477
874.03302,459
874.150208,480
874.267456,462
874.384583,474
874.501831,468
874.618958,481
874.736145,479
874.853333,475
874.970459,450
875.087646,471
875.204834,462
875.32196,462
875.439148,479
875.556274,467
875.673401,475
875.790527,475
875.907715,466
876.024841,478
876.141968,460
876.259094,473
876.376282,456
876.493347,467
876.610474,479
876.7276,473
876.844727,478
876.961853,476
877.078918,477
877.195984,465
877.313171,468
877.430237,455
877.547302,467
877.664368,481
877.781433,472
877.898499,469
878.015625,478
878.13269,463
878.249695,472
878.366821,467
878.483887,468
878.600952,471
878.717957,460
878.834961,483
878.952087,463
879.069092,471
879.186157,475
879.303162,474
879.420227,477
879.537231,481
879.654236,463
879.77124,481
879.888306,465
880.005249,478
880.122314,457
880.239319,466
880.356323,472
880.473328,476
880.590271,485
880.707275,461
880.824341,459
880.941284,464
881.058228,469
881.175232,481
881.292236,468
881.40918,493
881.526123,479
881.643066,474
881.760071,463
881.877014,456
881.993958,483
882.11084,464
882.227783,477
882.344727,481
882.46167,481
882.578613,465
882.695618,472
882.812439,476
882.929382,470
883.046326,473
883.163208,474
883.280151,465
883.397034,476
883.513916,470
883.630798,461
883.747742,478
883.864563,463
883.981506,466
884.098389,455
884.21521,460
884.332153,459
884.448975,473
884.565796,485
884.682678,464
884.7995,487
884.916443,485
885.033264,486
885.150085,464
885.266968,491
885.383789,478
885.500671,468
885.617493,489
885.734314,473
885.851196,466
885.967896,481
886.084717,469
886.201599,495
886.318359,469
886.435181,476
886.552002,485
886.668762,477
886.785645,488
886.902344,485
887.019165,481
887.135925,487
887.252747,482
887.369446,479
887.486267,483
887.603027,459
887.719788,479
887.836548,494
887.953247,471
888.070068,475
888.186829,497
888.303528,470
888.420288,485
888.536987,458
888.653687,492
888.770447,472
888.887146,475
889.003967,449
889.120667,490
889.237305,493
889.354065,459
889.470703,490
889.587463,469
889.704163,494
889.820862,451
889.937561,463
890.054199,479
890.170837,495
890.287598,491
890.404236,483
890.520874,468
890.637634,468
890.754211,490
890.87085,479
890.987549,491
891.104187,473
891.220886,464
891.337463,499
891.454102,480
891.57074,488
891.687378,470
891.804077,486
891.920654,471
892.037231,488
892.15387,481
892.270447,476
892.387085,470
892.503723,472
892.6203,475
892.736877,472
892.853516,481
892.970032,501
893.08667,481
893.203186,471
893.319763,466
893.43634,488
893.552917,481
893.669556,488
893.786011,477
893.902588,484
894.019165,465
894.135681,485
894.252197,505
894.368835,490
894.485291,471
894.601868,487
894.718384,482
894.8349,487
894.951355,467
895.067932,455
895.184448,475
895.300964,480
895.417419,491
895.533936,461
895.650452,486
895.766907,476
895.883423,489
895.999878,492
896.116333,487
896.232849,467
896.349304,510
896.465759,474
896.582214,477
896.698669,466
896.815125,505
896.931641,469
897.048035,472
897.164551,488
897.280884,496
897.397339,476
897.513794,466
897.630249,485
897.746582,473
897.863098,474
897.979431,488
898.095886,483
898.212341,494
898.328674,481
898.445129,469
898.561462,461
898.677795,487
898.794312,481
898.910645,467
899.026978,472
899.143433,492
899.259766,468
899.37616,487
899.492493,477
899.608765,490
899.725159,482
899.841553,494
899.957947,503
900.07428,474
900.190552,496
900.306946,489
900.423157,472
900.53949,493
900.655884,468
900.772156,489
900.888489,478
901.004822,467
901.121033,495
901.237366,499
901.353699,488
901.46991,491
901.586304,460
901.702515,484
901.818787,497
901.93512,485
902.051331,467
902.167603,493
902.283875,486
902.400085,472
902.516418,483
902.632629,490
902.74884,482
902.865112,497
902.981384,477
903.097595,484
903.213867,497
903.330017,494
903.446289,478
903.5625,485
903.67865,495
903.794922,495
903.911072,493
904.027344,486
904.143494,502
904.259705,499
904.375916,477
904.492065,484
904.608215,497
904.724426,480
904.840576,478
904.956726,480
905.072876,489
905.189087,461
905.305176,489
905.421387,491
905.537537,507
905.653687,495
905.769775,471
905.885925,493
906.002014,477
906.118164,496
906.234314,505
906.350403,508
906.466492,485
906.582642,506
906.69873,495
906.814758,492
906.930908,478
907.046936,476
907.163086,478
907.279175,495
907.395264,489
907.511353,503
907.62738,494
907.743408,498
907.859497,470
907.975525,481
908.091553,513
908.207703,487
908.32373,496
908.439758,482
908.555786,496
908.671814,514
908.787842,491
908.90387,507
909.019775,467
909.135864,480
909.251892,472
909.367859,482
909.483826,487
909.599854,483
909.715881,493
909.831848,502
909.947815,495
910.063782,481
910.179749,486
910.295776,487
910.411743,493
910.527649,481
910.643616,512
910.759583,474
910.875488,488
910.991455,497
911.107361,502
911.223267,483
911.339294,499
911.4552,494
911.571106,475
911.687073,491
911.802979,491
911.918823,501
912.034729,479
912.150635,493
912.266602,495
912.382446,482
912.498352,484
912.614197,494
912.730103,482
912.846008,494
792.44574,624
792.56488,661
792.68396,693
792.80304,673
792.92218,627
793.041199,608
793.160339,607
793.279419,620
793.398499,623
793.517578,618
793.636658,589
793.755737,640
793.874817,629
793.993896,637
794.112976,618
794.232056,585
794.351074,588
794.470215,597
794.589233,619
794.708313,590
794.827393,603
794.946411,591
795.065552,642
795.18457,606
795.303589,577
795.422668,597
795.541687,607
795.660767,600
795.779846,592
795.898865,579
796.017883,594
796.136963,599
796.255981,579
796.375061,609
796.49408,601
796.613037,600
796.732117,583
796.851135,575
796.970154,578
797.089233,565
797.208191,588
797.327271,596
797.446228,592
797.565186,584
797.684265,573
797.803223,588
797.922241,568
798.04126,584
798.160278,584
798.279297,592
798.398315,591
798.517273,587
798.636292,584
798.75531,549
798.874268,573
798.993286,588
799.112244,567
799.231323,579
799.350281,584
799.469238,590
799.588257,568
799.707153,575
799.826111,592
799.945129,573
800.064087,577
800.183044,591
800.302063,579
800.421021,569
800.539978,573
800.658936,590
800.777893,574
800.896912,581
801.015747,585
801.134705,575
801.253723,581
801.37262,597
801.491638,570
801.610535,592
801.729492,586
801.84845,566
801.967407,585
802.086243,580
802.205261,579
802.324158,583
802.443115,603
802.562073,595
802.680969,590
802.799927,584
802.918762,600
803.037659,612
803.156677,593
803.275574,590
803.39447,583
803.513428,599
803.632263,595
803.751221,602
803.870117,591
803.989014,602
804.107971,570
804.226746,607
804.345642,596
804.4646,617
804.583496,588
804.702393,595
804.821228,599
804.940125,603
805.059021,587
805.177917,615
805.296814,604
805.415649,577
805.534546,589
805.653442,597
805.772278,609
805.891113,583
806.01001,594
806.128906,601
806.247742,599
806.366577,616
806.485413,613
806.604309,604
806.723145,609
806.84198,621
806.960876,627
807.079712,618
807.198486,587
807.317383,592
807.436218,612
807.554993,587
807.673889,606
807.792725,601
807.91156,617
808.030396,621
808.14917,614
808.268005,603
808.386841,624
808.505676,599
808.624451,585
808.743286,615
808.862122,615
808.980896,608
809.099731,614
809.218506,634
809.337341,602
809.456116,616
809.57489,616
809.693726,605
809.8125,600
809.931274,627
810.050049,609
810.168884,628
810.287659,603
810.406372,602
810.525269,631
810.643982,607
810.762756,657
810.881531,619
811.000305,614
811.11908,637
811.237854,595
811.356567,629
811.475403,622
811.594116,603
811.71283,646
811.831604,637
811.950378,618
812.069153,622
812.187927,614
812.30658,617
812.425415,634
812.544128,614
812.662781,630
812.781616,603
812.900269,638
813.019043,607
813.137756,623
813.256531,612
813.375244,605
813.493896,611
813.612671,625
813.731384,613
813.850037,604
813.96875,636
814.087524,613
814.206238,602
814.324951,614
814.443604,614
814.562256,586
814.68103,640
814.799683,598
814.918335,609
815.037109,617
815.155762,607
815.274475,618
815.393188,611
815.511841,611
815.630554,604
815.749146,592
815.867859,613
815.986572,616
816.105164,596
816.223877,612
816.342529,586
816.461182,624
816.579895,592
816.698486,622
816.817139,619
816.935791,598
817.054504,620
817.173096,618
817.291748,601
817.4104,608
817.529053,609
817.647644,571
817.766235,570
817.884949,584
818.00354,569
818.122192,544
818.240845,562
818.359436,553
818.478088,550
818.59668,535
818.715271,544
818.833923,543
818.952515,522
819.071106,525
819.189758,505
819.30835,496
819.426941,521
819.545532,504
819.664124,542
819.782715,506
819.901306,497
820.019897,498
820.138489,510
820.25708,513
820.375671,502
820.494202,509
820.612732,482
820.731384,491
820.849915,515
820.968506,485
821.087097,496
821.205627,496
821.324158,490
821.442749,503
821.561279,498
821.679871,472
821.798401,499
821.916931,496
822.035461,477
822.154053,504
822.272583,490
822.391174,496
822.509583,462
822.628174,506
822.746704,494
822.865234,460
822.983765,469
823.102295,489
823.220825,474
823.339294,496
823.457825,498
823.576355,491
823.694824,484
823.813354,496
823.931885,476
824.050354,490
824.168884,503
824.287354,485
824.405823,492
824.524353,505
824.642822,482
824.761353,486
824.879822,493
824.998291,477
825.116699,484
825.235291,469
825.353699,490
825.472168,478
825.590637,479
825.709106,486
825.827576,485
825.946045,459
826.064453,479
826.182983,461
826.301392,486
826.4198,457
826.53833,481
826.656738,460
826.775208,472
826.893677,478
827.012024,477
827.130493,470
827.248962,467
827.36731,492
827.485779,492
827.604248,459
827.722595,471
827.841064,468
827.959412,472
828.077942,475
828.196289,480
828.314636,473
828.433105,460
828.551514,480
828.669861,469
828.78833,453
828.906677,472
829.025085,474
829.143433,485
829.261841,449
829.38031,489
829.498657,477
829.617004,461
829.735413,446
829.85376,471
829.972107,474
830.090515,456
830.208862,466
830.327209,489
830.445557,468
830.563904,449
830.682312,456
830.800659,468
830.919006,454
831.037354,465
831.155701,471
831.274048,476
831.392395,463
831.51062,459
831.629028,469
831.747314,467
831.865662,451
831.984009,466
832.102356,488
832.220642,462
832.338928,481
832.457275,470
832.575623,480
832.693909,474
832.812134,457
832.930481,473
833.048828,468
833.167114,472
833.2854,454
833.403687,473
833.521973,482
833.640259,458
833.758545,475
833.876831,465
833.995056,474
834.113281,459
834.231628,442
834.349915,467
834.468201,448
834.586426,479
834.704651,479
834.822998,452
834.941162,473
835.059448,469
835.177673,487
835.295959,456
835.414246,471
835.53241,475
835.650635,460
835.768921,480
835.887146,461
836.005371,461
836.123596,467
836.241821,479
836.360046,477
836.478271,473
836.596497,497
836.714722,482
836.832886,464
836.95105,477
837.069336,462
837.1875,494
837.305725,481
837.423889,487
837.542053,475
837.660339,478
837.778503,480
837.896667,493
838.014832,486
838.132996,479
838.25116,487
838.369385,475
838.487488,489
838.605713,479
838.723877,494
838.84198,480
838.960205,483
839.078308,471
839.196472,483
839.314636,479
839.4328,472
839.550964,472
839.669067,494
839.787231,485
839.905396,456
840.023499,494
840.141602,457
840.259766,476
840.377869,477
840.495972,477
840.614136,463
840.732239,473
840.850342,486
840.968445,480
841.086548,470
841.204651,471
841.322754,465
841.440918,481
841.55896,472
841.677002,477
841.795166,490
841.913208,469
842.031311,476
842.149353,491
842.267456,475
842.385498,464
842.503601,462
842.621643,472
842.739746,452
842.857788,462
842.97583,479
843.093933,466
843.211975,453
843.330017,468
843.44812,473
843.566101,466
843.684204,476
843.802246,494
843.920227,470
844.038269,476
844.156311,453
844.274292,461
844.392395,484
844.510376,467
844.628357,473
844.74646,453
844.864441,468
844.982422,456
845.100403,474
845.218384,471
845.336426,443
845.454468,461
845.572449,463
845.69043,479
845.808411,457
845.926453,473
846.044373,462
846.162354,452
846.280396,477
846.398315,463
846.516296,481
846.634216,442
846.752197,467
846.870178,484
846.988098,450
847.106079,460
847.22406,471
847.34198,486
847.4599,450
847.577881,468
847.695801,456
847.813782,466
847.931641,466
848.049561,478
848.167603,466
848.285461,456
848.403381,457
848.521362,465
848.639221,476
848.75708,471
848.875,464
848.99292,458
849.110901,473
849.22876,463
849.34668,485
849.464539,480
849.582458,476
849.700317,452
849.818176,472
849.936096,493
850.053955,475
850.171875,476
850.289673,460
850.407593,473
850.525452,462
850.643311,473
850.761169,451
850.878967,452
850.996887,467
851.114746,487
851.232544,476
851.350403,493
851.468262,470
851.58606,472
851.703979,454
851.821777,474
851.939636,454
852.057434,479
852.175232,472
852.293091,476
852.410889,470
852.528687,487
852.646545,488
852.764343,482
852.88208,471
852.999939,508
853.117676,468
853.235535,463
853.353271,464
853.471069,486
853.588928,469
853.706604,480
853.824402,453
853.9422,457
854.059998,466
854.177734,472
854.295532,468
854.413269,471
854.531006,475
854.648804,469
854.766541,467
854.884277,476
855.002014,470
855.119751,473
855.237549,480
855.355225,472
855.473022,480
855.590698,475
855.708435,483
855.826172,476
855.943848,479
856.061646,473
856.179321,456
856.296997,466
856.414795,462
856.53241,488
856.650085,462
856.767822,471
856.885559,481
857.003174,469
857.120911,462
857.238586,477
857.356201,474
857.473938,483
857.591614,475
857.709351,480
857.826965,464
857.944641,473
858.062317,461
858.179993,474
858.297668,462
858.415283,467
858.532959,485
858.650574,466
858.768188,477
858.885803,463
859.003479,477
859.121094,475
859.23877,446
859.356384,485
859.473999,453
859.591675,477
859.709229,466
859.826843,472
859.944458,466
860.062012,462
860.179626,482
860.297302,475
860.414856,463
860.532471,460
860.650024,472
860.767639,475
860.885193,442
861.002808,492
861.120361,453
861.237976,486
861.35553,457
861.473022,454
861.590698,469
861.708191,480
861.825745,463
861.943298,478
862.060852,455
862.178406,467
862.295959,458
862.413513,474
862.531006,457
862.64856,455
862.766113,464
862.883667,470
863.00116,467
863.118713,463
863.236206,474
863.353699,476
863.471252,459
863.588745,475
863.706177,478
863.82373,472
863.941162,485
864.058716,483
864.176208,468
864.29364,482
864.411194,462
864.528687,462
864.646118,459
864.763611,457
864.881042,448
864.998535,470
865.116028,484
865.233459,451
865.350891,459
865.468384,464
865.585754,460
865.703308,472
865.820679,461
865.938171,480
866.055542,471
866.173035,481
866.290466,463
866.407837,462
866.52533,470
866.6427,474
866.760071,474
866.877563,479
866.994934,471
867.112305,478
867.229736,470
867.347107,471
867.464539,484
867.58197,482
867.699341,484
867.81665,471
867.934082,481
868.051453,467
868.168823,454
868.286194,495
868.403564,482
868.520935,472
868.638306,471
868.755676,473
868.872986,477
868.990295,492
869.107727,465
869.225037,459
869.342346,458
869.459717,454
869.577026,484
869.694336,454
869.811707,482
869.929016,469
870.046326,457
870.163635,459
870.280945,482
870.398254,477
870.515564,472
870.632812,492
870.750183,470
870.867432,474
870.984741,475
871.102051,490
871.219299,481
871.336609,474
871.453918,460
871.571106,485
871.688416,472
871.805664,477
871.922852,489
872.040222,471
872.157471,471
872.274719,471
872.391968,463
872.509155,476
872.626465,464
872.743652,470
872.860962,476
872.978149,483
873.095337,472
873.212646,486
873.329834,480
873.44696,473
873.564209,480
873.681396,474
873.798645,462
873.915894,478
874.03302,467
874.150208,477
874.267456,449
874.384583,484
874.501831,477
874.618958,475
874.736145,477
874.853333,463
874.970459,452
875.087646,477
875.204834,462
875.32196,473
875.439148,499
875.556274,482
875.673401,481
875.790527,471
875.907715,466
876.024841,473
876.141968,488
876.259094,490
876.376282,477
876.493347,486
876.610474,469
876.7276,479
876.844727,488
876.961853,478
877.078918,462
877.195984,472
877.313171,474
877.430237,475
877.547302,465
877.664368,480
877.781433,462
877.898499,482
878.015625,492
878.13269,475
878.249695,486
878.366821,477
878.483887,463
878.600952,466
878.717957,444
878.834961,470
878.952087,463
879.069092,471
879.186157,465
879.303162,475
879.420227,458
879.537231,476
879.654236,444
879.77124,482
879.888306,459
880.005249,480
880.122314,481
880.239319,462
880.356323,470
880.473328,492
880.590271,444
880.707275,478
880.824341,466
880.941284,476
881.058228,457
881.175232,481
881.292236,484
881.40918,476
881.526123,473
881.643066,484
881.760071,465
881.877014,479
881.993958,473
882.11084,473
882.227783,455
882.344727,464
882.46167,461
882.578613,465
882.695618,472
882.812439,479
882.929382,480
883.046326,472
883.163208,462
883.280151,473
883.397034,450
883.513916,471
883.630798,454
883.747742,477
883.864563,483
883.981506,483
884.098389,486
884.21521,494
884.332153,491
884.448975,486
884.565796,484
884.682678,475
884.7995,484
884.916443,481
885.033264,484
885.150085,493
885.266968,490
885.383789,497
885.500671,460
885.617493,479
885.734314,469
885.851196,478
885.967896,466
886.084717,463
886.201599,492
886.318359,487
886.435181,486
886.552002,473
886.668762,459
886.785645,499
886.902344,452
887.019165,490
887.135925,463
887.252747,469
887.369446,481
887.486267,490
887.603027,472
887.719788,458
887.836548,481
887.953247,483
888.070068,466
888.186829,475
888.303528,465
888.420288,488
888.536987,481
888.653687,474
888.770447,478
888.887146,469
889.003967,480
889.120667,482
889.237305,480
889.354065,498
889.470703,478
889.587463,500
889.704163,486
889.820862,491
889.937561,479
890.054199,469
890.170837,476
890.287598,469
890.404236,479
890.520874,485
890.637634,481
890.754211,486
890.87085,488
890.987549,495
891.104187,486
891.220886,495
891.337463,456
891.454102,501
891.57074,497
891.687378,480
891.804077,494
891.920654,482
892.037231,477
892.15387,480
892.270447,482
892.387085,475
892.503723,482
892.6203,479
892.736877,499
892.853516,483
892.970032,486
893.08667,478
893.203186,490
893.319763,468
893.43634,474
893.552917,516
893.669556,479
893.786011,485
893.902588,471
894.019165,499
894.135681,488
894.252197,464
894.368835,475
894.485291,479
894.601868,481
894.718384,508
894.8349,466
894.951355,504
895.067932,508
895.184448,491
895.300964,480
895.417419,498
895.533936,496
895.650452,474
895.766907,486
895.883423,479
895.999878,487
896.116333,485
896.232849,483
896.349304,478
896.465759,496
896.582214,478
896.698669,476
896.815125,482
896.931641,468
897.048035,490
897.164551,470
897.280884,507
897.397339,473
897.513794,494
897.630249,487
897.746582,519
897.863098,481
897.979431,460
898.095886,501
898.212341,498
898.328674,476
898.445129,497
898.561462,488
898.677795,485
898.794312,487
898.910645,494
899.026978,467
899.143433,483
899.259766,482
899.37616,521
899.492493,492
899.608765,510
899.725159,490
899.841553,466
899.957947,497
900.07428,489
900.190552,478
900.306946,492
900.423157,498
900.53949,478
900.655884,492
900.772156,498
900.888489,468
901.004822,493
901.121033,495
901.237366,468
901.353699,488
901.46991,488
901.586304,474
901.702515,486
901.818787,483
901.93512,496
902.051331,487
902.167603,487
902.283875,511
902.400085,506
902.516418,483
902.632629,479
902.74884,486
902.865112,491
902.981384,488
903.097595,477
903.213867,488
903.330017,484
903.446289,483
903.5625,495
903.67865,483
903.794922,498
903.911072,484
904.027344,490
904.143494,483
904.259705,485
904.375916,504
904.492065,480
904.608215,468
904.724426,493
904.840576,497
904.956726,494
905.072876,495
905.189087,500
905.305176,485
905.421387,492
905.537537,502
905.653687,478
905.769775,507
905.885925,496
906.002014,486
906.118164,499
906.234314,495
906.350403,505
906.466492,505
906.582642,461
906.69873,497
906.814758,511
906.930908,489
907.046936,485
907.163086,491
907.279175,505
907.395264,481
907.511353,495
907.62738,479
907.743408,513
907.859497,491
907.975525,482
908.091553,493
908.207703,484
908.32373,490
908.439758,498
908.555786,484
908.671814,490
908.787842,471
908.90387,509
909.019775,492
909.135864,483
909.251892,491
909.367859,486
909.483826,490
909.599854,488
909.715881,482
909.831848,485
909.947815,496
910.063782,506
910.179749,461
910.295776,500
910.411743,488
910.527649,519
910.643616,496
910.759583,507
910.875488,484
910.991455,489
911.107361,513
911.223267,507
911.339294,480
911.4552,491
911.571106,502
911.687073,499
911.802979,487
911.918823,479
912.034729,489
912.150635,501
912.266602,482
912.382446,489
912.498352,481
912.614197,484
912.730103,506
912.846008,495
792.44574,654
792.56488,655
792.68396,681
792.80304,675
792.92218,634
793.041199,608
793.160339,613
793.279419,649
793.398499,590
793.517578,613
793.636658,626
793.755737,606
793.874817,599
793.993896,623
794.112976,626
794.232056,588
794.351074,601
794.470215,589
794.589233,595
794.708313,572
794.827393,580
794.946411,599
795.065552,589
795.18457,612
795.303589,596
795.422668,569
795.541687,591
795.660767,576
795.779846,598
795.898865,580
796.017883,602
796.136963,586
796.255981,602
796.375061,594
796.49408,595
796.613037,604
796.732117,622
796.851135,593
796.970154,590
797.089233,572
797.208191,597
797.327271,585
797.446228,570
797.565186,598
797.684265,605
797.803223,567
797.922241,597
798.04126,573
798.160278,583
798.279297,566
798.398315,594
798.517273,573
798.636292,568
798.75531,588
798.874268,571
798.993286,588
799.112244,583
799.231323,556
799.350281,575
799.469238,561
799.588257,588
799.707153,568
799.826111,567
799.945129,578
800.064087,557
800.183044,571
800.302063,571
800.421021,574
800.539978,568
800.658936,588
800.777893,568
800.896912,585
801.015747,598
801.134705,572
801.253723,563
801.37262,588
801.491638,584
801.610535,547
801.729492,570
801.84845,575
801.967407,578
802.086243,597
802.205261,560
802.324158,597
802.443115,592
802.562073,582
802.680969,600
802.799927,592
802.918762,595
803.037659,561
803.156677,578
803.275574,589
803.39447,589
803.513428,571
803.632263,595
803.751221,572
803.870117,614
803.989014,585
804.107971,575
804.226746,599
804.345642,571
804.4646,596
804.583496,594
804.702393,587
804.821228,594
804.940125,601
805.059021,598
805.177917,600
805.296814,593
805.415649,605
805.534546,606
805.653442,575
805.772278,623
805.891113,593
806.01001,602
806.128906,609
806.247742,614
806.366577,618
806.485413,610
806.604309,579
806.723145,610
806.84198,595
806.960876,616
807.079712,586
807.198486,611
807.317383,613
807.436218,595
807.554993,612
807.673889,592
807.792725,598
807.91156,601
808.030396,611
808.14917,607
808.268005,613
808.386841,580
808.505676,612
808.624451,613
808.743286,594
808.862122,606
808.980896,587
809.099731,612
809.218506,590
809.337341,605
809.456116,601
809.57489,620
809.693726,610
809.8125,624
809.931274,629
810.050049,594
810.168884,602
810.287659,613
810.406372,627
810.525269,613
810.643982,644
810.762756,636
810.881531,614
811.000305,623
811.11908,635
811.237854,600
811.356567,625
811.475403,614
811.594116,624
811.71283,617
811.831604,619
811.950378,634
812.069153,637
812.187927,620
812.30658,615
812.425415,619
812.544128,620
812.662781,643
812.781616,653
812.900269,614
813.019043,597
813.137756,615
813.256531,625
813.375244,633
813.493896,602
813.612671,625
813.731384,605
813.850037,624
813.96875,608
814.087524,591
814.206238,604
814.324951,642
814.443604,606
814.562256,644
814.68103,636
814.799683,629
814.918335,634
815.037109,635
815.155762,625
815.274475,615
815.393188,603
815.511841,606
815.630554,608
815.749146,605
815.867859,590
815.986572,609
816.105164,596
816.223877,592
816.342529,610
816.461182,590
816.579895,595
816.698486,599
816.817139,626
816.935791,608
817.054504,596
817.173096,595
817.291748,596
817.4104,623
817.529053,589
817.647644,572
817.766235,589
817.884949,566
818.00354,559
818.122192,563
818.240845,564
818.359436,560
818.478088,531
818.59668,558
818.715271,555
818.833923,540
818.952515,514
819.071106,531
819.189758,516
819.30835,526
819.426941,514
819.545532,544
819.664124,509
819.782715,518
819.901306,517
820.019897,509
820.138489,496
820.25708,504
820.375671,501
820.494202,521
820.612732,494
820.731384,492
820.849915,492
820.968506,494
821.087097,493
821.205627,502
821.324158,497
821.442749,509
821.561279,474
821.679871,509
821.798401,469
821.916931,479
822.035461,468
822.154053,492
822.272583,499
822.391174,487
822.509583,488
822.628174,480
822.746704,478
822.865234,474
822.983765,492
823.102295,489
823.220825,483
823.339294,493
823.457825,478
823.576355,490
823.694824,476
823.813354,493
823.931885,492
824.050354,484
824.168884,491
824.287354,494
824.405823,481
824.524353,504
824.642822,485
824.761353,490
824.879822,503
824.998291,496
825.116699,490
825.235291,489
825.353699,483
825.472168,480
825.590637,485
825.709106,499
825.827576,493
825.946045,487
826.064453,488
826.182983,479
826.301392,455
826.4198,504
826.53833,480
826.656738,489
826.775208,468
826.893677,478
827.012024,470
827.130493,481
827.248962,474
827.36731,462
827.485779,466
827.604248,455
827.722595,488
827.841064,488
827.959412,492
828.077942,461
828.196289,471
828.314636,480
828.433105,459
828.551514,485
828.669861,477
828.78833,449
828.906677,461
829.025085,480
829.143433,463
829.261841,450
829.38031,460
829.498657,478
829.617004,475
829.735413,464
829.85376,470
829.972107,476
830.090515,462
830.208862,467
830.327209,472
830.445557,480
830.563904,478
830.682312,449
830.800659,466
830.919006,477
831.037354,473
831.155701,464
831.274048,452
831.392395,479
831.51062,449
831.629028,479
831.747314,463
831.865662,468
831.984009,482
832.102356,463
832.220642,489
832.338928,480
832.457275,457
832.575623,473
832.693909,457
832.812134,472
832.930481,468
833.048828,462
833.167114,452
833.2854,467
833.403687,484
833.521973,456
833.640259,457
833.758545,480
833.876831,462
833.995056,481
834.113281,485
834.231628,488
834.349915,456
834.468201,476
834.586426,464
834.704651,458
834.822998,459
834.941162,476
835.059448,465
835.177673,479
835.295959,480
835.414246,464
835.53241,461
835.650635,476
835.768921,464
835.887146,475
836.005371,487
836.123596,469
836.241821,483
836.360046,475
836.478271,492
836.596497,514
836.714722,478
836.832886,485
836.95105,481
837.069336,503
837.1875,482
837.305725,495
837.423889,488
837.542053,489
837.660339,470
837.778503,470
837.896667,484
838.014832,502
838.132996,485
838.25116,499
838.369385,475
838.487488,480
838.605713,482
838.723877,485
838.84198,484
838.960205,503
839.078308,491
839.196472,474
839.314636,491
839.4328,463
839.550964,485
839.669067,477
839.787231,490
839.905396,490
840.023499,472
840.141602,466
840.259766,479
840.377869,487
840.495972,474
840.614136,473
840.732239,474
840.850342,480
840.968445,464
841.086548,441
841.204651,476
841.322754,492
841.440918,478
841.55896,470
841.677002,456
841.795166,496
841.913208,463
842.031311,467
842.149353,453
842.267456,473
842.385498,473
842.503601,461
842.621643,465
842.739746,478
842.857788,469
842.97583,462
843.093933,464
843.211975,478
843.330017,481
843.44812,464
843.566101,473
843.684204,470
843.802246,453
843.920227,470
844.038269,459
844.156311,471
844.274292,467
844.392395,487
844.510376,478
844.628357,466
844.74646,449
844.864441,469
844.982422,477
845.100403,482
845.218384,444
845.336426,464
845.454468,454
845.572449,479
845.69043,443
845.808411,482
845.926453,438
846.044373,479
846.162354,466
846.280396,455
846.398315,453
846.516296,482
846.634216,464
846.752197,460
846.870178,462
846.988098,456
847.106079,466
847.22406,450
847.34198,484
847.4599,456
847.577881,456
847.695801,482
847.813782,443
847.931641,474
848.049561,447
848.167603,467
848.285461,467
848.403381,468
848.521362,476
848.639221,439
848.75708,471
848.875,479
848.99292,482
849.110901,481
849.22876,444
849.34668,474
849.464539,478
849.582458,483
849.700317,481
849.818176,485
849.936096,484
850.053955,463
850.171875,450
850.289673,457
850.407593,470
850.525452,478
850.643311,473
850.761169,472
850.878967,456
850.996887,490
851.114746,471
851.232544,444
851.350403,443
851.468262,474
851.58606,469
851.703979,463
851.821777,479
851.939636,476
852.057434,464
852.175232,479
852.293091,451
852.410889,480
852.528687,458
852.646545,466
852.764343,476
852.88208,477
852.999939,452
853.117676,455
853.235535,444
853.353271,479
853.471069,451
853.588928,472
853.706604,471
853.824402,462
853.9422,478
854.059998,458
854.177734,471
854.295532,449
854.413269,457
854.531006,472
854.648804,473
854.766541,476
854.884277,463
855.002014,478
855.119751,446
855.237549,489
855.355225,478
855.473022,466
855.590698,479
855.708435,474
855.826172,465
855.943848,472
856.061646,465
856.179321,467
856.296997,467
856.414795,488
856.53241,453
856.650085,472
856.767822,477
856.885559,468
857.003174,483
857.120911,463
857.238586,487
857.356201,480
857.473938,476
857.591614,474
857.709351,476
857.826965,461
857.944641,479
858.062317,457
858.179993,454
858.297668,471
858.415283,463
858.532959,475
858.650574,490
858.768188,481
858.885803,473
859.003479,454
859.121094,461
859.23877,488
859.356384,475
859.473999,477
859.591675,467
859.709229,453
859.826843,466
859.944458,469
860.062012,451
860.179626,463
860.297302,464
860.414856,492
860.532471,461
860.650024,460
860.767639,464
860.885193,469
861.002808,445
861.120361,455
861.237976,478
861.35553,463
861.473022,472
861.590698,477
861.708191,464
861.825745,469
861.943298,475
862.060852,474
862.178406,478
862.295959,475
862.413513,485
862.531006,479
862.64856,460
862.766113,478
862.883667,450
863.00116,457
863.118713,476
863.236206,459
863.353699,470
863.471252,469
863.588745,467
863.706177,474
863.82373,470
863.941162,485
864.058716,461
864.176208,477
864.29364,495
864.411194,475
864.528687,457
864.646118,495
864.763611,470
864.881042,455
864.998535,456
865.116028,482
865.233459,468
865.350891,452
865.468384,468
865.585754,470
865.703308,479
865.820679,475
865.938171,479
866.055542,477
866.173035,473
866.290466,477
866.407837,456
866.52533,486
866.6427,467
866.760071,462
866.877563,464
866.994934,482
867.112305,451
867.229736,475
867.347107,472
867.464539,461
867.58197,476
867.699341,467
867.81665,481
867.934082,464
868.051453,462
868.168823,479
868.286194,467
868.403564,472
868.520935,471
868.638306,464
868.755676,458
868.872986,489
868.990295,461
869.107727,482
869.225037,470
869.342346,468
869.459717,465
869.577026,468
869.694336,467
869.811707,489
869.929016,484
870.046326,475
870.163635,458
870.280945,472
870.398254,476
870.515564,479
870.632812,455
870.750183,466
870.867432,458
870.984741,504
871.102051,456
871.219299,480
871.336609,462
871.453918,465
871.571106,464
871.688416,478
871.805664,460
871.922852,484
872.040222,453
872.157471,482
872.274719,470
872.391968,484
872.509155,462
872.626465,455
872.743652,454
872.860962,473
872.978149,490
873.095337,480
873.212646,485
873.329834,473
873.44696,466
873.564209,458
873.681396,479
873.798645,474
873.915894,469
874.03302,478
874.150208,454
874.267456,483
874.384583,470
874.501831,461
874.618958,467
874.736145,474
874.853333,463
874.970459,469
875.087646,463
875.204834,481
875.32196,471
875.439148,482
875.556274,480
875.673401,470
875.790527,456
875.907715,464
876.024841,474
876.141968,478
876.259094,467
876.376282,461
876.493347,470
876.610474,472
876.7276,477
876.844727,467
876.961853,470
877.078918,491
877.195984,479
877.313171,478
877.430237,459
877.547302,478
877.664368,469
877.781433,478
877.898499,469
878.015625,491
878.13269,469
878.249695,470
878.366821,465
878.483887,473
878.600952,476
878.717957,465
878.834961,474
878.952087,470
879.069092,475
879.186157,467
879.303162,464
879.420227,489
879.537231,446
879.654236,484
879.77124,464
879.888306,483
880.005249,467
880.122314,482
880.239319,448
880.356323,488
880.473328,466
880.590271,490
880.707275,454
880.824341,487
880.941284,450
881.058228,486
881.175232,455
881.292236,474
881.40918,475
881.526123,469
881.643066,475
881.760071,479
881.877014,472
881.993958,464
882.11084,460
882.227783,491
882.344727,479
882.46167,482
882.578613,476
882.695618,480
882.812439,465
882.929382,485
883.046326,467
883.163208,483
883.280151,468
883.397034,494
883.513916,474
883.630798,466
883.747742,447
883.864563,467
883.981506,469
884.098389,505
884.21521,470
884.332153,474
884.448975,479
884.565796,479
884.682678,481
884.7995,461
884.916443,481
885.033264,485
885.150085,483
885.266968,488
885.383789,485
885.500671,473
885.617493,474
885.734314,486
885.851196,463
885.967896,475
886.084717,482
886.201599,491
886.318359,460
886.435181,483
886.552002,484
886.668762,498
886.785645,467
886.902344,481
887.019165,477
887.135925,482
887.252747,479
887.369446,465
887.486267,478
887.603027,472
887.719788,488
887.836548,477
887.953247,467
888.070068,482
888.186829,456
888.303528,482
888.420288,488
888.536987,481
888.653687,496
888.770447,467
888.887146,478
889.003967,479
889.120667,475
889.237305,499
889.354065,486
889.470703,462
889.587463,495
889.704163,486
889.820862,488
889.937561,483
890.054199,462
890.170837,478
890.287598,476
890.404236,474
890.520874,477
890.637634,469
890.754211,472
890.87085,470
890.987549,500
891.104187,484
891.220886,482
891.337463,476
891.454102,478
891.57074,498
891.687378,483
891.804077,487
891.920654,481
892.037231,480
892.15387,487
892.270447,494
892.387085,471
892.503723,484
892.6203,486
892.736877,481
892.853516,485
892.970032,482
893.08667,486
893.203186,489
893.319763,481
893.43634,479
893.552917,477
893.669556,489
893.786011,480
893.902588,483
894.019165,489
894.135681,481
894.252197,473
894.368835,488
894.485291,478
894.601868,466
894.718384,493
894.8349,452
894.951355,468
895.067932,477
895.184448,485
895.300964,475
895.417419,481
895.533936,454
895.650452,466
895.766907,495
895.883423,473
895.999878,489
896.116333,489
896.232849,484
896.349304,492
896.465759,465
896.582214,483
896.698669,486
896.815125,479
896.931641,480
897.048035,484
897.164551,513
897.280884,471
897.397339,490
897.513794,462
897.630249,489
897.746582,497
897.863098,496
897.979431,474
898.095886,476
898.212341,492
898.328674,491
898.445129,478
898.561462,489
898.677795,485
898.794312,481
898.910645,483
899.026978,489
899.143433,486
899.259766,466
899.37616,501
899.492493,484
899.608765,484
899.725159,521
899.841553,472
899.957947,489
900.07428,515
900.190552,494
900.306946,495
900.423157,498
900.53949,471
900.655884,472
900.772156,498
900.888489,489
901.004822,480
901.121033,507
901.237366,473
901.353699,488
901.46991,491
901.586304,500
901.702515,477
901.818787,487
901.93512,491
902.051331,487
902.167603,479
902.283875,486
902.400085,505
902.516418,503
902.632629,483
902.74884,501
902.865112,494
902.981384,491
903.097595,493
903.213867,498
903.330017,501
903.446289,488
903.5625,501
903.67865,491
903.794922,484
903.911072,488
904.027344,474
904.143494,507
904.259705,481
904.375916,482
904.492065,468
904.608215,485
904.724426,500
904.840576,491
904.956726,480
905.072876,490
905.189087,470
905.305176,488
905.421387,485
905.537537,502
905.653687,482
905.769775,488
905.885925,490
906.002014,493
906.118164,492
906.234314,493
906.350403,474
906.466492,480
906.582642,476
906.69873,500
906.814758,493
906.930908,489
907.046936,476
907.163086,494
907.279175,499
907.395264,515
907.511353,493
907.62738,480
907.743408,473
907.859497,525
907.975525,492
908.091553,509
908.207703,502
908.32373,493
908.439758,483
908.555786,474
908.671814,482
908.787842,492
908.90387,468
909.019775,497
909.135864,492
909.251892,510
909.367859,502
909.483826,491
909.599854,483
909.715881,497
909.831848,484
909.947815,514
910.063782,477
910.179749,507
910.295776,480
910.411743,487
910.527649,488
910.643616,491
910.759583,510
910.875488,512
910.991455,513
911.107361,509
911.223267,485
911.339294,509
911.4552,485
911.571106,479
911.687073,505
911.802979,497
911.918823,490
912.034729,510
912.150635,498
912.266602,495
912.382446,505
912.498352,486
912.614197,472
912.730103,496
912.846008,494
