792.44574,633
792.56488,637
792.68396,677
792.80304,657
792.92218,626
793.041199,599
793.160339,602
793.279419,627
793.398499,609
793.517578,593
793.636658,604
793.755737,572
793.874817,615
793.993896,637
794.112976,608
794.232056,586
794.351074,581
794.470215,591
794.589233,581
794.708313,593
794.827393,580
794.946411,590
795.065552,589
795.18457,572
795.303589,584
795.422668,592
795.541687,567
795.660767,582
795.779846,554
795.898865,564
796.017883,580
796.136963,576
796.255981,556
796.375061,554
796.49408,586
796.613037,563
796.732117,588
796.851135,562
796.970154,576
797.089233,573
797.208191,581
797.327271,583
797.446228,551
797.565186,557
797.684265,576
797.803223,563
797.922241,563
798.04126,580
798.160278,556
798.279297,563
798.398315,581
798.517273,585
798.636292,597
798.75531,578
798.874268,569
798.993286,567
799.112244,567
799.231323,562
799.350281,570
799.469238,570
799.588257,556
799.707153,551
799.826111,573
799.945129,566
800.064087,577
800.183044,567
800.302063,592
800.421021,575
800.539978,572
800.658936,539
800.777893,583
800.896912,574
801.015747,566
801.134705,577
801.253723,571
801.37262,581
801.491638,579
801.610535,552
801.729492,587
801.84845,565
801.967407,573
802.086243,556
802.205261,587
802.324158,586
802.443115,590
802.562073,568
802.680969,563
802.799927,570
802.918762,567
803.037659,578
803.156677,575
803.275574,605
803.39447,573
803.513428,582
803.632263,606
803.751221,589
803.870117,599
803.989014,573
804.107971,574
804.226746,592
804.345642,598
804.4646,578
804.583496,588
804.702393,556
804.821228,574
804.940125,583
805.059021,571
805.177917,599
805.296814,609
805.415649,602
805.534546,579
805.653442,570
805.772278,589
805.891113,599
806.01001,581
806.128906,581
806.247742,606
806.366577,578
806.485413,586
806.604309,605
806.723145,594
806.84198,612
806.960876,594
807.079712,591
807.198486,622
807.317383,585
807.436218,601
807.554993,568
807.673889,612
807.792725,589
807.91156,598
808.030396,594
808.14917,598
808.268005,587
808.386841,582
808.505676,597
808.624451,620
808.743286,615
808.862122,612
808.980896,572
809.099731,615
809.218506,617
809.337341,600
809.456116,585
809.57489,600
809.693726,603
809.8125,620
809.931274,628
810.050049,610
810.168884,613
810.287659,635
810.406372,621
810.525269,620
810.643982,609
810.762756,614
810.881531,653
811.000305,619
811.11908,588
811.237854,613
811.356567,600
811.475403,627
811.594116,616
811.71283,614
811.831604,595
811.950378,605
812.069153,615
812.187927,609
812.30658,625
812.425415,624
812.544128,608
812.662781,625
812.781616,612
812.900269,619
813.019043,603
813.137756,613
813.256531,634
813.375244,622
813.493896,608
813.612671,635
813.731384,615
813.850037,629
813.96875,611
814.087524,609
814.206238,608
814.324951,619
814.443604,602
814.562256,585
814.68103,606
814.799683,603
814.918335,603
815.037109,609
815.155762,594
815.274475,594
815.393188,608
815.511841,600
815.630554,594
815.749146,621
815.867859,599
815.986572,575
816.105164,593
816.223877,609
816.342529,594
816.461182,603
816.579895,596
816.698486,611
816.817139,597
816.935791,610
817.054504,579
817.173096,598
817.291748,593
817.4104,591
817.529053,586
817.647644,587
817.766235,595
817.884949,554
818.00354,556
818.122192,541
818.240845,552
818.359436,555
818.478088,546
818.59668,552
818.715271,519
818.833923,525
818.952515,525
819.071106,524
819.189758,524
819.30835,506
819.426941,519
819.545532,504
819.664124,518
819.782715,506
819.901306,500
820.019897,494
820.138489,486
820.25708,509
820.375671,493
820.494202,494
820.612732,508
820.731384,489
820.849915,500
820.968506,493
821.087097,500
821.205627,504
821.324158,476
821.442749,482
821.561279,476
821.679871,515
821.798401,465
821.916931,486
822.035461,474
822.154053,465
822.272583,479
822.391174,501
822.509583,493
822.628174,480
822.746704,469
822.865234,473
822.983765,464
823.102295,489
823.220825,495
823.339294,489
823.457825,471
823.576355,480
823.694824,460
823.813354,498
823.931885,475
824.050354,512
824.168884,449
824.287354,472
824.405823,480
824.524353,489
824.642822,478
824.761353,491
824.879822,466
824.998291,472
825.116699,468
825.235291,501
825.353699,447
825.472168,486
825.590637,467
825.709106,479
825.827576,474
825.946045,470
826.064453,473
826.182983,467
826.301392,479
826.4198,472
826.53833,475
826.656738,474
826.775208,468
826.893677,455
827.012024,459
827.130493,471
827.248962,465
827.36731,460
827.485779,464
827.604248,477
827.722595,455
827.841064,459
827.959412,464
828.077942,460
828.196289,455
828.314636,443
828.433105,440
828.551514,442
828.669861,454
828.78833,454
828.906677,459
829.025085,452
829.143433,464
829.261841,474
829.38031,455
829.498657,463
829.617004,468
829.735413,446
829.85376,460
829.972107,462
830.090515,447
830.208862,457
830.327209,467
830.445557,454
830.563904,470
830.682312,453
830.800659,464
830.919006,430
831.037354,480
831.155701,456
831.274048,455
831.392395,449
831.51062,466
831.629028,457
831.747314,459
831.865662,459
831.984009,464
832.102356,476
832.220642,434
832.338928,475
832.457275,466
832.575623,444
832.693909,456
832.812134,458
832.930481,459
833.048828,471
833.167114,470
833.2854,458
833.403687,461
833.521973,484
833.640259,450
833.758545,485
833.876831,444
833.995056,462
834.113281,466
834.231628,460
834.349915,470
834.468201,451
834.586426,473
834.704651,473
834.822998,445
834.941162,452
835.059448,428
835.177673,490
835.295959,442
835.414246,476
835.53241,445
835.650635,462
835.768921,460
835.887146,462
836.005371,457
836.123596,475
836.241821,465
836.360046,472
836.478271,467
836.596497,469
836.714722,465
836.832886,473
836.95105,475
837.069336,464
837.1875,469
837.305725,478
837.423889,471
837.542053,473
837.660339,477
837.778503,467
837.896667,477
838.014832,476
838.132996,470
838.25116,489
838.369385,471
838.487488,466
838.605713,460
838.723877,478
838.84198,462
838.960205,472
839.078308,472
839.196472,462
839.314636,466
839.4328,468
839.550964,471
839.669067,466
839.787231,483
839.905396,467
840.023499,484
840.141602,470
840.259766,471
840.377869,490
840.495972,489
840.614136,480
840.732239,459
840.850342,471
840.968445,454
841.086548,474
841.204651,478
841.322754,463
841.440918,464
841.55896,475
841.677002,477
841.795166,482
841.913208,463
842.031311,457
842.149353,461
842.267456,450
842.385498,458
842.503601,454
842.621643,450
842.739746,454
842.857788,462
842.97583,441
843.093933,479
843.211975,458
843.330017,452
843.44812,461
843.566101,468
843.684204,461
843.802246,470
843.920227,472
844.038269,453
844.156311,467
844.274292,445
844.392395,469
844.510376,461
844.628357,478
844.74646,443
844.864441,463
844.982422,450
845.100403,467
845.218384,468
845.336426,461
845.454468,459
845.572449,451
845.69043,450
845.808411,465
845.926453,451
846.044373,447
846.162354,451
846.280396,456
846.398315,459
846.516296,447
846.634216,435
846.752197,458
846.870178,448
846.988098,457
847.106079,473
847.22406,451
847.34198,454
847.4599,462
847.577881,457
847.695801,468
847.813782,441
847.931641,460
848.049561,443
848.167603,445
848.285461,445
848.403381,462
848.521362,450
848.639221,468
848.75708,471
848.875,454
848.99292,440
849.110901,460
849.22876,453
849.34668,462
849.464539,463
849.582458,446
849.700317,452
849.818176,433
849.936096,454
850.053955,461
850.171875,456
850.289673,477
850.407593,461
850.525452,441
850.643311,461
850.761169,457
850.878967,453
850.996887,457
851.114746,449
851.232544,452
851.350403,434
851.468262,457
851.58606,449
851.703979,461
851.821777,468
851.939636,459
852.057434,453
852.175232,453
852.293091,468
852.410889,456
852.528687,459
852.646545,446
852.764343,447
852.88208,453
852.999939,456
853.117676,446
853.235535,463
853.353271,480
853.471069,454
853.588928,456
853.706604,475
853.824402,481
853.9422,445
854.059998,465
854.177734,472
854.295532,473
854.413269,460
854.531006,457
854.648804,448
854.766541,458
854.884277,453
855.002014,474
855.119751,441
855.237549,471
855.355225,461
855.473022,446
855.590698,459
855.708435,457
855.826172,453
855.943848,457
856.061646,472
856.179321,445
856.296997,457
856.414795,463
856.53241,470
856.650085,466
856.767822,443
856.885559,469
857.003174,469
857.120911,470
857.238586,448
857.356201,473
857.473938,464
857.591614,464
857.709351,466
857.826965,465
857.944641,465
858.062317,472
858.179993,436
858.297668,474
858.415283,462
858.532959,462
858.650574,455
858.768188,455
858.885803,475
859.003479,466
859.121094,447
859.23877,462
859.356384,444
859.473999,455
859.591675,457
859.709229,472
859.826843,458
859.944458,461
860.062012,457
860.179626,439
860.297302,455
860.414856,451
860.532471,453
860.650024,465
860.767639,451
860.885193,448
861.002808,460
861.120361,456
861.237976,439
861.35553,450
861.473022,471
861.590698,467
861.708191,451
861.825745,468
861.943298,469
862.060852,450
862.178406,435
862.295959,474
862.413513,461
862.531006,471
862.64856,448
862.766113,446
862.883667,456
863.00116,463
863.118713,465
863.236206,448
863.353699,424
863.471252,432
863.588745,452
863.706177,454
863.82373,457
863.941162,459
864.058716,443
864.176208,467
864.29364,441
864.411194,463
864.528687,447
864.646118,475
864.763611,456
864.881042,472
864.998535,453
865.116028,455
865.233459,471
865.350891,451
865.468384,467
865.585754,478
865.703308,457
865.820679,463
865.938171,457
866.055542,466
866.173035,451
866.290466,465
866.407837,461
866.52533,469
866.6427,452
866.760071,463
866.877563,447
866.994934,451
867.112305,442
867.229736,476
867.347107,467
867.464539,482
867.58197,463
867.699341,473
867.81665,447
867.934082,453
868.051453,449
868.168823,470
868.286194,476
868.403564,472
868.520935,453
868.638306,476
868.755676,467
868.872986,456
868.990295,481
869.107727,465
869.225037,453
869.342346,448
869.459717,478
869.577026,465
869.694336,460
869.811707,474
869.929016,438
870.046326,469
870.163635,464
870.280945,455
870.398254,454
870.515564,458
870.632812,475
870.750183,466
870.867432,463
870.984741,457
871.102051,456
871.219299,464
871.336609,474
871.453918,470
871.571106,466
871.688416,461
871.805664,470
871.922852,471
872.040222,477
872.157471,456
872.274719,476
872.391968,465
872.509155,458
872.626465,454
872.743652,457
872.860962,454
872.978149,446
873.095337,477
873.212646,453
873.329834,468
873.44696,471
873.564209,450
873.681396,456
873.798645,478
873.915894,458
874.03302,486
874.150208,459
874.267456,466
874.384583,467
874.501831,473
874.618958,475
874.736145,471
874.853333,464
874.970459,465
875.087646,457
875.204834,467
875.32196,465
875.439148,478
875.556274,447
875.673401,461
875.790527,459
875.907715,457
876.024841,449
876.141968,472
876.259094,480
876.376282,453
876.493347,460
876.610474,453
876.7276,476
876.844727,466
876.961853,463
877.078918,458
877.195984,470
877.313171,490
877.430237,463
877.547302,479
877.664368,455
877.781433,473
877.898499,471
878.015625,467
878.13269,464
878.249695,483
878.366821,455
878.483887,463
878.600952,468
878.717957,455
878.834961,464
878.952087,450
879.069092,453
879.186157,469
879.303162,455
879.420227,469
879.537231,454
879.654236,467
879.77124,447
879.888306,465
880.005249,459
880.122314,452
880.239319,469
880.356323,475
880.473328,485
880.590271,481
880.707275,476
880.824341,442
880.941284,455
881.058228,479
881.175232,452
881.292236,456
881.40918,471
881.526123,444
881.643066,479
881.760071,481
881.877014,476
881.993958,475
882.11084,464
882.227783,461
882.344727,464
882.46167,478
882.578613,453
882.695618,465
882.812439,465
882.929382,459
883.046326,465
883.163208,493
883.280151,471
883.397034,467
883.513916,464
883.630798,468
883.747742,455
883.864563,441
883.981506,468
884.098389,448
884.21521,448
884.332153,479
884.448975,464
884.565796,473
884.682678,482
884.7995,474
884.916443,474
885.033264,486
885.150085,484
885.266968,459
885.383789,459
885.500671,490
885.617493,476
885.734314,472
885.851196,472
885.967896,468
886.084717,481
886.201599,465
886.318359,463
886.435181,473
886.552002,463
886.668762,488
886.785645,455
886.902344,480
887.019165,464
887.135925,485
887.252747,474
887.369446,463
887.486267,475
887.603027,486
887.719788,481
887.836548,476
887.953247,455
888.070068,512
888.186829,464
888.303528,501
888.420288,464
888.536987,476
888.653687,463
888.770447,469
888.887146,463
889.003967,467
889.120667,458
889.237305,478
889.354065,473
889.470703,471
889.587463,487
889.704163,475
889.820862,472
889.937561,462
890.054199,477
890.170837,463
890.287598,482
890.404236,483
890.520874,468
890.637634,470
890.754211,469
890.87085,480
890.987549,465
891.104187,487
891.220886,483
891.337463,488
891.454102,484
891.57074,494
891.687378,457
891.804077,494
891.920654,466
892.037231,466
892.15387,472
892.270447,470
892.387085,456
892.503723,492
892.6203,472
892.736877,483
892.853516,475
892.970032,446
893.08667,474
893.203186,455
893.319763,483
893.43634,484
893.552917,460
893.669556,473
893.786011,469
893.902588,459
894.019165,481
894.135681,487
894.252197,471
894.368835,484
894.485291,466
894.601868,488
894.718384,485
894.8349,489
894.951355,473
895.067932,470
895.184448,458
895.300964,484
895.417419,463
895.533936,479
895.650452,474
895.766907,481
895.883423,465
895.999878,477
896.116333,469
896.232849,489
896.349304,480
896.465759,466
896.582214,479
896.698669,472
896.815125,498
896.931641,475
897.048035,467
897.164551,483
897.280884,457
897.397339,488
897.513794,484
897.630249,482
897.746582,458
897.863098,485
897.979431,484
898.095886,483
898.212341,463
898.328674,490
898.445129,471
898.561462,476
898.677795,487
898.794312,471
898.910645,474
899.026978,497
899.143433,484
899.259766,467
899.37616,464
899.492493,494
899.608765,469
899.725159,494
899.841553,467
899.957947,492
900.07428,481
900.190552,495
900.306946,479
900.423157,489
900.53949,486
900.655884,478
900.772156,472
900.888489,487
901.004822,472
901.121033,461
901.237366,468
901.353699,490
901.46991,493
901.586304,486
901.702515,465
901.818787,473
901.93512,472
902.051331,488
902.167603,473
902.283875,487
902.400085,481
902.516418,509
902.632629,491
902.74884,499
902.865112,468
902.981384,515
903.097595,483
903.213867,491
903.330017,474
903.446289,480
903.5625,468
903.67865,492
903.794922,466
903.911072,477
904.027344,453
904.143494,484
904.259705,480
904.375916,484
904.492065,492
904.608215,459
904.724426,475
904.840576,468
904.956726,466
905.072876,487
905.189087,477
905.305176,473
905.421387,484
905.537537,488
905.653687,485
905.769775,478
905.885925,485
906.002014,479
906.118164,459
906.234314,488
906.350403,468
906.466492,476
906.582642,493
906.69873,490
906.814758,495
906.930908,492
907.046936,488
907.163086,478
907.279175,496
907.395264,499
907.511353,476
907.62738,496
907.743408,464
907.859497,496
907.975525,468
908.091553,483
908.207703,476
908.32373,475
908.439758,474
908.555786,484
908.671814,475
908.787842,486
908.90387,482
909.019775,493
909.135864,474
909.251892,490
909.367859,478
909.483826,493
909.599854,471
909.715881,488
909.831848,483
909.947815,508
910.063782,489
910.179749,477
910.295776,464
910.411743,482
910.527649,492
910.643616,501
910.759583,467
910.875488,478
910.991455,484
911.107361,506
911.223267,477
911.339294,483
911.4552,484
911.571106,482
911.687073,481
911.802979,494
911.918823,495
912.034729,499
912.150635,468
912.266602,479
912.382446,446
912.498352,473
912.614197,475
912.730103,488
912.846008,472
792.44574,615
792.56488,654
792.68396,696
792.80304,701
792.92218,641
793.041199,591
793.160339,602
793.279419,615
793.398499,607
793.517578,587
793.636658,579
793.755737,601
793.874817,618
793.993896,611
794.112976,610
794.232056,606
794.351074,588
794.470215,575
794.589233,607
794.708313,582
794.827393,589
794.946411,598
795.065552,607
795.18457,564
795.303589,581
795.422668,592
795.541687,586
795.660767,609
795.779846,604
795.898865,581
796.017883,553
796.136963,597
796.255981,595
796.375061,571
796.49408,610
796.613037,577
796.732117,584
796.851135,578
796.970154,554
797.089233,567
797.208191,558
797.327271,591
797.446228,564
797.565186,584
797.684265,561
797.803223,559
797.922241,553
798.04126,580
798.160278,560
798.279297,581
798.398315,570
798.517273,551
798.636292,564
798.75531,567
798.874268,580
798.993286,581
799.112244,562
799.231323,551
799.350281,581
799.469238,558
799.588257,575
799.707153,567
799.826111,570
799.945129,579
800.064087,574
800.183044,552
800.302063,583
800.421021,587
800.539978,572
800.658936,573
800.777893,582
800.896912,552
801.015747,574
801.134705,566
801.253723,565
801.37262,557
801.491638,586
801.610535,569
801.729492,566
801.84845,562
801.967407,583
802.086243,590
802.205261,584
802.324158,578
802.443115,589
802.562073,565
802.680969,599
802.799927,585
802.918762,587
803.037659,570
803.156677,571
803.275574,582
803.39447,581
803.513428,586
803.632263,605
803.751221,575
803.870117,591
803.989014,575
804.107971,606
804.226746,578
804.345642,593
804.4646,612
804.583496,575
804.702393,577
804.821228,597
804.940125,593
805.059021,590
805.177917,585
805.296814,607
805.415649,596
805.534546,584
805.653442,604
805.772278,602
805.891113,609
806.01001,609
806.128906,612
806.247742,645
806.366577,610
806.485413,591
806.604309,596
806.723145,614
806.84198,598
806.960876,611
807.079712,610
807.198486,608
807.317383,609
807.436218,601
807.554993,591
807.673889,617
807.792725,601
807.91156,611
808.030396,597
808.14917,607
808.268005,601
808.386841,615
808.505676,620
808.624451,609
808.743286,602
808.862122,622
808.980896,570
809.099731,626
809.218506,601
809.337341,606
809.456116,620
809.57489,618
809.693726,593
809.8125,616
809.931274,619
810.050049,607
810.168884,603
810.287659,602
810.406372,621
810.525269,608
810.643982,616
810.762756,616
810.881531,618
811.000305,610
811.11908,613
811.237854,630
811.356567,595
811.475403,630
811.594116,620
811.71283,601
811.831604,632
811.950378,642
812.069153,613
812.187927,619
812.30658,614
812.425415,618
812.544128,606
812.662781,611
812.781616,633
812.900269,643
813.019043,616
813.137756,621
813.256531,626
813.375244,600
813.493896,639
813.612671,613
813.731384,624
813.850037,631
813.96875,622
814.087524,615
814.206238,628
814.324951,606
814.443604,611
814.562256,594
814.68103,624
814.799683,599
814.918335,588
815.037109,604
815.155762,596
815.274475,591
815.393188,584
815.511841,607
815.630554,592
815.749146,608
815.867859,586
815.986572,612
816.105164,611
816.223877,621
816.342529,601
816.461182,620
816.579895,591
816.698486,618
816.817139,618
816.935791,617
817.054504,613
817.173096,617
817.291748,588
817.4104,611
817.529053,608
817.647644,580
817.766235,585
817.884949,575
818.00354,589
818.122192,566
818.240845,527
818.359436,547
818.478088,531
818.59668,529
818.715271,536
818.833923,532
818.952515,519
819.071106,532
819.189758,512
819.30835,505
819.426941,510
819.545532,513
819.664124,512
819.782715,513
819.901306,497
820.019897,485
820.138489,490
820.25708,487
820.375671,505
820.494202,503
820.612732,479
820.731384,497
820.849915,485
820.968506,478
821.087097,481
821.205627,489
821.324158,498
821.442749,490
821.561279,468
821.679871,482
821.798401,470
821.916931,487
822.035461,470
822.154053,492
822.272583,488
822.391174,468
822.509583,464
822.628174,481
822.746704,477
822.865234,476
822.983765,475
823.102295,505
823.220825,476
823.339294,481
823.457825,489
823.576355,465
823.694824,453
823.813354,483
823.931885,485
824.050354,505
824.168884,492
824.287354,473
824.405823,483
824.524353,476
824.642822,470
824.761353,498
824.879822,467
824.998291,480
825.116699,494
825.235291,482
825.353699,494
825.472168,479
825.590637,479
825.709106,488
825.827576,497
825.946045,462
826.064453,468
826.182983,475
826.301392,459
826.4198,462
826.53833,471
826.656738,451
826.775208,473
826.893677,475
827.012024,471
827.130493,485
827.248962,473
827.36731,450
827.485779,459
827.604248,471
827.722595,472
827.841064,471
827.959412,487
828.077942,471
828.196289,460
828.314636,448
828.433105,462
828.551514,468
828.669861,456
828.78833,467
828.906677,454
829.025085,472
829.143433,462
829.261841,481
829.38031,447
829.498657,489
829.617004,459
829.735413,453
829.85376,459
829.972107,464
830.090515,460
830.208862,459
830.327209,468
830.445557,453
830.563904,474
830.682312,458
830.800659,459
830.919006,445
831.037354,446
831.155701,485
831.274048,477
831.392395,470
831.51062,450
831.629028,456
831.747314,468
831.865662,448
831.984009,478
832.102356,467
832.220642,464
832.338928,465
832.457275,468
832.575623,477
832.693909,445
832.812134,468
832.930481,466
833.048828,467
833.167114,453
833.2854,463
833.403687,461
833.521973,471
833.640259,453
833.758545,457
833.876831,447
833.995056,448
834.113281,470
834.231628,468
834.349915,468
834.468201,473
834.586426,462
834.704651,473
834.822998,461
834.941162,474
835.059448,450
835.177673,456
835.295959,458
835.414246,464
835.53241,438
835.650635,483
835.768921,462
835.887146,472
836.005371,452
836.123596,473
836.241821,460
836.360046,460
836.478271,456
836.596497,461
836.714722,476
836.832886,464
836.95105,506
837.069336,485
837.1875,482
837.305725,471
837.423889,485
837.542053,464
837.660339,477
837.778503,485
837.896667,493
838.014832,495
838.132996,463
838.25116,481
838.369385,489
838.487488,496
838.605713,477
838.723877,482
838.84198,466
838.960205,481
839.078308,476
839.196472,465
839.314636,467
839.4328,488
839.550964,470
839.669067,468
839.787231,473
839.905396,462
840.023499,499
840.141602,475
840.259766,474
840.377869,468
840.495972,458
840.614136,455
840.732239,472
840.850342,480
840.968445,464
841.086548,461
841.204651,466
841.322754,474
841.440918,460
841.55896,475
841.677002,464
841.795166,487
841.913208,452
842.031311,469
842.149353,467
842.267456,479
842.385498,468
842.503601,450
842.621643,432
842.739746,478
842.857788,463
842.97583,450
843.093933,465
843.211975,467
843.330017,454
843.44812,450
843.566101,447
843.684204,467
843.802246,460
843.920227,454
844.038269,439
844.156311,462
844.274292,469
844.392395,473
844.510376,449
844.628357,449
844.74646,460
844.864441,467
844.982422,449
845.100403,443
845.218384,464
845.336426,464
845.454468,450
845.572449,451
845.69043,468
845.808411,446
845.926453,456
846.044373,462
846.162354,456
846.280396,459
846.398315,450
846.516296,468
846.634216,450
846.752197,457
846.870178,463
846.988098,475
847.106079,449
847.22406,447
847.34198,445
847.4599,447
847.577881,443
847.695801,457
847.813782,451
847.931641,446
848.049561,461
848.167603,452
848.285461,467
848.403381,466
848.521362,444
848.639221,465
848.75708,444
848.875,456
848.99292,458
849.110901,456
849.22876,464
849.34668,463
849.464539,441
849.582458,459
849.700317,435
849.818176,462
849.936096,450
850.053955,472
850.171875,453
850.289673,454
850.407593,444
850.525452,455
850.643311,463
850.761169,442
850.878967,434
850.996887,473
851.114746,456
851.232544,458
851.350403,462
851.468262,464
851.58606,449
851.703979,463
851.821777,448
851.939636,443
852.057434,438
852.175232,458
852.293091,464
852.410889,460
852.528687,449
852.646545,451
852.764343,453
852.88208,458
852.999939,461
853.117676,446
853.235535,455
853.353271,474
853.471069,449
853.588928,450
853.706604,442
853.824402,467
853.9422,454
854.059998,444
854.177734,437
854.295532,457
854.413269,467
854.531006,454
854.648804,441
854.766541,478
854.884277,466
855.002014,474
855.119751,471
855.237549,452
855.355225,433
855.473022,462
855.590698,457
855.708435,460
855.826172,454
855.943848,452
856.061646,447
856.179321,467
856.296997,465
856.414795,474
856.53241,458
856.650085,482
856.767822,444
856.885559,473
857.003174,463
857.120911,469
857.238586,480
857.356201,468
857.473938,475
857.591614,479
857.709351,475
857.826965,476
857.944641,436
858.062317,455
858.179993,465
858.297668,477
858.415283,471
858.532959,457
858.650574,471
858.768188,465
858.885803,470
859.003479,478
859.121094,478
859.23877,469
859.356384,476
859.473999,474
859.591675,455
859.709229,460
859.826843,472
859.944458,442
860.062012,456
860.179626,450
860.297302,455
860.414856,465
860.532471,460
860.650024,476
860.767639,462
860.885193,466
861.002808,441
861.120361,485
861.237976,468
861.35553,459
861.473022,447
861.590698,483
861.708191,439
861.825745,454
861.943298,473
862.060852,482
862.178406,452
862.295959,460
862.413513,465
862.531006,444
862.64856,440
862.766113,468
862.883667,448
863.00116,463
863.118713,477
863.236206,457
863.353699,444
863.471252,467
863.588745,443
863.706177,448
863.82373,456
863.941162,457
864.058716,454
864.176208,454
864.29364,472
864.411194,450
864.528687,483
864.646118,451
864.763611,448
864.881042,477
864.998535,440
865.116028,455
865.233459,449
865.350891,480
865.468384,473
865.585754,477
865.703308,465
865.820679,472
865.938171,473
866.055542,429
866.173035,463
866.290466,482
866.407837,456
866.52533,480
866.6427,477
866.760071,472
866.877563,457
866.994934,480
867.112305,471
867.229736,461
867.347107,440
867.464539,461
867.58197,467
867.699341,473
867.81665,458
867.934082,461
868.051453,459
868.168823,467
868.286194,456
868.403564,460
868.520935,473
868.638306,475
868.755676,455
868.872986,469
868.990295,459
869.107727,444
869.225037,460
869.342346,476
869.459717,460
869.577026,449
869.694336,483
869.811707,471
869.929016,456
870.046326,463
870.163635,467
870.280945,449
870.398254,464
870.515564,465
870.632812,474
870.750183,456
870.867432,466
870.984741,465
871.102051,469
871.219299,465
871.336609,486
871.453918,472
871.571106,466
871.688416,476
871.805664,468
871.922852,477
872.040222,464
872.157471,477
872.274719,469
872.391968,454
872.509155,461
872.626465,465
872.743652,493
872.860962,450
872.978149,451
873.095337,491
873.212646,471
873.329834,470
873.44696,453
873.564209,468
873.681396,475
873.798645,458
873.915894,468
874.03302,481
874.150208,475
874.267456,466
874.384583,451
874.501831,453
874.618958,442
874.736145,460
874.853333,465
874.970459,467
875.087646,476
875.204834,474
875.32196,466
875.439148,461
875.556274,465
875.673401,465
875.790527,468
875.907715,473
876.024841,467
876.141968,481
876.259094,472
876.376282,471
876.493347,473
876.610474,468
876.7276,459
876.844727,466
876.961853,471
877.078918,490
877.195984,465
877.313171,459
877.430237,469
877.547302,464
877.664368,451
877.781433,482
877.898499,471
878.015625,486
878.13269,459
878.249695,474
878.366821,471
878.483887,487
878.600952,461
878.717957,471
878.834961,473
878.952087,465
879.069092,463
879.186157,474
879.303162,459
879.420227,470
879.537231,466
879.654236,458
879.77124,460
879.888306,481
880.005249,476
880.122314,466
880.239319,465
880.356323,464
880.473328,456
880.590271,489
880.707275,466
880.824341,464
880.941284,473
881.058228,469
881.175232,449
881.292236,459
881.40918,459
881.526123,475
881.643066,460
881.760071,479
881.877014,441
881.993958,460
882.11084,466
882.227783,476
882.344727,470
882.46167,469
882.578613,465
882.695618,481
882.812439,468
882.929382,475
883.046326,491
883.163208,473
883.280151,485
883.397034,478
883.513916,475
883.630798,467
883.747742,464
883.864563,467
883.981506,467
884.098389,464
884.21521,466
884.332153,472
884.448975,484
884.565796,448
884.682678,467
884.7995,481
884.916443,467
885.033264,471
885.150085,480
885.266968,475
885.383789,470
885.500671,487
885.617493,489
885.734314,475
885.851196,463
885.967896,453
886.084717,458
886.201599,489
886.318359,482
886.435181,485
886.552002,474
886.668762,488
886.785645,474
886.902344,458
887.019165,454
887.135925,488
887.252747,481
887.369446,475
887.486267,462
887.603027,489
887.719788,463
887.836548,484
887.953247,462
888.070068,482
888.186829,472
888.303528,459
888.420288,463
888.536987,490
888.653687,488
888.770447,484
888.887146,470
889.003967,484
889.120667,484
889.237305,484
889.354065,473
889.470703,465
889.587463,466
889.704163,472
889.820862,480
889.937561,485
890.054199,468
890.170837,493
890.287598,466
890.404236,481
890.520874,461
890.637634,473
890.754211,479
890.87085,471
890.987549,476
891.104187,489
891.220886,470
891.337463,469
891.454102,474
891.57074,474
891.687378,479
891.804077,458
891.920654,469
892.037231,477
892.15387,490
892.270447,474
892.387085,474
892.503723,491
892.6203,459
892.736877,476
892.853516,466
892.970032,490
893.08667,472
893.203186,497
893.319763,477
893.43634,472
893.552917,470
893.669556,476
893.786011,491
893.902588,475
894.019165,472
894.135681,479
894.252197,476
894.368835,500
894.485291,468
894.601868,474
894.718384,474
894.8349,488
894.951355,494
895.067932,495
895.184448,487
895.300964,478
895.417419,466
895.533936,477
895.650452,490
895.766907,479
895.883423,491
895.999878,500
896.116333,470
896.232849,476
896.349304,472
896.465759,488
896.582214,459
896.698669,482
896.815125,482
896.931641,496
897.048035,482
897.164551,486
897.280884,471
897.397339,470
897.513794,481
897.630249,485
897.746582,471
897.863098,495
897.979431,457
898.095886,475
898.212341,485
898.328674,473
898.445129,481
898.561462,476
898.677795,491
898.794312,500
898.910645,485
899.026978,486
899.143433,473
899.259766,482
899.37616,480
899.492493,482
899.608765,481
899.725159,487
899.841553,491
899.957947,500
900.07428,467
900.190552,476
900.306946,480
900.423157,489
900.53949,483
900.655884,485
900.772156,488
900.888489,496
901.004822,464
901.121033,484
901.237366,441
901.353699,483
901.46991,476
901.586304,498
901.702515,482
901.818787,490
901.93512,470
902.051331,481
902.167603,488
902.283875,497
902.400085,482
902.516418,491
902.632629,495
902.74884,483
902.865112,483
902.981384,481
903.097595,478
903.213867,486
903.330017,482
903.446289,491
903.5625,473
903.67865,484
903.794922,499
903.911072,471
904.027344,489
904.143494,481
904.259705,500
904.375916,485
904.492065,495
904.608215,493
904.724426,492
904.840576,485
904.956726,475
905.072876,502
905.189087,514
905.305176,488
905.421387,460
905.537537,470
905.653687,475
905.769775,482
905.885925,479
906.002014,488
906.118164,493
906.234314,477
906.350403,493
906.466492,473
906.582642,503
906.69873,490
906.814758,478
906.930908,496
907.046936,482
907.163086,478
907.279175,480
907.395264,474
907.511353,478
907.62738,482
907.743408,470
907.859497,489
907.975525,483
908.091553,475
908.207703,491
908.32373,489
908.439758,462
908.555786,484
908.671814,480
908.787842,488
908.90387,486
909.019775,483
909.135864,476
909.251892,498
909.367859,496
909.483826,485
909.599854,475
909.715881,497
909.831848,476
909.947815,480
910.063782,475
910.179749,505
910.295776,485
910.411743,488
910.527649,497
910.643616,488
910.759583,472
910.875488,497
910.991455,463
911.107361,482
911.223267,496
911.339294,482
911.4552,489
911.571106,488
911.687073,469
911.802979,486
911.918823,480
912.034729,486
912.150635,487
912.266602,507
912.382446,475
912.498352,475
912.614197,484
912.730103,503
912.846008,471
792.44574,624
792.56488,657
792.68396,694
792.80304,660
792.92218,628
793.041199,603
793.160339,601
793.279419,610
793.398499,620
793.517578,581
793.636658,605
793.755737,609
793.874817,612
793.993896,609
794.112976,630
794.232056,607
794.351074,586
794.470215,612
794.589233,610
794.708313,599
794.827393,592
794.946411,594
795.065552,601
795.18457,614
795.303589,582
795.422668,591
795.541687,572
795.660767,571
795.779846,582
795.898865,584
796.017883,588
796.136963,596
796.255981,578
796.375061,586
796.49408,595
796.613037,573
796.732117,587
796.851135,564
796.970154,574
797.089233,569
797.208191,567
797.327271,563
797.446228,557
797.565186,593
797.684265,567
797.803223,576
797.922241,566
798.04126,580
798.160278,576
798.279297,589
798.398315,555
798.517273,567
798.636292,569
798.75531,577
798.874268,586
798.993286,560
799.112244,584
799.231323,565
799.350281,562
799.469238,604
799.588257,576
799.707153,574
799.826111,566
799.945129,599
800.064087,557
800.183044,580
800.302063,566
800.421021,551
800.539978,573
800.658936,580
800.777893,570
800.896912,559
801.015747,573
801.134705,565
801.253723,576
801.37262,596
801.491638,557
801.610535,560
801.729492,577
801.84845,582
801.967407,577
802.086243,577
802.205261,571
802.324158,581
802.443115,571
802.562073,573
802.680969,568
802.799927,601
802.918762,577
803.037659,572
803.156677,574
803.275574,597
803.39447,586
803.513428,570
803.632263,599
803.751221,590
803.870117,578
803.989014,574
804.107971,564
804.226746,625
804.345642,589
804.4646,592
804.583496,616
804.702393,615
804.821228,580
804.940125,571
805.059021,577
805.177917,599
805.296814,600
805.415649,605
805.534546,599
805.653442,584
805.772278,585
805.891113,590
806.01001,607
806.128906,598
806.247742,581
806.366577,598
806.485413,587
806.604309,609
806.723145,590
806.84198,580
806.960876,590
807.079712,596
807.198486,598
807.317383,624
807.436218,578
807.554993,610
807.673889,602
807.792725,609
807.91156,612
808.030396,616
808.14917,599
808.268005,604
808.386841,601
808.505676,619
808.624451,598
808.743286,616
808.862122,622
808.980896,627
809.099731,624
809.218506,593
809.337341,622
809.456116,612
809.57489,605
809.693726,620
809.8125,595
809.931274,629
810.050049,608
810.168884,644
810.287659,618
810.406372,626
810.525269,619
810.643982,610
810.762756,611
810.881531,621
811.000305,615
811.11908,594
811.237854,607
811.356567,604
811.475403,629
811.594116,603
811.71283,606
811.831604,592
811.950378,623
812.069153,643
812.187927,614
812.30658,631
812.425415,621
812.544128,648
812.662781,632
812.781616,607
812.900269,620
813.019043,607
813.137756,607
813.256531,625
813.375244,628
813.493896,637
813.612671,611
813.731384,619
813.850037,612
813.96875,623
814.087524,617
814.206238,614
814.324951,615
814.443604,619
814.562256,621
814.68103,612
814.799683,611
814.918335,618
815.037109,621
815.155762,592
815.274475,617
815.393188,593
815.511841,595
815.630554,603
815.749146,603
815.867859,602
815.986572,613
816.105164,615
816.223877,592
816.342529,584
816.461182,591
816.579895,601
816.698486,595
816.817139,590
816.935791,606
817.054504,602
817.173096,605
817.291748,600
817.4104,583
817.529053,596
817.647644,596
817.766235,561
817.884949,573
818.00354,568
818.122192,561
818.240845,554
818.359436,556
818.478088,535
818.59668,547
818.715271,501
818.833923,505
818.952515,531
819.071106,506
819.189758,528
819.30835,501
819.426941,504
819.545532,518
819.664124,518
819.782715,475
819.901306,523
820.019897,522
820.138489,492
820.25708,502
820.375671,516
820.494202,487
820.612732,500
820.731384,502
820.849915,496
820.968506,487
821.087097,484
821.205627,488
821.324158,467
821.442749,488
821.561279,504
821.679871,471
821.798401,486
821.916931,475
822.035461,502
822.154053,470
822.272583,470
822.391174,468
822.509583,471
822.628174,479
822.746704,475
822.865234,480
822.983765,477
823.102295,466
823.220825,476
823.339294,475
823.457825,489
823.576355,476
823.694824,470
823.813354,481
823.931885,506
824.050354,481
824.168884,477
824.287354,476
824.405823,495
824.524353,480
824.642822,487
824.761353,484
824.879822,494
824.998291,511
825.116699,487
825.235291,502
825.353699,473
825.472168,462
825.590637,469
825.709106,486
825.827576,487
825.946045,483
826.064453,472
826.182983,470
826.301392,449
826.4198,466
826.53833,465
826.656738,471
826.775208,490
826.893677,476
827.012024,482
827.130493,477
827.248962,454
827.36731,469
827.485779,479
827.604248,474
827.722595,487
827.841064,465
827.959412,458
828.077942,472
828.196289,459
828.314636,452
828.433105,471
828.551514,476
828.669861,499
828.78833,456
828.906677,481
829.025085,472
829.143433,485
829.261841,441
829.38031,464
829.498657,457
829.617004,465
829.735413,473
829.85376,453
829.972107,453
830.090515,462
830.208862,452
830.327209,479
830.445557,460
830.563904,436
830.682312,472
830.800659,444
830.919006,463
831.037354,457
831.155701,450
831.274048,454
831.392395,460
831.51062,455
831.629028,461
831.747314,467
831.865662,459
831.984009,460
832.102356,487
832.220642,470
832.338928,464
832.457275,480
832.575623,449
832.693909,461
832.812134,474
832.930481,450
833.048828,473
833.167114,444
833.2854,472
833.403687,482
833.521973,464
833.640259,466
833.758545,460
833.876831,464
833.995056,456
834.113281,458
834.231628,476
834.349915,473
834.468201,457
834.586426,459
834.704651,473
834.822998,467
834.941162,445
835.059448,471
835.177673,472
835.295959,469
835.414246,461
835.53241,467
835.650635,467
835.768921,463
835.887146,464
836.005371,471
836.123596,443
836.241821,474
836.360046,482
836.478271,472
836.596497,462
836.714722,463
836.832886,469
836.95105,475
837.069336,483
837.1875,484
837.305725,473
837.423889,488
837.542053,471
837.660339,487
837.778503,471
837.896667,472
838.014832,458
838.132996,471
838.25116,489
838.369385,487
838.487488,458
838.605713,460
838.723877,484
838.84198,471
838.960205,492
839.078308,490
839.196472,483
839.314636,482
839.4328,477
839.550964,485
839.669067,470
839.787231,480
839.905396,464
840.023499,494
840.141602,454
840.259766,473
840.377869,466
840.495972,469
840.614136,474
840.732239,457
840.850342,479
840.968445,470
841.086548,457
841.204651,464
841.322754,468
841.440918,448
841.55896,466
841.677002,459
841.795166,474
841.913208,458
842.031311,462
842.149353,472
842.267456,449
842.385498,463
842.503601,465
842.621643,465
842.739746,480
842.857788,468
842.97583,460
843.093933,455
843.211975,444
843.330017,441
843.44812,465
843.566101,463
843.684204,454
843.802246,460
843.920227,447
844.038269,449
844.156311,455
844.274292,469
844.392395,459
844.510376,443
844.628357,459
844.74646,462
844.864441,438
844.982422,464
845.100403,464
845.218384,445
845.336426,448
845.454468,479
845.572449,456
845.69043,455
845.808411,470
845.926453,441
846.044373,461
846.162354,453
846.280396,453
846.398315,458
846.516296,458
846.634216,469
846.752197,451
846.870178,456
846.988098,460
847.106079,453
847.22406,435
847.34198,467
847.4599,461
847.577881,442
847.695801,465
847.813782,476
847.931641,460
848.049561,462
848.167603,456
848.285461,447
848.403381,448
848.521362,459
848.639221,441
848.75708,466
848.875,444
848.99292,465
849.110901,441
849.22876,454
849.34668,441
849.464539,462
849.582458,458
849.700317,448
849.818176,452
849.936096,451
850.053955,464
850.171875,455
850.289673,464
850.407593,463
850.525452,459
850.643311,458
850.761169,452
850.878967,445
850.996887,463
851.114746,463
851.232544,461
851.350403,434
851.468262,471
851.58606,461
851.703979,447
851.821777,458
851.939636,454
852.057434,464
852.175232,448
852.293091,447
852.410889,470
852.528687,446
852.646545,460
852.764343,446
852.88208,474
852.999939,448
853.117676,453
853.235535,439
853.353271,470
853.471069,452
853.588928,460
853.706604,481
853.824402,472
853.9422,464
854.059998,467
854.177734,458
854.295532,458
854.413269,461
854.531006,478
854.648804,464
854.766541,445
854.884277,450
855.002014,478
855.119751,466
855.237549,460
855.355225,476
855.473022,472
855.590698,469
855.708435,472
855.826172,455
855.943848,456
856.061646,467
856.179321,442
856.296997,469
856.414795,464
856.53241,465
856.650085,472
856.767822,484
856.885559,473
857.003174,465
857.120911,484
857.238586,487
857.356201,466
857.473938,477
857.591614,476
857.709351,455
857.826965,471
857.944641,473
858.062317,476
858.179993,455
858.297668,451
858.415283,475
858.532959,464
858.650574,464
858.768188,465
858.885803,475
859.003479,459
859.121094,476
859.23877,459
859.356384,462
859.473999,462
859.591675,450
859.709229,452
859.826843,484
859.944458,458
860.062012,456
860.179626,455
860.297302,464
860.414856,448
860.532471,457
860.650024,471
860.767639,456
860.885193,458
861.002808,479
861.120361,458
861.237976,466
861.35553,460
861.473022,459
861.590698,444
861.708191,464
861.825745,450
861.943298,470
862.060852,462
862.178406,467
862.295959,453
862.413513,467
862.531006,473
862.64856,463
862.766113,457
862.883667,463
863.00116,469
863.118713,454
863.236206,465
863.353699,464
863.471252,459
863.588745,451
863.706177,441
863.82373,463
863.941162,459
864.058716,468
864.176208,454
864.29364,472
864.411194,454
864.528687,460
864.646118,489
864.763611,458
864.881042,457
864.998535,468
865.116028,464
865.233459,437
865.350891,457
865.468384,466
865.585754,451
865.703308,467
865.820679,473
865.938171,457
866.055542,465
866.173035,465
866.290466,468
866.407837,456
866.52533,469
866.6427,458
866.760071,486
866.877563,468
866.994934,464
867.112305,478
867.229736,464
867.347107,468
867.464539,473
867.58197,452
867.699341,464
867.81665,473
867.934082,458
868.051453,473
868.168823,454
868.286194,446
868.403564,472
868.520935,467
868.638306,466
868.755676,475
868.872986,468
868.990295,465
869.107727,470
869.225037,451
869.342346,459
869.459717,458
869.577026,480
869.694336,479
869.811707,462
869.929016,460
870.046326,486
870.163635,449
870.280945,469
870.398254,448
870.515564,456
870.632812,470
870.750183,454
870.867432,456
870.984741,466
871.102051,457
871.219299,469
871.336609,464
871.453918,458
871.571106,460
871.688416,468
871.805664,477
871.922852,473
872.040222,456
872.157471,459
872.274719,456
872.391968,449
872.509155,464
872.626465,466
872.743652,459
872.860962,455
872.978149,482
873.095337,475
873.212646,467
873.329834,474
873.44696,449
873.564209,471
873.681396,473
873.798645,449
873.915894,450
874.03302,457
874.150208,454
874.267456,443
874.384583,461
874.501831,464
874.618958,453
874.736145,463
874.853333,477
874.970459,455
875.087646,459
875.204834,468
875.32196,477
875.439148,464
875.556274,469
875.673401,460
875.790527,482
875.907715,469
876.024841,461
876.141968,450
876.259094,468
876.376282,474
876.493347,460
876.610474,464
876.7276,470
876.844727,464
876.961853,452
877.078918,461
877.195984,455
877.313171,472
877.430237,490
877.547302,464
877.664368,468
877.781433,471
877.898499,469
878.015625,479
878.13269,471
878.249695,469
878.366821,478
878.483887,452
878.600952,480
878.717957,463
878.834961,468
878.952087,472
879.069092,461
879.186157,455
879.303162,482
879.420227,475
879.537231,477
879.654236,452
879.77124,484
879.888306,455
880.005249,449
880.122314,470
880.239319,466
880.356323,484
880.473328,457
880.590271,472
880.707275,481
880.824341,463
880.941284,465
881.058228,463
881.175232,475
881.292236,479
881.40918,477
881.526123,472
881.643066,478
881.760071,441
881.877014,467
881.993958,455
882.11084,446
882.227783,483
882.344727,482
882.46167,469
882.578613,471
882.695618,470
882.812439,479
882.929382,457
883.046326,471
883.163208,473
883.280151,488
883.397034,475
883.513916,477
883.630798,469
883.747742,482
883.864563,464
883.981506,473
884.098389,473
884.21521,464
884.332153,462
884.448975,475
884.565796,463
884.682678,466
884.7995,472
884.916443,479
885.033264,467
885.150085,482
885.266968,500
885.383789,488
885.500671,489
885.617493,478
885.734314,491
885.851196,488
885.967896,476
886.084717,501
886.201599,483
886.318359,488
886.435181,480
886.552002,466
886.668762,479
886.785645,475
886.902344,455
887.019165,497
887.135925,472
887.252747,474
887.369446,472
887.486267,482
887.603027,470
887.719788,476
887.836548,473
887.953247,503
888.070068,476
888.186829,482
888.303528,466
888.420288,470
888.536987,468
888.653687,476
888.770447,476
888.887146,485
889.003967,471
889.120667,488
889.237305,477
889.354065,475
889.470703,473
889.587463,454
889.704163,462
889.820862,467
889.937561,468
890.054199,468
890.170837,465
890.287598,471
890.404236,472
890.520874,471
890.637634,485
890.754211,501
890.87085,480
890.987549,466
891.104187,455
891.220886,472
891.337463,465
891.454102,474
891.57074,473
891.687378,475
891.804077,479
891.920654,467
892.037231,489
892.15387,480
892.270447,454
892.387085,432
892.503723,497
892.6203,486
892.736877,447
892.853516,461
892.970032,466
893.08667,490
893.203186,479
893.319763,491
893.43634,474
893.552917,477
893.669556,458
893.786011,460
893.902588,464
894.019165,480
894.135681,471
894.252197,466
894.368835,480
894.485291,490
894.601868,478
894.718384,493
894.8349,466
894.951355,495
895.067932,482
895.184448,463
895.300964,469
895.417419,485
895.533936,472
895.650452,473
895.766907,482
895.883423,473
895.999878,479
896.116333,495
896.232849,490
896.349304,486
896.465759,483
896.582214,493
896.698669,481
896.815125,479
896.931641,482
897.048035,490
897.164551,470
897.280884,499
897.397339,466
897.513794,471
897.630249,484
897.746582,472
897.863098,484
897.979431,492
898.095886,490
898.212341,506
898.328674,492
898.445129,496
898.561462,469
898.677795,476
898.794312,476
898.910645,487
899.026978,476
899.143433,467
899.259766,466
899.37616,467
899.492493,499
899.608765,508
899.725159,472
899.841553,482
899.957947,485
900.07428,486
900.190552,467
900.306946,485
900.423157,474
900.53949,509
900.655884,465
900.772156,487
900.888489,487
901.004822,486
901.121033,469
901.237366,490
901.353699,462
901.46991,486
901.586304,487
901.702515,467
901.818787,490
901.93512,481
902.051331,469
902.167603,494
902.283875,471
902.400085,490
902.516418,493
902.632629,490
902.74884,471
902.865112,497
902.981384,499
903.097595,474
903.213867,466
903.330017,492
903.446289,465
903.5625,488
903.67865,498
903.794922,484
903.911072,492
904.027344,490
904.143494,492
904.259705,481
904.375916,493
904.492065,475
904.608215,479
904.724426,501
904.840576,479
904.956726,488
905.072876,484
905.189087,488
905.305176,467
905.421387,476
905.537537,466
905.653687,465
905.769775,488
905.885925,504
906.002014,468
906.118164,499
906.234314,477
906.350403,494
906.466492,502
906.582642,485
906.69873,482
906.814758,503
906.930908,475
907.046936,513
907.163086,498
907.279175,491
907.395264,470
907.511353,491
907.62738,500
907.743408,500
907.859497,492
907.975525,503
908.091553,466
908.207703,479
908.32373,481
908.439758,473
908.555786,496
908.671814,495
908.787842,482
908.90387,480
909.019775,487
909.135864,475
909.251892,493
909.367859,491
909.483826,476
909.599854,477
909.715881,497
909.831848,487
909.947815,484
910.063782,472
910.179749,465
910.295776,492
910.411743,498
910.527649,513
910.643616,493
910.759583,493
910.875488,480
910.991455,490
911.107361,471
911.223267,487
911.339294,499
911.4552,489
911.571106,490
911.687073,481
911.802979,501
911.918823,501
912.034729,482
912.150635,489
912.266602,493
912.382446,487
912.498352,466
912.614197,495
912.730103,474
912.846008,478
