792.44574,919
792.56488,903
792.68396,909
792.80304,912
792.92218,868
793.041199,787
793.160339,846
793.279419,841
793.398499,797
793.517578,761
793.636658,765
793.755737,776
793.874817,796
793.993896,765
794.112976,739
794.232056,729
794.351074,727
794.470215,750
794.589233,694
794.708313,703
794.827393,700
794.946411,706
795.065552,689
795.18457,705
795.303589,726
795.422668,685
795.541687,671
795.660767,656
795.779846,679
795.898865,647
796.017883,651
796.136963,636
796.255981,669
796.375061,633
796.49408,658
796.613037,640
796.732117,648
796.851135,635
796.970154,636
797.089233,619
797.208191,637
797.327271,618
797.446228,621
797.565186,632
797.684265,598
797.803223,617
797.922241,618
798.04126,608
798.160278,617
798.279297,586
798.398315,626
798.517273,599
798.636292,609
798.75531,609
798.874268,600
798.993286,597
799.112244,602
799.231323,591
799.350281,589
799.469238,590
799.588257,602
799.707153,603
799.826111,597
799.945129,570
800.064087,583
800.183044,583
800.302063,585
800.421021,592
800.539978,559
800.658936,589
800.777893,604
800.896912,582
801.015747,586
801.134705,561
801.253723,581
801.37262,562
801.491638,586
801.610535,575
801.729492,566
801.84845,579
801.967407,578
802.086243,554
802.205261,556
802.324158,576
802.443115,579
802.562073,581
802.680969,572
802.799927,547
802.918762,586
803.037659,567
803.156677,573
803.275574,556
803.39447,567
803.513428,547
803.632263,580
803.751221,579
803.870117,581
803.989014,577
804.107971,569
804.226746,571
804.345642,548
804.4646,555
804.583496,565
804.702393,574
804.821228,521
804.940125,559
805.059021,550
805.177917,592
805.296814,559
805.415649,571
805.534546,567
805.653442,562
805.772278,536
805.891113,557
806.01001,570
806.128906,566
806.247742,572
806.366577,526
806.485413,563
806.604309,563
806.723145,562
806.84198,568
806.960876,541
807.079712,548
807.198486,562
807.317383,569
807.436218,542
807.554993,559
807.673889,568
807.792725,545
807.91156,544
808.030396,553
808.14917,548
808.268005,549
808.386841,551
808.505676,545
808.624451,550
808.743286,557
808.862122,537
808.980896,560
809.099731,553
809.218506,566
809.337341,548
809.456116,564
809.57489,554
809.693726,557
809.8125,551
809.931274,550
810.050049,568
810.168884,548
810.287659,563
810.406372,565
810.525269,561
810.643982,553
810.762756,555
810.881531,544
811.000305,552
811.11908,573
811.237854,560
811.356567,551
811.475403,559
811.594116,551
811.71283,558
811.831604,566
811.950378,535
812.069153,545
812.187927,549
812.30658,566
812.425415,576
812.544128,586
812.662781,569
812.781616,540
812.900269,574
813.019043,561
813.137756,556
813.256531,547
813.375244,545
813.493896,544
813.612671,570
813.731384,564
813.850037,531
813.96875,553
814.087524,551
814.206238,554
814.324951,533
814.443604,552
814.562256,538
814.68103,569
814.799683,546
814.918335,547
815.037109,539
815.155762,553
815.274475,540
815.393188,543
815.511841,548
815.630554,542
815.749146,581
815.867859,550
815.986572,521
816.105164,529
816.223877,544
816.342529,530
816.461182,554
816.579895,543
816.698486,550
816.817139,555
816.935791,541
817.054504,547
817.173096,554
817.291748,544
817.4104,519
817.529053,539
817.647644,533
817.766235,527
817.884949,545
818.00354,500
818.122192,520
818.240845,517
818.359436,507
818.478088,518
818.59668,508
818.715271,506
818.833923,498
818.952515,533
819.071106,527
819.189758,520
819.30835,489
819.426941,512
819.545532,523
819.664124,495
819.782715,492
819.901306,522
820.019897,498
820.138489,518
820.25708,489
820.375671,495
820.494202,509
820.612732,488
820.731384,493
820.849915,501
820.968506,513
821.087097,506
821.205627,476
821.324158,481
821.442749,497
821.561279,472
821.679871,478
821.798401,487
821.916931,496
822.035461,479
822.154053,487
822.272583,473
822.391174,495
822.509583,473
822.628174,480
822.746704,506
822.865234,465
822.983765,490
823.102295,479
823.220825,481
823.339294,490
823.457825,483
823.576355,472
823.694824,487
823.813354,470
823.931885,501
824.050354,474
824.168884,496
824.287354,475
824.405823,504
824.524353,490
824.642822,489
824.761353,484
824.879822,493
824.998291,484
825.116699,469
825.235291,479
825.353699,476
825.472168,473
825.590637,481
825.709106,467
825.827576,489
825.946045,487
826.064453,463
826.182983,494
826.301392,462
826.4198,496
826.53833,486
826.656738,471
826.775208,484
826.893677,493
827.012024,467
827.130493,462
827.248962,486
827.36731,479
827.485779,472
827.604248,474
827.722595,498
827.841064,440
827.959412,468
828.077942,466
828.196289,477
828.314636,460
828.433105,480
828.551514,467
828.669861,457
828.78833,465
828.906677,470
829.025085,481
829.143433,481
829.261841,453
829.38031,488
829.498657,456
829.617004,467
829.735413,460
829.85376,469
829.972107,475
830.090515,480
830.208862,456
830.327209,493
830.445557,462
830.563904,467
830.682312,460
830.800659,474
830.919006,484
831.037354,489
831.155701,483
831.274048,482
831.392395,474
831.51062,483
831.629028,484
831.747314,477
831.865662,469
831.984009,463
832.102356,496
832.220642,449
832.338928,493
832.457275,482
832.575623,478
832.693909,480
832.812134,469
832.930481,480
833.048828,465
833.167114,478
833.2854,475
833.403687,478
833.521973,466
833.640259,472
833.758545,478
833.876831,479
833.995056,458
834.113281,467
834.231628,483
834.349915,476
834.468201,466
834.586426,474
834.704651,454
834.822998,474
834.941162,470
835.059448,490
835.177673,492
835.295959,469
835.414246,468
835.53241,467
835.650635,485
835.768921,472
835.887146,485
836.005371,473
836.123596,476
836.241821,479
836.360046,470
836.478271,473
836.596497,483
836.714722,470
836.832886,469
836.95105,480
837.069336,469
837.1875,487
837.305725,479
837.423889,474
837.542053,451
837.660339,472
837.778503,472
837.896667,480
838.014832,469
838.132996,477
838.25116,500
838.369385,466
838.487488,484
838.605713,468
838.723877,486
838.84198,485
838.960205,463
839.078308,482
839.196472,474
839.314636,477
839.4328,473
839.550964,477
839.669067,484
839.787231,478
839.905396,475
840.023499,486
840.141602,504
840.259766,492
840.377869,479
840.495972,501
840.614136,481
840.732239,494
840.850342,486
840.968445,488
841.086548,492
841.204651,496
841.322754,477
841.440918,500
841.55896,486
841.677002,506
841.795166,489
841.913208,496
842.031311,479
842.149353,494
842.267456,489
842.385498,496
842.503601,472
842.621643,502
842.739746,492
842.857788,487
842.97583,484
843.093933,488
843.211975,465
843.330017,505
843.44812,491
843.566101,509
843.684204,523
843.802246,504
843.920227,495
844.038269,498
844.156311,498
844.274292,484
844.392395,476
844.510376,485
844.628357,486
844.74646,492
844.864441,491
844.982422,471
845.100403,496
845.218384,485
845.336426,484
845.454468,471
845.572449,477
845.69043,501
845.808411,493
845.926453,482
846.044373,517
846.162354,486
846.280396,462
846.398315,498
846.516296,477
846.634216,505
846.752197,478
846.870178,482
846.988098,486
847.106079,485
847.22406,489
847.34198,478
847.4599,485
847.577881,507
847.695801,494
847.813782,482
847.931641,477
848.049561,490
848.167603,481
848.285461,489
848.403381,481
848.521362,498
848.639221,492
848.75708,490
848.875,494
848.99292,500
849.110901,486
849.22876,488
849.34668,513
849.464539,503
849.582458,498
849.700317,501
849.818176,480
849.936096,510
850.053955,492
850.171875,509
850.289673,491
850.407593,499
850.525452,470
850.643311,477
850.761169,515
850.878967,491
850.996887,507
851.114746,500
851.232544,490
851.350403,502
851.468262,490
851.58606,481
851.703979,477
851.821777,502
851.939636,483
852.057434,497
852.175232,470
852.293091,514
852.410889,482
852.528687,518
852.646545,513
852.764343,498
852.88208,502
852.999939,507
853.117676,503
853.235535,502
853.353271,512
853.471069,528
853.588928,499
853.706604,523
853.824402,493
853.9422,509
854.059998,480
854.177734,488
854.295532,501
854.413269,490
854.531006,501
854.648804,495
854.766541,503
854.884277,508
855.002014,501
855.119751,488
855.237549,481
855.355225,483
855.473022,492
855.590698,492
855.708435,509
855.826172,502
855.943848,507
856.061646,486
856.179321,503
856.296997,499
856.414795,503
856.53241,515
856.650085,506
856.767822,486
856.885559,514
857.003174,492
857.120911,519
857.238586,521
857.356201,502
857.473938,505
857.591614,503
857.709351,507
857.826965,517
857.944641,525
858.062317,488
858.179993,496
858.297668,486
858.415283,515
858.532959,498
858.650574,506
858.768188,507
858.885803,513
859.003479,501
859.121094,499
859.23877,509
859.356384,520
859.473999,496
859.591675,482
859.709229,507
859.826843,488
859.944458,476
860.062012,481
860.179626,498
860.297302,478
860.414856,490
860.532471,482
860.650024,469
860.767639,481
860.885193,496
861.002808,489
861.120361,493
861.237976,469
861.35553,516
861.473022,476
861.590698,499
861.708191,497
861.825745,500
861.943298,472
862.060852,486
862.178406,471
862.295959,459
862.413513,490
862.531006,458
862.64856,490
862.766113,489
862.883667,481
863.00116,478
863.118713,490
863.236206,494
863.353699,485
863.471252,477
863.588745,478
863.706177,497
863.82373,483
863.941162,478
864.058716,475
864.176208,483
864.29364,468
864.411194,485
864.528687,491
864.646118,459
864.763611,482
864.881042,452
864.998535,483
865.116028,495
865.233459,460
865.350891,482
865.468384,495
865.585754,488
865.703308,488
865.820679,460
865.938171,470
866.055542,467
866.173035,486
866.290466,480
866.407837,466
866.52533,481
866.6427,487
866.760071,493
866.877563,509
866.994934,481
867.112305,508
867.229736,469
867.347107,499
867.464539,479
867.58197,478
867.699341,473
867.81665,479
867.934082,481
868.051453,476
868.168823,467
868.286194,503
868.403564,482
868.520935,492
868.638306,492
868.755676,477
868.872986,489
868.990295,481
869.107727,506
869.225037,491
869.342346,497
869.459717,473
869.577026,487
869.694336,489
869.811707,486
869.929016,490
870.046326,509
870.163635,484
870.280945,482
870.398254,494
870.515564,501
870.632812,525
870.750183,505
870.867432,488
870.984741,491
871.102051,516
871.219299,496
871.336609,492
871.453918,536
871.571106,510
871.688416,514
871.805664,515
871.922852,512
872.040222,509
872.157471,509
872.274719,521
872.391968,507
872.509155,481
872.626465,514
872.743652,498
872.860962,497
872.978149,520
873.095337,486
873.212646,525
873.329834,481
873.44696,511
873.564209,495
873.681396,514
873.798645,524
873.915894,511
874.03302,505
874.150208,531
874.267456,502
874.384583,512
874.501831,521
874.618958,492
874.736145,516
874.853333,505
874.970459,529
875.087646,515
875.204834,510
875.32196,518
875.439148,487
875.556274,511
875.673401,498
875.790527,505
875.907715,490
876.024841,494
876.141968,501
876.259094,508
876.376282,497
876.493347,497
876.610474,482
876.7276,468
876.844727,463
876.961853,493
877.078918,492
877.195984,496
877.313171,501
877.430237,486
877.547302,482
877.664368,498
877.781433,489
877.898499,485
878.015625,494
878.13269,495
878.249695,489
878.366821,489
878.483887,467
878.600952,488
878.717957,481
878.834961,498
878.952087,496
879.069092,488
879.186157,485
879.303162,478
879.420227,494
879.537231,488
879.654236,457
879.77124,490
879.888306,467
880.005249,496
880.122314,485
880.239319,488
880.356323,459
880.473328,472
880.590271,469
880.707275,486
880.824341,494
880.941284,480
881.058228,469
881.175232,475
881.292236,477
881.40918,461
881.526123,476
881.643066,471
881.760071,468
881.877014,477
881.993958,483
882.11084,474
882.227783,475
882.344727,490
882.46167,483
882.578613,459
882.695618,467
882.812439,493
882.929382,472
883.046326,477
883.163208,478
883.280151,480
883.397034,474
883.513916,495
883.630798,491
883.747742,505
883.864563,471
883.981506,460
884.098389,499
884.21521,510
884.332153,494
884.448975,518
884.565796,497
884.682678,515
884.7995,521
884.916443,523
885.033264,541
885.150085,547
885.266968,559
885.383789,559
885.500671,565
885.617493,572
885.734314,547
885.851196,561
885.967896,569
886.084717,542
886.201599,559
886.318359,532
886.435181,549
886.552002,549
886.668762,535
886.785645,518
886.902344,528
887.019165,543
887.135925,505
887.252747,530
887.369446,518
887.486267,518
887.603027,520
887.719788,536
887.836548,488
887.953247,506
888.070068,481
888.186829,502
888.303528,513
888.420288,499
888.536987,455
888.653687,472
888.770447,489
888.887146,488
889.003967,476
889.120667,491
889.237305,477
889.354065,481
889.470703,454
889.587463,464
889.704163,482
889.820862,459
889.937561,469
890.054199,476
890.170837,482
890.287598,466
890.404236,448
890.520874,477
890.637634,484
890.754211,470
890.87085,462
890.987549,485
891.104187,483
891.220886,469
891.337463,473
891.454102,475
891.57074,479
891.687378,453
891.804077,484
891.920654,491
892.037231,458
892.15387,489
892.270447,477
892.387085,456
892.503723,454
892.6203,475
892.736877,457
892.853516,487
892.970032,480
893.08667,481
893.203186,474
893.319763,464
893.43634,462
893.552917,494
893.669556,468
893.786011,476
893.902588,462
894.019165,473
894.135681,476
894.252197,471
894.368835,474
894.485291,479
894.601868,469
894.718384,494
894.8349,477
894.951355,486
895.067932,475
895.184448,469
895.300964,476
895.417419,469
895.533936,476
895.650452,496
895.766907,474
895.883423,477
895.999878,474
896.116333,471
896.232849,469
896.349304,455
896.465759,469
896.582214,462
896.698669,471
896.815125,465
896.931641,471
897.048035,482
897.164551,464
897.280884,474
897.397339,476
897.513794,477
897.630249,482
897.746582,464
897.863098,472
897.979431,479
898.095886,473
898.212341,468
898.328674,484
898.445129,475
898.561462,461
898.677795,468
898.794312,453
898.910645,479
899.026978,484
899.143433,491
899.259766,497
899.37616,469
899.492493,476
899.608765,464
899.725159,469
899.841553,489
899.957947,474
900.07428,470
900.190552,471
900.306946,484
900.423157,499
900.53949,491
900.655884,465
900.772156,480
900.888489,511
901.004822,488
901.121033,469
901.237366,480
901.353699,476
901.46991,484
901.586304,475
901.702515,475
901.818787,506
901.93512,501
902.051331,507
902.167603,511
902.283875,468
902.400085,509
902.516418,495
902.632629,521
902.74884,515
902.865112,535
902.981384,525
903.097595,524
903.213867,508
903.330017,509
903.446289,533
903.5625,520
903.67865,493
903.794922,495
903.911072,497
904.027344,496
904.143494,511
904.259705,491
904.375916,485
904.492065,488
904.608215,504
904.724426,472
904.840576,475
904.956726,503
905.072876,501
905.189087,481
905.305176,489
905.421387,493
905.537537,487
905.653687,472
905.769775,467
905.885925,484
906.002014,467
906.118164,451
906.234314,480
906.350403,475
906.466492,484
906.582642,461
906.69873,491
906.814758,470
906.930908,456
907.046936,479
907.163086,474
907.279175,479
907.395264,480
907.511353,454
907.62738,465
907.743408,478
907.859497,477
907.975525,460
908.091553,462
908.207703,483
908.32373,461
908.439758,487
908.555786,485
908.671814,461
908.787842,494
908.90387,469
909.019775,476
909.135864,493
909.251892,465
909.367859,460
909.483826,459
909.599854,482
909.715881,468
909.831848,463
909.947815,495
910.063782,473
910.179749,489
910.295776,490
910.411743,459
910.527649,476
910.643616,479
910.759583,475
910.875488,493
910.991455,468
911.107361,461
911.223267,466
911.339294,460
911.4552,481
911.571106,468
911.687073,490
911.802979,473
911.918823,481
912.034729,455
912.150635,464
912.266602,469
912.382446,490
912.498352,467
912.614197,474
912.730103,470
912.846008,461
792.44574,888
792.56488,895
792.68396,925
792.80304,906
792.92218,828
793.041199,845
793.160339,814
793.279419,828
793.398499,819
793.517578,781
793.636658,795
793.755737,764
793.874817,773
793.993896,748
794.112976,754
794.232056,725
794.351074,744
794.470215,713
794.589233,742
794.708313,682
794.827393,724
794.946411,699
795.065552,715
795.18457,693
795.303589,677
795.422668,666
795.541687,666
795.660767,691
795.779846,689
795.898865,681
796.017883,656
796.136963,654
796.255981,640
796.375061,659
796.49408,645
796.613037,631
796.732117,641
796.851135,655
796.970154,630
797.089233,653
797.208191,617
797.327271,631
797.446228,609
797.565186,623
797.684265,635
797.803223,651
797.922241,604
798.04126,592
798.160278,611
798.279297,614
798.398315,637
798.517273,603
798.636292,603
798.75531,590
798.874268,602
798.993286,636
799.112244,586
799.231323,562
799.350281,617
799.469238,583
799.588257,619
799.707153,588
799.826111,612
799.945129,603
800.064087,573
800.183044,607
800.302063,571
800.421021,613
800.539978,581
800.658936,590
800.777893,570
800.896912,567
801.015747,581
801.134705,577
801.253723,571
801.37262,586
801.491638,570
801.610535,577
801.729492,569
801.84845,594
801.967407,578
802.086243,580
802.205261,568
802.324158,605
802.443115,582
802.562073,589
802.680969,570
802.799927,584
802.918762,591
803.037659,578
803.156677,576
803.275574,566
803.39447,563
803.513428,554
803.632263,563
803.751221,574
803.870117,554
803.989014,568
804.107971,572
804.226746,552
804.345642,565
804.4646,572
804.583496,557
804.702393,542
804.821228,580
804.940125,544
805.059021,552
805.177917,572
805.296814,566
805.415649,553
805.534546,553
805.653442,543
805.772278,542
805.891113,556
806.01001,587
806.128906,554
806.247742,550
806.366577,569
806.485413,567
806.604309,548
806.723145,563
806.84198,553
806.960876,544
807.079712,575
807.198486,572
807.317383,559
807.436218,554
807.554993,555
807.673889,563
807.792725,578
807.91156,566
808.030396,550
808.14917,560
808.268005,541
808.386841,553
808.505676,562
808.624451,544
808.743286,552
808.862122,541
808.980896,563
809.099731,563
809.218506,543
809.337341,551
809.456116,559
809.57489,567
809.693726,573
809.8125,533
809.931274,554
810.050049,537
810.168884,553
810.287659,553
810.406372,574
810.525269,552
810.643982,555
810.762756,562
810.881531,562
811.000305,574
811.11908,574
811.237854,555
811.356567,551
811.475403,579
811.594116,547
811.71283,541
811.831604,550
811.950378,551
812.069153,575
812.187927,543
812.30658,566
812.425415,551
812.544128,559
812.662781,554
812.781616,549
812.900269,553
813.019043,559
813.137756,548
813.256531,582
813.375244,550
813.493896,545
813.612671,555
813.731384,574
813.850037,541
813.96875,553
814.087524,548
814.206238,548
814.324951,549
814.443604,549
814.562256,554
814.68103,563
814.799683,545
814.918335,536
815.037109,560
815.155762,545
815.274475,558
815.393188,549
815.511841,553
815.630554,568
815.749146,537
815.867859,567
815.986572,518
816.105164,538
816.223877,540
816.342529,515
816.461182,551
816.579895,555
816.698486,558
816.817139,573
816.935791,532
817.054504,556
817.173096,547
817.291748,518
817.4104,547
817.529053,536
817.647644,525
817.766235,534
817.884949,516
818.00354,547
818.122192,530
818.240845,516
818.359436,505
818.478088,538
818.59668,509
818.715271,507
818.833923,504
818.952515,520
819.071106,523
819.189758,502
819.30835,506
819.426941,491
819.545532,516
819.664124,502
819.782715,501
819.901306,483
820.019897,504
820.138489,494
820.25708,518
820.375671,504
820.494202,508
820.612732,500
820.731384,508
820.849915,499
820.968506,515
821.087097,494
821.205627,516
821.324158,505
821.442749,499
821.561279,465
821.679871,491
821.798401,459
821.916931,501
822.035461,491
822.154053,488
822.272583,504
822.391174,477
822.509583,492
822.628174,494
822.746704,486
822.865234,475
822.983765,475
823.102295,492
823.220825,482
823.339294,477
823.457825,478
823.576355,480
823.694824,475
823.813354,497
823.931885,491
824.050354,506
824.168884,473
824.287354,485
824.405823,487
824.524353,502
824.642822,497
824.761353,483
824.879822,490
824.998291,493
825.116699,492
825.235291,491
825.353699,488
825.472168,496
825.590637,497
825.709106,501
825.827576,487
825.946045,498
826.064453,498
826.182983,479
826.301392,492
826.4198,467
826.53833,465
826.656738,464
826.775208,465
826.893677,487
827.012024,480
827.130493,480
827.248962,480
827.36731,484
827.485779,477
827.604248,480
827.722595,505
827.841064,478
827.959412,467
828.077942,463
828.196289,474
828.314636,485
828.433105,468
828.551514,479
828.669861,462
828.78833,467
828.906677,471
829.025085,455
829.143433,468
829.261841,483
829.38031,469
829.498657,478
829.617004,479
829.735413,476
829.85376,464
829.972107,456
830.090515,463
830.208862,467
830.327209,456
830.445557,468
830.563904,464
830.682312,471
830.800659,467
830.919006,473
831.037354,490
831.155701,470
831.274048,478
831.392395,498
831.51062,463
831.629028,465
831.747314,484
831.865662,472
831.984009,469
832.102356,498
832.220642,495
832.338928,479
832.457275,482
832.575623,462
832.693909,498
832.812134,489
832.930481,467
833.048828,460
833.167114,460
833.2854,471
833.403687,465
833.521973,469
833.640259,484
833.758545,463
833.876831,485
833.995056,477
834.113281,461
834.231628,461
834.349915,480
834.468201,484
834.586426,463
834.704651,471
834.822998,489
834.941162,485
835.059448,491
835.177673,482
835.295959,466
835.414246,476
835.53241,472
835.650635,481
835.768921,465
835.887146,481
836.005371,473
836.123596,461
836.241821,472
836.360046,474
836.478271,481
836.596497,471
836.714722,466
836.832886,482
836.95105,500
837.069336,468
837.1875,475
837.305725,465
837.423889,478
837.542053,477
837.660339,475
837.778503,495
837.896667,479
838.014832,479
838.132996,468
838.25116,485
838.369385,477
838.487488,461
838.605713,490
838.723877,480
838.84198,474
838.960205,500
839.078308,487
839.196472,497
839.314636,468
839.4328,463
839.550964,482
839.669067,466
839.787231,486
839.905396,485
840.023499,486
840.141602,481
840.259766,494
840.377869,475
840.495972,493
840.614136,454
840.732239,511
840.850342,506
840.968445,526
841.086548,499
841.204651,507
841.322754,495
841.440918,495
841.55896,514
841.677002,505
841.795166,496
841.913208,495
842.031311,506
842.149353,502
842.267456,476
842.385498,509
842.503601,479
842.621643,470
842.739746,509
842.857788,491
842.97583,522
843.093933,483
843.211975,516
843.330017,485
843.44812,492
843.566101,517
843.684204,496
843.802246,479
843.920227,513
844.038269,491
844.156311,501
844.274292,507
844.392395,504
844.510376,488
844.628357,504
844.74646,517
844.864441,486
844.982422,504
845.100403,468
845.218384,495
845.336426,478
845.454468,491
845.572449,486
845.69043,488
845.808411,482
845.926453,488
846.044373,482
846.162354,501
846.280396,520
846.398315,488
846.516296,496
846.634216,496
846.752197,490
846.870178,491
846.988098,471
847.106079,504
847.22406,509
847.34198,518
847.4599,485
847.577881,471
847.695801,493
847.813782,516
847.931641,506
848.049561,495
848.167603,472
848.285461,515
848.403381,508
848.521362,500
848.639221,498
848.75708,492
848.875,486
848.99292,506
849.110901,484
849.22876,489
849.34668,490
849.464539,513
849.582458,512
849.700317,501
849.818176,507
849.936096,511
850.053955,499
850.171875,482
850.289673,483
850.407593,506
850.525452,490
850.643311,500
850.761169,505
850.878967,508
850.996887,487
851.114746,479
851.232544,516
851.350403,479
851.468262,497
851.58606,499
851.703979,493
851.821777,498
851.939636,484
852.057434,488
852.175232,483
852.293091,506
852.410889,502
852.528687,493
852.646545,525
852.764343,513
852.88208,509
852.999939,509
853.117676,509
853.235535,491
853.353271,504
853.471069,497
853.588928,501
853.706604,497
853.824402,475
853.9422,506
854.059998,478
854.177734,508
854.295532,510
854.413269,500
854.531006,498
854.648804,510
854.766541,480
854.884277,486
855.002014,497
855.119751,484
855.237549,488
855.355225,501
855.473022,501
855.590698,495
855.708435,498
855.826172,496
855.943848,474
856.061646,489
856.179321,478
856.296997,498
856.414795,485
856.53241,503
856.650085,501
856.767822,500
856.885559,522
857.003174,502
857.120911,507
857.238586,502
857.356201,510
857.473938,506
857.591614,496
857.709351,499
857.826965,513
857.944641,509
858.062317,500
858.179993,509
858.297668,505
858.415283,531
858.532959,514
858.650574,494
858.768188,502
858.885803,504
859.003479,509
859.121094,498
859.23877,515
859.356384,488
859.473999,503
859.591675,497
859.709229,484
859.826843,488
859.944458,469
860.062012,489
860.179626,487
860.297302,481
860.414856,484
860.532471,483
860.650024,505
860.767639,499
860.885193,477
861.002808,480
861.120361,480
861.237976,494
861.35553,499
861.473022,512
861.590698,493
861.708191,487
861.825745,490
861.943298,488
862.060852,484
862.178406,488
862.295959,480
862.413513,454
862.531006,467
862.64856,497
862.766113,473
862.883667,475
863.00116,485
863.118713,483
863.236206,491
863.353699,478
863.471252,485
863.588745,483
863.706177,480
863.82373,486
863.941162,495
864.058716,471
864.176208,479
864.29364,496
864.411194,473
864.528687,482
864.646118,496
864.763611,482
864.881042,491
864.998535,490
865.116028,480
865.233459,488
865.350891,496
865.468384,469
865.585754,480
865.703308,470
865.820679,472
865.938171,492
866.055542,496
866.173035,483
866.290466,479
866.407837,515
866.52533,483
866.6427,487
866.760071,479
866.877563,479
866.994934,485
867.112305,498
867.229736,484
867.347107,482
867.464539,461
867.58197,490
867.699341,487
867.81665,465
867.934082,469
868.051453,495
868.168823,465
868.286194,478
868.403564,492
868.520935,502
868.638306,490
868.755676,499
868.872986,474
868.990295,504
869.107727,459
869.225037,492
869.342346,482
869.459717,494
869.577026,496
869.694336,496
869.811707,506
869.929016,495
870.046326,479
870.163635,488
870.280945,505
870.398254,511
870.515564,492
870.632812,512
870.750183,504
870.867432,512
870.984741,520
871.102051,503
871.219299,479
871.336609,508
871.453918,514
871.571106,516
871.688416,530
871.805664,498
871.922852,512
872.040222,502
872.157471,519
872.274719,533
872.391968,524
872.509155,505
872.626465,495
872.743652,524
872.860962,500
872.978149,505
873.095337,519
873.212646,507
873.329834,505
873.44696,507
873.564209,509
873.681396,511
873.798645,502
873.915894,519
874.03302,499
874.150208,522
874.267456,510
874.384583,511
874.501831,512
874.618958,526
874.736145,502
874.853333,511
874.970459,535
875.087646,529
875.204834,523
875.32196,516
875.439148,513
875.556274,520
875.673401,521
875.790527,529
875.907715,503
876.024841,483
876.141968,491
876.259094,503
876.376282,503
876.493347,496
876.610474,502
876.7276,498
876.844727,505
876.961853,501
877.078918,509
877.195984,499
877.313171,495
877.430237,497
877.547302,496
877.664368,508
877.781433,480
877.898499,495
878.015625,485
878.13269,510
878.249695,478
878.366821,474
878.483887,492
878.600952,502
878.717957,474
878.834961,483
878.952087,483
879.069092,504
879.186157,477
879.303162,496
879.420227,474
879.537231,476
879.654236,485
879.77124,492
879.888306,483
880.005249,484
880.122314,476
880.239319,454
880.356323,491
880.473328,478
880.590271,475
880.707275,474
880.824341,478
880.941284,496
881.058228,471
881.175232,471
881.292236,477
881.40918,487
881.526123,482
881.643066,487
881.760071,475
881.877014,487
881.993958,473
882.11084,483
882.227783,475
882.344727,459
882.46167,479
882.578613,482
882.695618,462
882.812439,485
882.929382,493
883.046326,485
883.163208,472
883.280151,473
883.397034,461
883.513916,486
883.630798,487
883.747742,472
883.864563,498
883.981506,489
884.098389,502
884.21521,497
884.332153,500
884.448975,493
884.565796,526
884.682678,511
884.7995,533
884.916443,526
885.033264,554
885.150085,540
885.266968,562
885.383789,550
885.500671,547
885.617493,555
885.734314,546
885.851196,548
885.967896,566
886.084717,560
886.201599,554
886.318359,558
886.435181,536
886.552002,556
886.668762,557
886.785645,534
886.902344,537
887.019165,538
887.135925,540
887.252747,531
887.369446,530
887.486267,519
887.603027,531
887.719788,510
887.836548,495
887.953247,501
888.070068,498
888.186829,504
888.303528,495
888.420288,506
888.536987,480
888.653687,488
888.770447,486
888.887146,466
889.003967,474
889.120667,462
889.237305,455
889.354065,456
889.470703,475
889.587463,469
889.704163,468
889.820862,485
889.937561,483
890.054199,450
890.170837,476
890.287598,497
890.404236,475
890.520874,498
890.637634,479
890.754211,501
890.87085,464
890.987549,470
891.104187,472
891.220886,480
891.337463,462
891.454102,463
891.57074,484
891.687378,482
891.804077,452
891.920654,477
892.037231,478
892.15387,472
892.270447,500
892.387085,481
892.503723,482
892.6203,492
892.736877,475
892.853516,495
892.970032,465
893.08667,484
893.203186,465
893.319763,454
893.43634,473
893.552917,480
893.669556,467
893.786011,483
893.902588,471
894.019165,462
894.135681,469
894.252197,468
894.368835,485
894.485291,480
894.601868,476
894.718384,492
894.8349,466
894.951355,477
895.067932,465
895.184448,455
895.300964,459
895.417419,474
895.533936,472
895.650452,479
895.766907,494
895.883423,477
895.999878,463
896.116333,474
896.232849,480
896.349304,480
896.465759,478
896.582214,487
896.698669,492
896.815125,478
896.931641,466
897.048035,481
897.164551,473
897.280884,482
897.397339,488
897.513794,463
897.630249,458
897.746582,482
897.863098,483
897.979431,476
898.095886,478
898.212341,460
898.328674,483
898.445129,485
898.561462,485
898.677795,490
898.794312,484
898.910645,474
899.026978,487
899.143433,483
899.259766,494
899.37616,472
899.492493,476
899.608765,474
899.725159,510
899.841553,468
899.957947,481
900.07428,483
900.190552,467
900.306946,486
900.423157,479
900.53949,487
900.655884,483
900.772156,497
900.888489,471
901.004822,469
901.121033,501
901.237366,464
901.353699,484
901.46991,486
901.586304,471
901.702515,501
901.818787,496
901.93512,488
902.051331,509
902.167603,492
902.283875,523
902.400085,514
902.516418,503
902.632629,506
902.74884,524
902.865112,532
902.981384,512
903.097595,519
903.213867,525
903.330017,520
903.446289,521
903.5625,490
903.67865,518
903.794922,516
903.911072,514
904.027344,487
904.143494,506
904.259705,504
904.375916,508
904.492065,501
904.608215,501
904.724426,498
904.840576,478
904.956726,496
905.072876,466
905.189087,493
905.305176,479
905.421387,486
905.537537,478
905.653687,475
905.769775,478
905.885925,489
906.002014,483
906.118164,495
906.234314,478
906.350403,476
906.466492,477
906.582642,476
906.69873,489
906.814758,489
906.930908,483
907.046936,478
907.163086,476
907.279175,483
907.395264,457
907.511353,477
907.62738,459
907.743408,488
907.859497,460
907.975525,508
908.091553,469
908.207703,470
908.32373,472
908.439758,492
908.555786,474
908.671814,475
908.787842,498
908.90387,477
909.019775,478
909.135864,490
909.251892,484
909.367859,483
909.483826,494
909.599854,460
909.715881,475
909.831848,501
909.947815,462
910.063782,480
910.179749,497
910.295776,483
910.411743,493
910.527649,498
910.643616,463
910.759583,490
910.875488,483
910.991455,470
911.107361,487
911.223267,485
911.339294,485
911.4552,468
911.571106,473
911.687073,469
911.802979,493
911.918823,473
912.034729,470
912.150635,467
912.266602,483
912.382446,456
912.498352,493
912.614197,479
912.730103,477
912.846008,484
792.44574,904
792.56488,924
792.68396,920
792.80304,895
792.92218,843
793.041199,833
793.160339,811
793.279419,817
793.398499,832
793.517578,762
793.636658,805
793.755737,751
793.874817,800
793.993896,764
794.112976,745
794.232056,742
794.351074,733
794.470215,726
794.589233,730
794.708313,686
794.827393,705
794.946411,727
795.065552,693
795.18457,695
795.303589,673
795.422668,683
795.541687,682
795.660767,696
795.779846,699
795.898865,649
796.017883,648
796.136963,652
796.255981,663
796.375061,630
796.49408,650
796.613037,624
796.732117,630
796.851135,640
796.970154,634
797.089233,633
797.208191,624
797.327271,660
797.446228,609
797.565186,629
797.684265,595
797.803223,638
797.922241,604
798.04126,600
798.160278,612
798.279297,599
798.398315,592
798.517273,611
798.636292,608
798.75531,608
798.874268,586
798.993286,599
799.112244,587
799.231323,607
799.350281,592
799.469238,596
799.588257,598
799.707153,620
799.826111,597
799.945129,574
800.064087,585
800.183044,596
800.302063,613
800.421021,576
800.539978,589
800.658936,581
800.777893,578
800.896912,588
801.015747,570
801.134705,577
801.253723,573
801.37262,588
801.491638,566
801.610535,600
801.729492,581
801.84845,566
801.967407,563
802.086243,571
802.205261,577
802.324158,570
802.443115,543
802.562073,587
802.680969,569
802.799927,572
802.918762,545
803.037659,557
803.156677,571
803.275574,568
803.39447,562
803.513428,565
803.632263,591
803.751221,556
803.870117,590
803.989014,569
804.107971,583
804.226746,569
804.345642,565
804.4646,580
804.583496,565
804.702393,559
804.821228,569
804.940125,569
805.059021,552
805.177917,551
805.296814,554
805.415649,566
805.534546,561
805.653442,575
805.772278,553
805.891113,550
806.01001,572
806.128906,569
806.247742,579
806.366577,574
806.485413,560
806.604309,551
806.723145,558
806.84198,585
806.960876,550
807.079712,564
807.198486,557
807.317383,570
807.436218,560
807.554993,570
807.673889,567
807.792725,568
807.91156,550
808.030396,570
808.14917,570
808.268005,579
808.386841,539
808.505676,572
808.624451,587
808.743286,580
808.862122,573
808.980896,567
809.099731,559
809.218506,553
809.337341,547
809.456116,539
809.57489,557
809.693726,576
809.8125,558
809.931274,575
810.050049,543
810.168884,562
810.287659,559
810.406372,566
810.525269,529
810.643982,553
810.762756,573
810.881531,562
811.000305,553
811.11908,583
811.237854,564
811.356567,560
811.475403,556
811.594116,549
811.71283,546
811.831604,562
811.950378,557
812.069153,566
812.187927,558
812.30658,548
812.425415,550
812.544128,583
812.662781,566
812.781616,555
812.900269,564
813.019043,561
813.137756,557
813.256531,557
813.375244,553
813.493896,554
813.612671,559
813.731384,546
813.850037,556
813.96875,549
814.087524,554
814.206238,560
814.324951,538
814.443604,558
814.562256,542
814.68103,546
814.799683,538
814.918335,580
815.037109,546
815.155762,549
815.274475,546
815.393188,552
815.511841,559
815.630554,537
815.749146,544
815.867859,542
815.986572,525
816.105164,548
816.223877,528
816.342529,538
816.461182,568
816.579895,551
816.698486,537
816.817139,548
816.935791,554
817.054504,548
817.173096,552
817.291748,541
817.4104,545
817.529053,548
817.647644,539
817.766235,515
817.884949,516
818.00354,512
818.122192,521
818.240845,525
818.359436,541
818.478088,508
818.59668,522
818.715271,522
818.833923,514
818.952515,519
819.071106,506
819.189758,519
819.30835,480
819.426941,485
819.545532,512
819.664124,511
819.782715,487
819.901306,485
820.019897,509
820.138489,512
820.25708,494
820.375671,480
820.494202,495
820.612732,501
820.731384,514
820.849915,490
820.968506,485
821.087097,499
821.205627,509
821.324158,489
821.442749,498
821.561279,489
821.679871,485
821.798401,485
821.916931,482
822.035461,494
822.154053,469
822.272583,492
822.391174,490
822.509583,504
822.628174,509
822.746704,477
822.865234,487
822.983765,491
823.102295,487
823.220825,501
823.339294,505
823.457825,497
823.576355,495
823.694824,491
823.813354,485
823.931885,490
824.050354,501
824.168884,515
824.287354,490
824.405823,500
824.524353,485
824.642822,480
824.761353,490
824.879822,490
824.998291,494
825.116699,482
825.235291,486
825.353699,493
825.472168,471
825.590637,494
825.709106,468
825.827576,483
825.946045,489
826.064453,482
826.182983,478
826.301392,474
826.4198,463
826.53833,485
826.656738,481
826.775208,480
826.893677,496
827.012024,488
827.130493,473
827.248962,460
827.36731,475
827.485779,481
827.604248,487
827.722595,462
827.841064,486
827.959412,475
828.077942,479
828.196289,462
828.314636,474
828.433105,455
828.551514,464
828.669861,473
828.78833,480
828.906677,453
829.025085,476
829.143433,466
829.261841,471
829.38031,495
829.498657,451
829.617004,460
829.735413,455
829.85376,478
829.972107,471
830.090515,485
830.208862,483
830.327209,473
830.445557,464
830.563904,470
830.682312,456
830.800659,471
830.919006,467
831.037354,491
831.155701,481
831.274048,483
831.392395,454
831.51062,494
831.629028,466
831.747314,488
831.865662,493
831.984009,466
832.102356,475
832.220642,494
832.338928,474
832.457275,493
832.575623,474
832.693909,466
832.812134,469
832.930481,488
833.048828,481
833.167114,457
833.2854,488
833.403687,503
833.521973,484
833.640259,465
833.758545,481
833.876831,485
833.995056,476
834.113281,500
834.231628,467
834.349915,461
834.468201,482
834.586426,464
834.704651,455
834.822998,495
834.941162,465
835.059448,491
835.177673,462
835.295959,481
835.414246,488
835.53241,469
835.650635,489
835.768921,451
835.887146,469
836.005371,477
836.123596,461
836.241821,492
836.360046,469
836.478271,477
836.596497,484
836.714722,482
836.832886,480
836.95105,484
837.069336,483
837.1875,477
837.305725,477
837.423889,462
837.542053,461
837.660339,468
837.778503,485
837.896667,493
838.014832,484
838.132996,488
838.25116,472
838.369385,475
838.487488,482
838.605713,488
838.723877,477
838.84198,503
838.960205,493
839.078308,493
839.196472,472
839.314636,474
839.4328,491
839.550964,473
839.669067,500
839.787231,484
839.905396,474
840.023499,490
840.141602,484
840.259766,520
840.377869,485
840.495972,513
840.614136,491
840.732239,486
840.850342,489
840.968445,480
841.086548,494
841.204651,496
841.322754,462
841.440918,502
841.55896,489
841.677002,492
841.795166,498
841.913208,513
842.031311,514
842.149353,503
842.267456,501
842.385498,482
842.503601,509
842.621643,504
842.739746,488
842.857788,497
842.97583,501
843.093933,498
843.211975,492
843.330017,491
843.44812,484
843.566101,479
843.684204,482
843.802246,489
843.920227,487
844.038269,516
844.156311,483
844.274292,489
844.392395,489
844.510376,487
844.628357,523
844.74646,492
844.864441,485
844.982422,485
845.100403,495
845.218384,496
845.336426,510
845.454468,500
845.572449,487
845.69043,496
845.808411,473
845.926453,525
846.044373,475
846.162354,481
846.280396,499
846.398315,497
846.516296,491
846.634216,462
846.752197,480
846.870178,517
846.988098,494
847.106079,480
847.22406,480
847.34198,504
847.4599,502
847.577881,498
847.695801,503
847.813782,491
847.931641,493
848.049561,489
848.167603,465
848.285461,500
848.403381,504
848.521362,486
848.639221,500
848.75708,497
848.875,504
848.99292,494
849.110901,515
849.22876,474
849.34668,482
849.464539,486
849.582458,511
849.700317,501
849.818176,485
849.936096,492
850.053955,515
850.171875,501
850.289673,504
850.407593,505
850.525452,505
850.643311,531
850.761169,516
850.878967,505
850.996887,499
851.114746,492
851.232544,505
851.350403,507
851.468262,486
851.58606,488
851.703979,477
851.821777,505
851.939636,496
852.057434,499
852.175232,493
852.293091,496
852.410889,509
852.528687,524
852.646545,504
852.764343,515
852.88208,512
852.999939,531
853.117676,496
853.235535,498
853.353271,498
853.471069,517
853.588928,494
853.706604,484
853.824402,492
853.9422,505
854.059998,495
854.177734,482
854.295532,491
854.413269,494
854.531006,485
854.648804,493
854.766541,498
854.884277,505
855.002014,498
855.119751,503
855.237549,496
855.355225,496
855.473022,498
855.590698,491
855.708435,507
855.826172,500
855.943848,499
856.061646,489
856.179321,511
856.296997,507
856.414795,509
856.53241,508
856.650085,507
856.767822,511
856.885559,505
857.003174,510
857.120911,518
857.238586,528
857.356201,507
857.473938,508
857.591614,518
857.709351,508
857.826965,538
857.944641,533
858.062317,507
858.179993,514
858.297668,516
858.415283,512
858.532959,499
858.650574,491
858.768188,500
858.885803,505
859.003479,507
859.121094,498
859.23877,510
859.356384,515
859.473999,487
859.591675,502
859.709229,490
859.826843,490
859.944458,502
860.062012,498
860.179626,466
860.297302,502
860.414856,492
860.532471,496
860.650024,498
860.767639,496
860.885193,470
861.002808,492
861.120361,469
861.237976,495
861.35553,498
861.473022,493
861.590698,502
861.708191,491
861.825745,511
861.943298,512
862.060852,483
862.178406,465
862.295959,499
862.413513,498
862.531006,494
862.64856,487
862.766113,470
862.883667,476
863.00116,486
863.118713,504
863.236206,482
863.353699,475
863.471252,456
863.588745,487
863.706177,477
863.82373,498
863.941162,483
864.058716,495
864.176208,516
864.29364,481
864.411194,500
864.528687,504
864.646118,486
864.763611,491
864.881042,478
864.998535,467
865.116028,489
865.233459,489
865.350891,489
865.468384,480
865.585754,485
865.703308,490
865.820679,477
865.938171,481
866.055542,507
866.173035,487
866.290466,462
866.407837,483
866.52533,506
866.6427,489
866.760071,483
866.877563,475
866.994934,481
867.112305,500
867.229736,487
867.347107,498
867.464539,483
867.58197,485
867.699341,483
867.81665,497
867.934082,477
868.051453,492
868.168823,489
868.286194,504
868.403564,500
868.520935,484
868.638306,505
868.755676,499
868.872986,489
868.990295,478
869.107727,484
869.225037,498
869.342346,484
869.459717,492
869.577026,491
869.694336,491
869.811707,501
869.929016,492
870.046326,504
870.163635,513
870.280945,498
870.398254,495
870.515564,492
870.632812,514
870.750183,500
870.867432,529
870.984741,513
871.102051,524
871.219299,496
871.336609,526
871.453918,501
871.571106,513
871.688416,492
871.805664,528
871.922852,508
872.040222,504
872.157471,519
872.274719,506
872.391968,532
872.509155,533
872.626465,519
872.743652,525
872.860962,511
872.978149,507
873.095337,519
873.212646,518
873.329834,525
873.44696,508
873.564209,499
873.681396,514
873.798645,489
873.915894,498
874.03302,526
874.150208,527
874.267456,513
874.384583,510
874.501831,516
874.618958,521
874.736145,541
874.853333,515
874.970459,545
875.087646,522
875.204834,523
875.32196,516
875.439148,494
875.556274,526
875.673401,515
875.790527,496
875.907715,523
876.024841,477
876.141968,510
876.259094,493
876.376282,485
876.493347,496
876.610474,497
876.7276,510
876.844727,492
876.961853,493
877.078918,510
877.195984,495
877.313171,503
877.430237,512
877.547302,479
877.664368,505
877.781433,478
877.898499,474
878.015625,509
878.13269,499
878.249695,492
878.366821,495
878.483887,473
878.600952,486
878.717957,468
878.834961,508
878.952087,488
879.069092,499
879.186157,490
879.303162,509
879.420227,486
879.537231,491
879.654236,499
879.77124,478
879.888306,484
880.005249,490
880.122314,491
880.239319,488
880.356323,468
880.473328,482
880.590271,478
880.707275,496
880.824341,479
880.941284,497
881.058228,471
881.175232,486
881.292236,468
881.40918,460
881.526123,509
881.643066,502
881.760071,468
881.877014,471
881.993958,485
882.11084,479
882.227783,486
882.344727,483
882.46167,477
882.578613,492
882.695618,486
882.812439,484
882.929382,495
883.046326,475
883.163208,482
883.280151,509
883.397034,477
883.513916,486
883.630798,480
883.747742,507
883.864563,479
883.981506,467
884.098389,477
884.21521,501
884.332153,509
884.448975,522
884.565796,494
884.682678,542
884.7995,528
884.916443,530
885.033264,550
885.150085,543
885.266968,559
885.383789,564
885.500671,578
885.617493,587
885.734314,558
885.851196,570
885.967896,576
886.084717,558
886.201599,567
886.318359,548
886.435181,569
886.552002,573
886.668762,548
886.785645,554
886.902344,550
887.019165,525
887.135925,543
887.252747,523
887.369446,503
887.486267,529
887.603027,502
887.719788,527
887.836548,511
887.953247,505
888.070068,492
888.186829,498
888.303528,493
888.420288,497
888.536987,476
888.653687,480
888.770447,486
888.887146,495
889.003967,466
889.120667,480
889.237305,471
889.354065,493
889.470703,475
889.587463,481
889.704163,474
889.820862,472
889.937561,458
890.054199,469
890.170837,491
890.287598,481
890.404236,477
890.520874,461
890.637634,476
890.754211,487
890.87085,487
890.987549,486
891.104187,489
891.220886,480
891.337463,472
891.454102,492
891.57074,477
891.687378,494
891.804077,473
891.920654,484
892.037231,476
892.15387,480
892.270447,470
892.387085,472
892.503723,478
892.6203,465
892.736877,489
892.853516,486
892.970032,480
893.08667,485
893.203186,473
893.319763,482
893.43634,480
893.552917,480
893.669556,466
893.786011,495
893.902588,467
894.019165,481
894.135681,490
894.252197,471
894.368835,468
894.485291,480
894.601868,454
894.718384,484
894.8349,476
894.951355,478
895.067932,473
895.184448,472
895.300964,474
895.417419,479
895.533936,475
895.650452,481
895.766907,476
895.883423,465
895.999878,458
896.116333,481
896.232849,460
896.349304,465
896.465759,468
896.582214,478
896.698669,477
896.815125,473
896.931641,477
897.048035,484
897.164551,480
897.280884,472
897.397339,475
897.513794,484
897.630249,489
897.746582,487
897.863098,499
897.979431,478
898.095886,462
898.212341,472
898.328674,462
898.445129,500
898.561462,470
898.677795,489
898.794312,476
898.910645,498
899.026978,465
899.143433,470
899.259766,492
899.37616,458
899.492493,477
899.608765,489
899.725159,495
899.841553,474
899.957947,456
900.07428,494
900.190552,502
900.306946,483
900.423157,483
900.53949,488
900.655884,481
900.772156,470
900.888489,459
901.004822,517
901.121033,484
901.237366,493
901.353699,501
901.46991,499
901.586304,488
901.702515,488
901.818787,515
901.93512,513
902.051331,498
902.167603,514
902.283875,537
902.400085,515
902.516418,527
902.632629,522
902.74884,534
902.865112,523
902.981384,532
903.097595,512
903.213867,527
903.330017,538
903.446289,514
903.5625,514
903.67865,516
903.794922,521
903.911072,509
904.027344,524
904.143494,500
904.259705,500
904.375916,528
904.492065,475
904.608215,497
904.724426,482
904.840576,498
904.956726,478
905.072876,490
905.189087,503
905.305176,481
905.421387,490
905.537537,488
905.653687,496
905.769775,483
905.885925,490
906.002014,479
906.118164,500
906.234314,474
906.350403,489
906.466492,486
906.582642,466
906.69873,480
906.814758,489
906.930908,474
907.046936,471
907.163086,501
907.279175,484
907.395264,485
907.511353,476
907.62738,472
907.743408,482
907.859497,477
907.975525,472
908.091553,465
908.207703,481
908.32373,469
908.439758,500
908.555786,481
908.671814,480
908.787842,460
908.90387,474
909.019775,477
909.135864,489
909.251892,496
909.367859,494
909.483826,465
909.599854,483
909.715881,485
909.831848,492
909.947815,479
910.063782,488
910.179749,492
910.295776,494
910.411743,475
910.527649,479
910.643616,473
910.759583,487
910.875488,478
910.991455,496
911.107361,486
911.223267,484
911.339294,476
911.4552,480
911.571106,489
911.687073,482
911.802979,482
911.918823,497
912.034729,484
912.150635,463
912.266602,477
912.382446,464
912.498352,485
912.614197,495
912.730103,473
912.846008,460
