792.44574,632
792.56488,643
792.68396,692
792.80304,672
792.92218,610
793.041199,592
793.160339,594
793.279419,594
793.398499,619
793.517578,619
793.636658,598
793.755737,606
793.874817,615
793.993896,625
794.112976,587
794.232056,572
794.351074,589
794.470215,595
794.589233,587
794.708313,598
794.827393,573
794.946411,589
795.065552,587
795.18457,604
795.303589,586
795.422668,591
795.541687,585
795.660767,569
795.779846,566
795.898865,567
796.017883,583
796.136963,573
796.255981,553
796.375061,575
796.49408,574
796.613037,581
796.732117,579
796.851135,574
796.970154,556
797.089233,548
797.208191,573
797.327271,561
797.446228,537
797.565186,571
797.684265,584
797.803223,565
797.922241,579
798.04126,580
798.160278,583
798.279297,584
798.398315,567
798.517273,554
798.636292,572
798.75531,576
798.874268,540
798.993286,595
799.112244,536
799.231323,571
799.350281,560
799.469238,579
799.588257,579
799.707153,560
799.826111,571
799.945129,551
800.064087,575
800.183044,560
800.302063,551
800.421021,563
800.539978,583
800.658936,557
800.777893,549
800.896912,570
801.015747,562
801.134705,573
801.253723,585
801.37262,579
801.491638,576
801.610535,559
801.729492,598
801.84845,546
801.967407,561
802.086243,583
802.205261,568
802.324158,555
802.443115,565
802.562073,581
802.680969,577
802.799927,609
802.918762,555
803.037659,565
803.156677,585
803.275574,604
803.39447,571
803.513428,605
803.632263,569
803.751221,589
803.870117,578
803.989014,573
804.107971,583
804.226746,566
804.345642,564
804.4646,571
804.583496,601
804.702393,563
804.821228,557
804.940125,590
805.059021,589
805.177917,603
805.296814,577
805.415649,612
805.534546,587
805.653442,595
805.772278,584
805.891113,598
806.01001,575
806.128906,598
806.247742,587
806.366577,593
806.485413,620
806.604309,617
806.723145,573
806.84198,585
806.960876,582
807.079712,589
807.198486,592
807.317383,606
807.436218,585
807.554993,585
807.673889,608
807.792725,599
807.91156,608
808.030396,591
808.14917,587
808.268005,621
808.386841,588
808.505676,593
808.624451,589
808.743286,591
808.862122,606
808.980896,584
809.099731,594
809.218506,614
809.337341,601
809.456116,603
809.57489,595
809.693726,590
809.8125,625
809.931274,620
810.050049,611
810.168884,608
810.287659,614
810.406372,602
810.525269,617
810.643982,633
810.762756,593
810.881531,603
811.000305,601
811.11908,602
811.237854,602
811.356567,589
811.475403,609
811.594116,630
811.71283,611
811.831604,597
811.950378,608
812.069153,615
812.187927,615
812.30658,621
812.425415,620
812.544128,621
812.662781,609
812.781616,655
812.900269,610
813.019043,625
813.137756,609
813.256531,622
813.375244,617
813.493896,588
813.612671,625
813.731384,596
813.850037,613
813.96875,580
814.087524,594
814.206238,609
814.324951,615
814.443604,591
814.562256,619
814.68103,621
814.799683,608
814.918335,600
815.037109,597
815.155762,610
815.274475,615
815.393188,603
815.511841,581
815.630554,590
815.749146,592
815.867859,576
815.986572,606
816.105164,585
816.223877,582
816.342529,620
816.461182,579
816.579895,592
816.698486,568
816.817139,638
816.935791,594
817.054504,604
817.173096,605
817.291748,596
817.4104,585
817.529053,573
817.647644,599
817.766235,568
817.884949,549
818.00354,551
818.122192,537
818.240845,532
818.359436,540
818.478088,540
818.59668,531
818.715271,531
818.833923,510
818.952515,520
819.071106,518
819.189758,522
819.30835,514
819.426941,501
819.545532,499
819.664124,515
819.782715,491
819.901306,511
820.019897,474
820.138489,504
820.25708,509
820.375671,493
820.494202,481
820.612732,496
820.731384,476
820.849915,502
820.968506,457
821.087097,489
821.205627,487
821.324158,481
821.442749,489
821.561279,469
821.679871,476
821.798401,492
821.916931,460
822.035461,489
822.154053,496
822.272583,482
822.391174,480
822.509583,484
822.628174,482
822.746704,490
822.865234,459
822.983765,472
823.102295,481
823.220825,479
823.339294,487
823.457825,474
823.576355,478
823.694824,460
823.813354,473
823.931885,481
824.050354,472
824.168884,476
824.287354,486
824.405823,469
824.524353,464
824.642822,503
824.761353,487
824.879822,476
824.998291,481
825.116699,484
825.235291,484
825.353699,472
825.472168,480
825.590637,485
825.709106,469
825.827576,465
825.946045,469
826.064453,472
826.182983,483
826.301392,480
826.4198,457
826.53833,459
826.656738,469
826.775208,471
826.893677,463
827.012024,473
827.130493,469
827.248962,467
827.36731,452
827.485779,468
827.604248,468
827.722595,462
827.841064,465
827.959412,469
828.077942,445
828.196289,471
828.314636,458
828.433105,478
828.551514,475
828.669861,446
828.78833,470
828.906677,460
829.025085,462
829.143433,467
829.261841,451
829.38031,458
829.498657,456
829.617004,457
829.735413,467
829.85376,476
829.972107,447
830.090515,462
830.208862,456
830.327209,465
830.445557,453
830.563904,453
830.682312,456
830.800659,451
830.919006,449
831.037354,462
831.155701,458
831.274048,457
831.392395,452
831.51062,460
831.629028,454
831.747314,458
831.865662,471
831.984009,463
832.102356,453
832.220642,445
832.338928,450
832.457275,470
832.575623,468
832.693909,452
832.812134,456
832.930481,451
833.048828,445
833.167114,474
833.2854,447
833.403687,476
833.521973,453
833.640259,443
833.758545,475
833.876831,453
833.995056,453
834.113281,453
834.231628,458
834.349915,473
834.468201,467
834.586426,470
834.704651,452
834.822998,460
834.941162,464
835.059448,467
835.177673,450
835.295959,453
835.414246,451
835.53241,461
835.650635,462
835.768921,470
835.887146,469
836.005371,490
836.123596,460
836.241821,465
836.360046,487
836.478271,467
836.596497,467
836.714722,484
836.832886,481
836.95105,468
837.069336,466
837.1875,472
837.305725,460
837.423889,458
837.542053,468
837.660339,485
837.778503,471
837.896667,459
838.014832,492
838.132996,483
838.25116,477
838.369385,471
838.487488,470
838.605713,472
838.723877,452
838.84198,452
838.960205,498
839.078308,487
839.196472,475
839.314636,459
839.4328,464
839.550964,466
839.669067,486
839.787231,480
839.905396,485
840.023499,454
840.141602,468
840.259766,461
840.377869,460
840.495972,461
840.614136,461
840.732239,465
840.850342,449
840.968445,453
841.086548,458
841.204651,465
841.322754,474
841.440918,453
841.55896,459
841.677002,468
841.795166,459
841.913208,463
842.031311,433
842.149353,441
842.267456,465
842.385498,454
842.503601,470
842.621643,465
842.739746,431
842.857788,452
842.97583,461
843.093933,429
843.211975,459
843.330017,453
843.44812,445
843.566101,441
843.684204,434
843.802246,449
843.920227,436
844.038269,445
844.156311,439
844.274292,464
844.392395,438
844.510376,452
844.628357,433
844.74646,450
844.864441,433
844.982422,474
845.100403,450
845.218384,465
845.336426,466
845.454468,456
845.572449,446
845.69043,455
845.808411,434
845.926453,458
846.044373,462
846.162354,466
846.280396,447
846.398315,450
846.516296,447
846.634216,448
846.752197,430
846.870178,465
846.988098,449
847.106079,448
847.22406,444
847.34198,455
847.4599,448
847.577881,465
847.695801,448
847.813782,453
847.931641,455
848.049561,452
848.167603,437
848.285461,452
848.403381,448
848.521362,467
848.639221,431
848.75708,450
848.875,448
848.99292,454
849.110901,436
849.22876,425
849.34668,439
849.464539,441
849.582458,449
849.700317,459
849.818176,453
849.936096,436
850.053955,431
850.171875,446
850.289673,443
850.407593,446
850.525452,460
850.643311,457
850.761169,446
850.878967,450
850.996887,449
851.114746,450
851.232544,441
851.350403,457
851.468262,446
851.58606,438
851.703979,450
851.821777,451
851.939636,448
852.057434,441
852.175232,456
852.293091,442
852.410889,471
852.528687,450
852.646545,467
852.764343,471
852.88208,443
852.999939,460
853.117676,460
853.235535,474
853.353271,468
853.471069,463
853.588928,457
853.706604,440
853.824402,434
853.9422,459
854.059998,458
854.177734,453
854.295532,439
854.413269,456
854.531006,449
854.648804,465
854.766541,460
854.884277,465
855.002014,462
855.119751,457
855.237549,466
855.355225,451
855.473022,453
855.590698,461
855.708435,462
855.826172,455
855.943848,468
856.061646,462
856.179321,468
856.296997,445
856.414795,454
856.53241,459
856.650085,458
856.767822,447
856.885559,460
857.003174,452
857.120911,469
857.238586,471
857.356201,468
857.473938,452
857.591614,455
857.709351,459
857.826965,446
857.944641,455
858.062317,453
858.179993,445
858.297668,456
858.415283,451
858.532959,457
858.650574,464
858.768188,458
858.885803,465
859.003479,447
859.121094,474
859.23877,457
859.356384,449
859.473999,471
859.591675,446
859.709229,465
859.826843,452
859.944458,447
860.062012,465
860.179626,438
860.297302,461
860.414856,450
860.532471,447
860.650024,444
860.767639,442
860.885193,458
861.002808,460
861.120361,445
861.237976,432
861.35553,440
861.473022,452
861.590698,436
861.708191,439
861.825745,440
861.943298,451
862.060852,456
862.178406,444
862.295959,441
862.413513,455
862.531006,453
862.64856,440
862.766113,449
862.883667,452
863.00116,441
863.118713,458
863.236206,447
863.353699,457
863.471252,455
863.588745,446
863.706177,448
863.82373,454
863.941162,463
864.058716,454
864.176208,473
864.29364,459
864.411194,456
864.528687,462
864.646118,459
864.763611,460
864.881042,449
864.998535,462
865.116028,440
865.233459,444
865.350891,468
865.468384,458
865.585754,443
865.703308,460
865.820679,447
865.938171,459
866.055542,475
866.173035,478
866.290466,457
866.407837,454
866.52533,460
866.6427,459
866.760071,455
866.877563,441
866.994934,449
867.112305,446
867.229736,432
867.347107,460
867.464539,458
867.58197,452
867.699341,464
867.81665,463
867.934082,457
868.051453,441
868.168823,455
868.286194,452
868.403564,450
868.520935,451
868.638306,469
868.755676,447
868.872986,447
868.990295,451
869.107727,451
869.225037,461
869.342346,464
869.459717,457
869.577026,477
869.694336,463
869.811707,474
869.929016,455
870.046326,442
870.163635,458
870.280945,464
870.398254,455
870.515564,454
870.632812,448
870.750183,445
870.867432,454
870.984741,469
871.102051,473
871.219299,451
871.336609,435
871.453918,454
871.571106,444
871.688416,478
871.805664,460
871.922852,448
872.040222,479
872.157471,462
872.274719,445
872.391968,464
872.509155,443
872.626465,444
872.743652,462
872.860962,449
872.978149,467
873.095337,455
873.212646,479
873.329834,469
873.44696,457
873.564209,448
873.681396,446
873.798645,444
873.915894,454
874.03302,461
874.150208,466
874.267456,436
874.384583,446
874.501831,451
874.618958,466
874.736145,452
874.853333,451
874.970459,450
875.087646,462
875.204834,453
875.32196,468
875.439148,455
875.556274,462
875.673401,461
875.790527,460
875.907715,439
876.024841,460
876.141968,444
876.259094,451
876.376282,464
876.493347,473
876.610474,447
876.7276,461
876.844727,460
876.961853,460
877.078918,455
877.195984,460
877.313171,475
877.430237,447
877.547302,453
877.664368,452
877.781433,467
877.898499,471
878.015625,443
878.13269,464
878.249695,455
878.366821,463
878.483887,447
878.600952,450
878.717957,466
878.834961,448
878.952087,442
879.069092,466
879.186157,475
879.303162,469
879.420227,457
879.537231,458
879.654236,466
879.77124,446
879.888306,467
880.005249,468
880.122314,461
880.239319,461
880.356323,449
880.473328,463
880.590271,445
880.707275,459
880.824341,458
880.941284,466
881.058228,466
881.175232,442
881.292236,448
881.40918,453
881.526123,443
881.643066,443
881.760071,457
881.877014,464
881.993958,442
882.11084,480
882.227783,442
882.344727,461
882.46167,451
882.578613,475
882.695618,473
882.812439,468
882.929382,460
883.046326,462
883.163208,463
883.280151,452
883.397034,441
883.513916,472
883.630798,462
883.747742,461
883.864563,471
883.981506,449
884.098389,470
884.21521,484
884.332153,464
884.448975,468
884.565796,472
884.682678,453
884.7995,455
884.916443,470
885.033264,454
885.150085,449
885.266968,480
885.383789,470
885.500671,469
885.617493,457
885.734314,446
885.851196,456
885.967896,459
886.084717,461
886.201599,463
886.318359,476
886.435181,473
886.552002,473
886.668762,475
886.785645,486
886.902344,465
887.019165,450
887.135925,448
887.252747,459
887.369446,461
887.486267,455
887.603027,453
887.719788,453
887.836548,458
887.953247,470
888.070068,456
888.186829,474
888.303528,461
888.420288,487
888.536987,483
888.653687,461
888.770447,447
888.887146,484
889.003967,463
889.120667,459
889.237305,474
889.354065,453
889.470703,473
889.587463,460
889.704163,467
889.820862,452
889.937561,459
890.054199,469
890.170837,476
890.287598,459
890.404236,459
890.520874,470
890.637634,465
890.754211,462
890.87085,463
890.987549,463
891.104187,455
891.220886,456
891.337463,456
891.454102,453
891.57074,476
891.687378,468
891.804077,453
891.920654,492
892.037231,459
892.15387,469
892.270447,469
892.387085,461
892.503723,459
892.6203,479
892.736877,449
892.853516,470
892.970032,465
893.08667,476
893.203186,475
893.319763,471
893.43634,476
893.552917,454
893.669556,456
893.786011,472
893.902588,464
894.019165,464
894.135681,467
894.252197,473
894.368835,456
894.485291,464
894.601868,447
894.718384,464
894.8349,460
894.951355,479
895.067932,461
895.184448,463
895.300964,467
895.417419,477
895.533936,465
895.650452,454
895.766907,461
895.883423,466
895.999878,480
896.116333,468
896.232849,471
896.349304,465
896.465759,475
896.582214,476
896.698669,475
896.815125,485
896.931641,456
897.048035,453
897.164551,464
897.280884,477
897.397339,462
897.513794,458
897.630249,469
897.746582,469
897.863098,473
897.979431,458
898.095886,457
898.212341,463
898.328674,467
898.445129,465
898.561462,436
898.677795,457
898.794312,482
898.910645,472
899.026978,467
899.143433,463
899.259766,457
899.37616,481
899.492493,466
899.608765,484
899.725159,466
899.841553,461
899.957947,456
900.07428,472
900.190552,471
900.306946,455
900.423157,496
900.53949,461
900.655884,456
900.772156,458
900.888489,476
901.004822,470
901.121033,462
901.237366,465
901.353699,475
901.46991,479
901.586304,465
901.702515,469
901.818787,472
901.93512,477
902.051331,458
902.167603,446
902.283875,483
902.400085,493
902.516418,474
902.632629,471
902.74884,472
902.865112,489
902.981384,493
903.097595,470
903.213867,473
903.330017,459
903.446289,488
903.5625,458
903.67865,473
903.794922,484
903.911072,481
904.027344,465
904.143494,477
904.259705,489
904.375916,470
904.492065,466
904.608215,494
904.724426,457
904.840576,474
904.956726,462
905.072876,457
905.189087,476
905.305176,460
905.421387,491
905.537537,487
905.653687,468
905.769775,468
905.885925,482
906.002014,467
906.118164,479
906.234314,469
906.350403,475
906.466492,467
906.582642,481
906.69873,461
906.814758,497
906.930908,480
907.046936,496
907.163086,469
907.279175,453
907.395264,483
907.511353,455
907.62738,475
907.743408,469
907.859497,466
907.975525,480
908.091553,454
908.207703,461
908.32373,461
908.439758,481
908.555786,463
908.671814,471
908.787842,479
908.90387,465
909.019775,451
909.135864,461
909.251892,462
909.367859,470
909.483826,490
909.599854,468
909.715881,473
909.831848,477
909.947815,490
910.063782,469
910.179749,471
910.295776,486
910.411743,462
910.527649,471
910.643616,489
910.759583,478
910.875488,474
910.991455,469
911.107361,469
911.223267,465
911.339294,474
911.4552,470
911.571106,476
911.687073,476
911.802979,467
911.918823,466
912.034729,458
912.150635,478
912.266602,486
912.382446,473
912.498352,463
912.614197,474
912.730103,496
912.846008,465
792.44574,596
792.56488,648
792.68396,674
792.80304,667
792.92218,629
793.041199,604
793.160339,608
793.279419,612
793.398499,622
793.517578,607
793.636658,598
793.755737,613
793.874817,640
793.993896,612
794.112976,588
794.232056,585
794.351074,615
794.470215,601
794.589233,571
794.708313,588
794.827393,610
794.946411,592
795.065552,577
795.18457,567
795.303589,619
795.422668,606
795.541687,578
795.660767,573
795.779846,575
795.898865,580
796.017883,591
796.136963,576
796.255981,579
796.375061,553
796.49408,572
796.613037,554
796.732117,581
796.851135,576
796.970154,563
797.089233,570
797.208191,583
797.327271,572
797.446228,582
797.565186,579
797.684265,559
797.803223,567
797.922241,587
798.04126,574
798.160278,583
798.279297,565
798.398315,593
798.517273,553
798.636292,563
798.75531,567
798.874268,574
798.993286,571
799.112244,573
799.231323,582
799.350281,566
799.469238,562
799.588257,573
799.707153,567
799.826111,581
799.945129,546
800.064087,599
800.183044,575
800.302063,560
800.421021,570
800.539978,564
800.658936,581
800.777893,555
800.896912,582
801.015747,578
801.134705,560
801.253723,577
801.37262,561
801.491638,580
801.610535,559
801.729492,569
801.84845,583
801.967407,569
802.086243,561
802.205261,578
802.324158,565
802.443115,605
802.562073,568
802.680969,554
802.799927,585
802.918762,575
803.037659,584
803.156677,586
803.275574,565
803.39447,574
803.513428,581
803.632263,592
803.751221,583
803.870117,579
803.989014,594
804.107971,605
804.226746,608
804.345642,593
804.4646,575
804.583496,584
804.702393,590
804.821228,572
804.940125,594
805.059021,602
805.177917,592
805.296814,598
805.415649,599
805.534546,606
805.653442,568
805.772278,593
805.891113,605
806.01001,611
806.128906,582
806.247742,603
806.366577,603
806.485413,614
806.604309,587
806.723145,588
806.84198,588
806.960876,602
807.079712,593
807.198486,593
807.317383,585
807.436218,612
807.554993,602
807.673889,596
807.792725,614
807.91156,574
808.030396,617
808.14917,598
808.268005,601
808.386841,613
808.505676,594
808.624451,594
808.743286,614
808.862122,602
808.980896,639
809.099731,614
809.218506,597
809.337341,608
809.456116,610
809.57489,615
809.693726,606
809.8125,615
809.931274,616
810.050049,616
810.168884,596
810.287659,629
810.406372,612
810.525269,582
810.643982,607
810.762756,617
810.881531,611
811.000305,610
811.11908,608
811.237854,626
811.356567,635
811.475403,620
811.594116,622
811.71283,621
811.831604,613
811.950378,613
812.069153,619
812.187927,619
812.30658,633
812.425415,601
812.544128,641
812.662781,624
812.781616,603
812.900269,613
813.019043,613
813.137756,618
813.256531,598
813.375244,628
813.493896,618
813.612671,633
813.731384,621
813.850037,613
813.96875,611
814.087524,644
814.206238,610
814.324951,599
814.443604,586
814.562256,635
814.68103,608
814.799683,612
814.918335,601
815.037109,606
815.155762,608
815.274475,601
815.393188,615
815.511841,611
815.630554,608
815.749146,605
815.867859,566
815.986572,599
816.105164,589
816.223877,618
816.342529,598
816.461182,604
816.579895,599
816.698486,594
816.817139,586
816.935791,622
817.054504,603
817.173096,596
817.291748,592
817.4104,581
817.529053,582
817.647644,583
817.766235,570
817.884949,580
818.00354,555
818.122192,566
818.240845,556
818.359436,527
818.478088,545
818.59668,530
818.715271,510
818.833923,535
818.952515,518
819.071106,510
819.189758,499
819.30835,513
819.426941,501
819.545532,521
819.664124,499
819.782715,492
819.901306,482
820.019897,501
820.138489,490
820.25708,495
820.375671,496
820.494202,500
820.612732,482
820.731384,525
820.849915,469
820.968506,493
821.087097,489
821.205627,469
821.324158,484
821.442749,485
821.561279,455
821.679871,491
821.798401,485
821.916931,499
822.035461,488
822.154053,470
822.272583,483
822.391174,471
822.509583,486
822.628174,479
822.746704,481
822.865234,475
822.983765,467
823.102295,473
823.220825,483
823.339294,461
823.457825,487
823.576355,483
823.694824,487
823.813354,482
823.931885,495
824.050354,467
824.168884,459
824.287354,469
824.405823,478
824.524353,496
824.642822,482
824.761353,490
824.879822,486
824.998291,476
825.116699,467
825.235291,504
825.353699,474
825.472168,470
825.590637,486
825.709106,462
825.827576,456
825.946045,477
826.064453,487
826.182983,466
826.301392,472
826.4198,459
826.53833,468
826.656738,474
826.775208,470
826.893677,480
827.012024,461
827.130493,460
827.248962,450
827.36731,468
827.485779,459
827.604248,465
827.722595,454
827.841064,460
827.959412,459
828.077942,465
828.196289,451
828.314636,445
828.433105,457
828.551514,455
828.669861,454
828.78833,477
828.906677,435
829.025085,474
829.143433,463
829.261841,459
829.38031,464
829.498657,491
829.617004,452
829.735413,465
829.85376,443
829.972107,464
830.090515,458
830.208862,458
830.327209,461
830.445557,454
830.563904,444
830.682312,467
830.800659,463
830.919006,454
831.037354,458
831.155701,451
831.274048,461
831.392395,455
831.51062,465
831.629028,459
831.747314,443
831.865662,472
831.984009,453
832.102356,459
832.220642,475
832.338928,463
832.457275,454
832.575623,451
832.693909,459
832.812134,460
832.930481,478
833.048828,441
833.167114,446
833.2854,445
833.403687,479
833.521973,469
833.640259,463
833.758545,444
833.876831,451
833.995056,471
834.113281,453
834.231628,470
834.349915,477
834.468201,451
834.586426,467
834.704651,453
834.822998,462
834.941162,469
835.059448,463
835.177673,457
835.295959,464
835.414246,464
835.53241,454
835.650635,461
835.768921,448
835.887146,477
836.005371,463
836.123596,442
836.241821,444
836.360046,470
836.478271,469
836.596497,464
836.714722,468
836.832886,465
836.95105,478
837.069336,476
837.1875,483
837.305725,480
837.423889,482
837.542053,469
837.660339,477
837.778503,470
837.896667,461
838.014832,470
838.132996,479
838.25116,481
838.369385,474
838.487488,467
838.605713,467
838.723877,452
838.84198,475
838.960205,483
839.078308,472
839.196472,471
839.314636,470
839.4328,467
839.550964,484
839.669067,469
839.787231,477
839.905396,472
840.023499,456
840.141602,478
840.259766,465
840.377869,489
840.495972,442
840.614136,474
840.732239,468
840.850342,468
840.968445,469
841.086548,464
841.204651,462
841.322754,476
841.440918,456
841.55896,471
841.677002,472
841.795166,486
841.913208,442
842.031311,459
842.149353,472
842.267456,475
842.385498,467
842.503601,448
842.621643,447
842.739746,458
842.857788,467
842.97583,457
843.093933,447
843.211975,473
843.330017,472
843.44812,444
843.566101,449
843.684204,455
843.802246,448
843.920227,452
844.038269,443
844.156311,433
844.274292,466
844.392395,467
844.510376,452
844.628357,444
844.74646,445
844.864441,467
844.982422,436
845.100403,469
845.218384,452
845.336426,444
845.454468,454
845.572449,457
845.69043,459
845.808411,447
845.926453,434
846.044373,460
846.162354,438
846.280396,465
846.398315,449
846.516296,435
846.634216,439
846.752197,468
846.870178,447
846.988098,436
847.106079,446
847.22406,447
847.34198,440
847.4599,452
847.577881,462
847.695801,467
847.813782,447
847.931641,449
848.049561,478
848.167603,436
848.285461,448
848.403381,455
848.521362,454
848.639221,455
848.75708,446
848.875,455
848.99292,443
849.110901,443
849.22876,445
849.34668,458
849.464539,447
849.582458,454
849.700317,446
849.818176,455
849.936096,428
850.053955,461
850.171875,470
850.289673,455
850.407593,437
850.525452,462
850.643311,425
850.761169,467
850.878967,427
850.996887,454
851.114746,438
851.232544,442
851.350403,458
851.468262,443
851.58606,443
851.703979,459
851.821777,456
851.939636,448
852.057434,441
852.175232,464
852.293091,448
852.410889,452
852.528687,440
852.646545,455
852.764343,461
852.88208,447
852.999939,457
853.117676,464
853.235535,448
853.353271,446
853.471069,440
853.588928,447
853.706604,447
853.824402,439
853.9422,460
854.059998,456
854.177734,438
854.295532,467
854.413269,462
854.531006,449
854.648804,450
854.766541,465
854.884277,465
855.002014,456
855.119751,449
855.237549,457
855.355225,465
855.473022,457
855.590698,450
855.708435,439
855.826172,479
855.943848,453
856.061646,453
856.179321,467
856.296997,453
856.414795,467
856.53241,475
856.650085,467
856.767822,446
856.885559,472
857.003174,446
857.120911,457
857.238586,458
857.356201,457
857.473938,456
857.591614,466
857.709351,451
857.826965,443
857.944641,445
858.062317,447
858.179993,478
858.297668,459
858.415283,464
858.532959,461
858.650574,448
858.768188,449
858.885803,459
859.003479,462
859.121094,466
859.23877,470
859.356384,451
859.473999,442
859.591675,476
859.709229,453
859.826843,453
859.944458,463
860.062012,454
860.179626,465
860.297302,428
860.414856,458
860.532471,447
860.650024,464
860.767639,447
860.885193,445
861.002808,463
861.120361,442
861.237976,454
861.35553,467
861.473022,449
861.590698,456
861.708191,464
861.825745,459
861.943298,462
862.060852,459
862.178406,463
862.295959,456
862.413513,455
862.531006,460
862.64856,458
862.766113,461
862.883667,454
863.00116,454
863.118713,463
863.236206,456
863.353699,447
863.471252,457
863.588745,470
863.706177,461
863.82373,448
863.941162,452
864.058716,455
864.176208,468
864.29364,452
864.411194,456
864.528687,448
864.646118,451
864.763611,437
864.881042,458
864.998535,457
865.116028,459
865.233459,460
865.350891,442
865.468384,465
865.585754,457
865.703308,472
865.820679,450
865.938171,459
866.055542,470
866.173035,461
866.290466,455
866.407837,464
866.52533,473
866.6427,456
866.760071,446
866.877563,475
866.994934,472
867.112305,458
867.229736,483
867.347107,453
867.464539,467
867.58197,456
867.699341,466
867.81665,445
867.934082,442
868.051453,458
868.168823,461
868.286194,465
868.403564,460
868.520935,438
868.638306,472
868.755676,465
868.872986,465
868.990295,450
869.107727,481
869.225037,459
869.342346,461
869.459717,469
869.577026,461
869.694336,452
869.811707,456
869.929016,446
870.046326,466
870.163635,473
870.280945,454
870.398254,465
870.515564,472
870.632812,463
870.750183,468
870.867432,460
870.984741,449
871.102051,454
871.219299,458
871.336609,459
871.453918,463
871.571106,464
871.688416,458
871.805664,454
871.922852,460
872.040222,450
872.157471,470
872.274719,451
872.391968,462
872.509155,463
872.626465,446
872.743652,452
872.860962,467
872.978149,449
873.095337,456
873.212646,474
873.329834,477
873.44696,453
873.564209,460
873.681396,434
873.798645,474
873.915894,448
874.03302,445
874.150208,483
874.267456,451
874.384583,464
874.501831,468
874.618958,463
874.736145,472
874.853333,461
874.970459,451
875.087646,478
875.204834,464
875.32196,465
875.439148,456
875.556274,460
875.673401,462
875.790527,446
875.907715,454
876.024841,464
876.141968,469
876.259094,456
876.376282,489
876.493347,448
876.610474,465
876.7276,463
876.844727,474
876.961853,450
877.078918,467
877.195984,451
877.313171,463
877.430237,444
877.547302,461
877.664368,455
877.781433,460
877.898499,455
878.015625,471
878.13269,456
878.249695,449
878.366821,453
878.483887,460
878.600952,427
878.717957,468
878.834961,444
878.952087,467
879.069092,469
879.186157,446
879.303162,461
879.420227,456
879.537231,446
879.654236,453
879.77124,472
879.888306,489
880.005249,458
880.122314,448
880.239319,452
880.356323,461
880.473328,458
880.590271,464
880.707275,459
880.824341,449
880.941284,460
881.058228,453
881.175232,446
881.292236,478
881.40918,447
881.526123,457
881.643066,438
881.760071,473
881.877014,463
881.993958,465
882.11084,471
882.227783,481
882.344727,453
882.46167,464
882.578613,446
882.695618,472
882.812439,465
882.929382,471
883.046326,440
883.163208,451
883.280151,451
883.397034,465
883.513916,465
883.630798,460
883.747742,452
883.864563,461
883.981506,468
884.098389,477
884.21521,459
884.332153,461
884.448975,451
884.565796,470
884.682678,460
884.7995,467
884.916443,459
885.033264,467
885.150085,457
885.266968,481
885.383789,462
885.500671,455
885.617493,466
885.734314,466
885.851196,482
885.967896,479
886.084717,470
886.201599,458
886.318359,457
886.435181,474
886.552002,444
886.668762,476
886.785645,455
886.902344,470
887.019165,463
887.135925,483
887.252747,468
887.369446,480
887.486267,468
887.603027,488
887.719788,478
887.836548,476
887.953247,464
888.070068,462
888.186829,479
888.303528,470
888.420288,461
888.536987,447
888.653687,472
888.770447,473
888.887146,462
889.003967,464
889.120667,456
889.237305,454
889.354065,453
889.470703,452
889.587463,474
889.704163,457
889.820862,463
889.937561,451
890.054199,477
890.170837,466
890.287598,465
890.404236,464
890.520874,466
890.637634,473
890.754211,458
890.87085,487
890.987549,471
891.104187,481
891.220886,477
891.337463,461
891.454102,453
891.57074,485
891.687378,479
891.804077,491
891.920654,482
892.037231,483
892.15387,454
892.270447,479
892.387085,467
892.503723,450
892.6203,468
892.736877,474
892.853516,468
892.970032,498
893.08667,469
893.203186,482
893.319763,480
893.43634,487
893.552917,468
893.669556,481
893.786011,472
893.902588,501
894.019165,449
894.135681,489
894.252197,460
894.368835,491
894.485291,460
894.601868,472
894.718384,466
894.8349,475
894.951355,470
895.067932,479
895.184448,440
895.300964,472
895.417419,458
895.533936,483
895.650452,457
895.766907,473
895.883423,462
895.999878,467
896.116333,486
896.232849,471
896.349304,485
896.465759,473
896.582214,461
896.698669,461
896.815125,474
896.931641,488
897.048035,465
897.164551,467
897.280884,469
897.397339,482
897.513794,475
897.630249,483
897.746582,464
897.863098,486
897.979431,464
898.095886,472
898.212341,463
898.328674,487
898.445129,467
898.561462,471
898.677795,474
898.794312,484
898.910645,466
899.026978,486
899.143433,486
899.259766,474
899.37616,469
899.492493,483
899.608765,469
899.725159,472
899.841553,467
899.957947,475
900.07428,486
900.190552,459
900.306946,473
900.423157,467
900.53949,464
900.655884,469
900.772156,474
900.888489,500
901.004822,479
901.121033,467
901.237366,477
901.353699,470
901.46991,462
901.586304,482
901.702515,466
901.818787,480
901.93512,467
902.051331,475
902.167603,480
902.283875,467
902.400085,470
902.516418,482
902.632629,485
902.74884,498
902.865112,479
902.981384,483
903.097595,479
903.213867,460
903.330017,457
903.446289,476
903.5625,473
903.67865,505
903.794922,478
903.911072,478
904.027344,486
904.143494,487
904.259705,459
904.375916,485
904.492065,458
904.608215,492
904.724426,462
904.840576,497
904.956726,495
905.072876,493
905.189087,476
905.305176,499
905.421387,471
905.537537,486
905.653687,477
905.769775,482
905.885925,475
906.002014,480
906.118164,472
906.234314,494
906.350403,486
906.466492,467
906.582642,466
906.69873,481
906.814758,470
906.930908,469
907.046936,472
907.163086,476
907.279175,470
907.395264,490
907.511353,487
907.62738,474
907.743408,485
907.859497,476
907.975525,484
908.091553,484
908.207703,478
908.32373,490
908.439758,468
908.555786,496
908.671814,486
908.787842,469
908.90387,475
909.019775,464
909.135864,491
909.251892,482
909.367859,458
909.483826,493
909.599854,487
909.715881,492
909.831848,473
909.947815,478
910.063782,463
910.179749,471
910.295776,487
910.411743,502
910.527649,465
910.643616,493
910.759583,495
910.875488,490
910.991455,479
911.107361,486
911.223267,483
911.339294,483
911.4552,471
911.571106,490
911.687073,472
911.802979,492
911.918823,480
912.034729,494
912.150635,470
912.266602,483
912.382446,486
912.498352,477
912.614197,485
912.730103,475
912.846008,479
792.44574,624
792.56488,648
792.68396,705
792.80304,663
792.92218,645
793.041199,602
793.160339,609
793.279419,597
793.398499,598
793.517578,605
793.636658,607
793.755737,609
793.874817,633
793.993896,613
794.112976,590
794.232056,617
794.351074,576
794.470215,594
794.589233,610
794.708313,577
794.827393,606
794.946411,566
795.065552,617
795.18457,585
795.303589,588
795.422668,580
795.541687,579
795.660767,603
795.779846,568
795.898865,568
796.017883,577
796.136963,572
796.255981,577
796.375061,565
796.49408,596
796.613037,602
796.732117,567
796.851135,563
796.970154,578
797.089233,605
797.208191,556
797.327271,569
797.446228,564
797.565186,572
797.684265,590
797.803223,586
797.922241,580
798.04126,592
798.160278,576
798.279297,556
798.398315,580
798.517273,551
798.636292,592
798.75531,571
798.874268,549
798.993286,570
799.112244,561
799.231323,579
799.350281,563
799.469238,562
799.588257,569
799.707153,564
799.826111,565
799.945129,571
800.064087,566
800.183044,589
800.302063,550
800.421021,579
800.539978,578
800.658936,574
800.777893,592
800.896912,593
801.015747,581
801.134705,581
801.253723,587
801.37262,587
801.491638,556
801.610535,584
801.729492,570
801.84845,598
801.967407,576
802.086243,578
802.205261,583
802.324158,586
802.443115,573
802.562073,562
802.680969,582
802.799927,585
802.918762,598
803.037659,598
803.156677,570
803.275574,588
803.39447,588
803.513428,580
803.632263,582
803.751221,583
803.870117,579
803.989014,580
804.107971,591
804.226746,580
804.345642,584
804.4646,583
804.583496,601
804.702393,594
804.821228,613
804.940125,584
805.059021,605
805.177917,618
805.296814,587
805.415649,621
805.534546,569
805.653442,599
805.772278,596
805.891113,601
806.01001,590
806.128906,621
806.247742,608
806.366577,587
806.485413,601
806.604309,598
806.723145,592
806.84198,577
806.960876,557
807.079712,583
807.198486,600
807.317383,603
807.436218,620
807.554993,593
807.673889,578
807.792725,599
807.91156,626
808.030396,612
808.14917,603
808.268005,615
808.386841,593
808.505676,645
808.624451,600
808.743286,613
808.862122,616
808.980896,607
809.099731,605
809.218506,602
809.337341,611
809.456116,603
809.57489,620
809.693726,613
809.8125,616
809.931274,620
810.050049,639
810.168884,596
810.287659,591
810.406372,605
810.525269,614
810.643982,620
810.762756,599
810.881531,629
811.000305,629
811.11908,642
811.237854,594
811.356567,626
811.475403,618
811.594116,607
811.71283,632
811.831604,615
811.950378,628
812.069153,622
812.187927,640
812.30658,600
812.425415,636
812.544128,605
812.662781,614
812.781616,598
812.900269,625
813.019043,590
813.137756,612
813.256531,632
813.375244,604
813.493896,627
813.612671,628
813.731384,622
813.850037,611
813.96875,619
814.087524,623
814.206238,625
814.324951,583
814.443604,638
814.562256,613
814.68103,606
814.799683,598
814.918335,616
815.037109,619
815.155762,603
815.274475,591
815.393188,600
815.511841,571
815.630554,606
815.749146,593
815.867859,609
815.986572,625
816.105164,589
816.223877,606
816.342529,604
816.461182,587
816.579895,625
816.698486,612
816.817139,610
816.935791,589
817.054504,582
817.173096,586
817.291748,584
817.4104,612
817.529053,571
817.647644,577
817.766235,596
817.884949,565
818.00354,586
818.122192,568
818.240845,575
818.359436,575
818.478088,537
818.59668,524
818.715271,532
818.833923,533
818.952515,492
819.071106,523
819.189758,510
819.30835,492
819.426941,512
819.545532,498
819.664124,514
819.782715,502
819.901306,498
820.019897,489
820.138489,500
820.25708,492
820.375671,506
820.494202,498
820.612732,495
820.731384,503
820.849915,495
820.968506,478
821.087097,476
821.205627,486
821.324158,495
821.442749,500
821.561279,474
821.679871,491
821.798401,484
821.916931,476
822.035461,480
822.154053,502
822.272583,471
822.391174,483
822.509583,487
822.628174,471
822.746704,478
822.865234,492
822.983765,472
823.102295,456
823.220825,487
823.339294,492
823.457825,472
823.576355,493
823.694824,497
823.813354,523
823.931885,491
824.050354,477
824.168884,512
824.287354,520
824.405823,484
824.524353,504
824.642822,478
824.761353,471
824.879822,471
824.998291,489
825.116699,491
825.235291,477
825.353699,468
825.472168,475
825.590637,486
825.709106,483
825.827576,456
825.946045,469
826.064453,477
826.182983,474
826.301392,453
826.4198,455
826.53833,473
826.656738,466
826.775208,466
826.893677,476
827.012024,466
827.130493,462
827.248962,474
827.36731,492
827.485779,470
827.604248,462
827.722595,482
827.841064,466
827.959412,470
828.077942,467
828.196289,471
828.314636,480
828.433105,455
828.551514,462
828.669861,457
828.78833,451
828.906677,456
829.025085,483
829.143433,477
829.261841,452
829.38031,455
829.498657,481
829.617004,452
829.735413,457
829.85376,466
829.972107,456
830.090515,444
830.208862,469
830.327209,475
830.445557,461
830.563904,439
830.682312,468
830.800659,465
830.919006,482
831.037354,468
831.155701,477
831.274048,456
831.392395,463
831.51062,454
831.629028,463
831.747314,452
831.865662,444
831.984009,441
832.102356,466
832.220642,458
832.338928,455
832.457275,470
832.575623,468
832.693909,480
832.812134,454
832.930481,463
833.048828,456
833.167114,453
833.2854,456
833.403687,467
833.521973,461
833.640259,426
833.758545,456
833.876831,451
833.995056,453
834.113281,467
834.231628,456
834.349915,456
834.468201,439
834.586426,458
834.704651,478
834.822998,466
834.941162,479
835.059448,455
835.177673,458
835.295959,469
835.414246,471
835.53241,466
835.650635,455
835.768921,463
835.887146,477
836.005371,476
836.123596,484
836.241821,447
836.360046,473
836.478271,460
836.596497,478
836.714722,447
836.832886,464
836.95105,476
837.069336,488
837.1875,472
837.305725,439
837.423889,499
837.542053,466
837.660339,470
837.778503,473
837.896667,462
838.014832,500
838.132996,475
838.25116,478
838.369385,458
838.487488,456
838.605713,477
838.723877,462
838.84198,483
838.960205,458
839.078308,479
839.196472,448
839.314636,466
839.4328,458
839.550964,489
839.669067,476
839.787231,467
839.905396,482
840.023499,461
840.141602,473
840.259766,470
840.377869,473
840.495972,491
840.614136,464
840.732239,463
840.850342,471
840.968445,459
841.086548,462
841.204651,480
841.322754,469
841.440918,472
841.55896,446
841.677002,480
841.795166,466
841.913208,476
842.031311,458
842.149353,458
842.267456,455
842.385498,473
842.503601,453
842.621643,456
842.739746,463
842.857788,466
842.97583,450
843.093933,444
843.211975,455
843.330017,455
843.44812,453
843.566101,464
843.684204,455
843.802246,457
843.920227,455
844.038269,463
844.156311,449
844.274292,469
844.392395,448
844.510376,458
844.628357,461
844.74646,457
844.864441,454
844.982422,477
845.100403,444
845.218384,453
845.336426,466
845.454468,463
845.572449,448
845.69043,445
845.808411,452
845.926453,458
846.044373,467
846.162354,442
846.280396,467
846.398315,474
846.516296,442
846.634216,457
846.752197,453
846.870178,460
846.988098,444
847.106079,457
847.22406,439
847.34198,460
847.4599,448
847.577881,447
847.695801,445
847.813782,448
847.931641,441
848.049561,450
848.167603,454
848.285461,445
848.403381,441
848.521362,441
848.639221,461
848.75708,463
848.875,448
848.99292,434
849.110901,453
849.22876,440
849.34668,461
849.464539,443
849.582458,450
849.700317,445
849.818176,445
849.936096,434
850.053955,452
850.171875,460
850.289673,458
850.407593,440
850.525452,455
850.643311,456
850.761169,449
850.878967,449
850.996887,440
851.114746,432
851.232544,444
851.350403,445
851.468262,458
851.58606,458
851.703979,455
851.821777,445
851.939636,464
852.057434,460
852.175232,426
852.293091,468
852.410889,456
852.528687,451
852.646545,465
852.764343,477
852.88208,460
852.999939,443
853.117676,445
853.235535,458
853.353271,439
853.471069,452
853.588928,458
853.706604,441
853.824402,456
853.9422,455
854.059998,468
854.177734,463
854.295532,460
854.413269,471
854.531006,458
854.648804,464
854.766541,448
854.884277,453
855.002014,468
855.119751,456
855.237549,462
855.355225,468
855.473022,453
855.590698,461
855.708435,465
855.826172,455
855.943848,453
856.061646,453
856.179321,458
856.296997,460
856.414795,466
856.53241,456
856.650085,463
856.767822,461
856.885559,451
857.003174,452
857.120911,474
857.238586,472
857.356201,469
857.473938,454
857.591614,465
857.709351,451
857.826965,460
857.944641,447
858.062317,465
858.179993,452
858.297668,459
858.415283,470
858.532959,464
858.650574,461
858.768188,457
858.885803,460
859.003479,472
859.121094,466
859.23877,444
859.356384,454
859.473999,445
859.591675,457
859.709229,458
859.826843,455
859.944458,457
860.062012,457
860.179626,448
860.297302,462
860.414856,445
860.532471,453
860.650024,464
860.767639,450
860.885193,446
861.002808,471
861.120361,454
861.237976,447
861.35553,452
861.473022,476
861.590698,446
861.708191,455
861.825745,470
861.943298,479
862.060852,467
862.178406,446
862.295959,475
862.413513,466
862.531006,450
862.64856,452
862.766113,449
862.883667,462
863.00116,454
863.118713,453
863.236206,450
863.353699,444
863.471252,456
863.588745,473
863.706177,465
863.82373,458
863.941162,464
864.058716,466
864.176208,447
864.29364,455
864.411194,468
864.528687,456
864.646118,451
864.763611,449
864.881042,456
864.998535,467
865.116028,442
865.233459,456
865.350891,461
865.468384,449
865.585754,452
865.703308,466
865.820679,466
865.938171,465
866.055542,448
866.173035,462
866.290466,461
866.407837,472
866.52533,463
866.6427,474
866.760071,459
866.877563,477
866.994934,446
867.112305,455
867.229736,455
867.347107,464
867.464539,461
867.58197,477
867.699341,459
867.81665,461
867.934082,460
868.051453,462
868.168823,445
868.286194,470
868.403564,453
868.520935,453
868.638306,470
868.755676,451
868.872986,456
868.990295,476
869.107727,463
869.225037,453
869.342346,443
869.459717,463
869.577026,448
869.694336,460
869.811707,459
869.929016,475
870.046326,465
870.163635,475
870.280945,476
870.398254,480
870.515564,464
870.632812,473
870.750183,453
870.867432,450
870.984741,457
871.102051,482
871.219299,462
871.336609,472
871.453918,450
871.571106,450
871.688416,480
871.805664,460
871.922852,462
872.040222,461
872.157471,455
872.274719,451
872.391968,477
872.509155,449
872.626465,467
872.743652,446
872.860962,459
872.978149,452
873.095337,489
873.212646,449
873.329834,453
873.44696,472
873.564209,458
873.681396,478
873.798645,457
873.915894,456
874.03302,473
874.150208,473
874.267456,464
874.384583,464
874.501831,458
874.618958,463
874.736145,479
874.853333,453
874.970459,460
875.087646,478
875.204834,459
875.32196,465
875.439148,457
875.556274,479
875.673401,465
875.790527,453
875.907715,466
876.024841,450
876.141968,442
876.259094,451
876.376282,465
876.493347,476
876.610474,468
876.7276,463
876.844727,464
876.961853,472
877.078918,484
877.195984,444
877.313171,444
877.430237,448
877.547302,474
877.664368,460
877.781433,430
877.898499,476
878.015625,461
878.13269,466
878.249695,439
878.366821,470
878.483887,449
878.600952,474
878.717957,451
878.834961,467
878.952087,466
879.069092,456
879.186157,456
879.303162,472
879.420227,457
879.537231,443
879.654236,458
879.77124,492
879.888306,450
880.005249,467
880.122314,463
880.239319,478
880.356323,449
880.473328,476
880.590271,459
880.707275,470
880.824341,455
880.941284,461
881.058228,469
881.175232,457
881.292236,452
881.40918,466
881.526123,451
881.643066,480
881.760071,478
881.877014,454
881.993958,460
882.11084,459
882.227783,465
882.344727,459
882.46167,452
882.578613,458
882.695618,461
882.812439,461
882.929382,474
883.046326,471
883.163208,452
883.280151,469
883.397034,472
883.513916,455
883.630798,458
883.747742,462
883.864563,450
883.981506,466
884.098389,463
884.21521,444
884.332153,472
884.448975,466
884.565796,476
884.682678,467
884.7995,459
884.916443,480
885.033264,467
885.150085,467
885.266968,454
885.383789,477
885.500671,456
885.617493,476
885.734314,473
885.851196,474
885.967896,467
886.084717,457
886.201599,466
886.318359,456
886.435181,471
886.552002,469
886.668762,454
886.785645,475
886.902344,474
887.019165,460
887.135925,472
887.252747,483
887.369446,466
887.486267,478
887.603027,478
887.719788,464
887.836548,463
887.953247,467
888.070068,475
888.186829,459
888.303528,471
888.420288,466
888.536987,464
888.653687,471
888.770447,484
888.887146,470
889.003967,455
889.120667,470
889.237305,456
889.354065,471
889.470703,453
889.587463,459
889.704163,464
889.820862,459
889.937561,453
890.054199,496
890.170837,474
890.287598,479
890.404236,447
890.520874,465
890.637634,496
890.754211,469
890.87085,462
890.987549,463
891.104187,465
891.220886,460
891.337463,462
891.454102,474
891.57074,464
891.687378,467
891.804077,481
891.920654,474
892.037231,465
892.15387,477
892.270447,475
892.387085,492
892.503723,466
892.6203,461
892.736877,450
892.853516,484
892.970032,489
893.08667,480
893.203186,488
893.319763,477
893.43634,464
893.552917,445
893.669556,478
893.786011,484
893.902588,454
894.019165,464
894.135681,469
894.252197,481
894.368835,483
894.485291,497
894.601868,460
894.718384,497
894.8349,462
894.951355,486
895.067932,470
895.184448,496
895.300964,460
895.417419,477
895.533936,468
895.650452,458
895.766907,484
895.883423,481
895.999878,457
896.116333,495
896.232849,461
896.349304,476
896.465759,462
896.582214,482
896.698669,471
896.815125,483
896.931641,479
897.048035,459
897.164551,500
897.280884,463
897.397339,482
897.513794,471
897.630249,476
897.746582,471
897.863098,471
897.979431,466
898.095886,475
898.212341,473
898.328674,466
898.445129,483
898.561462,491
898.677795,480
898.794312,469
898.910645,485
899.026978,486
899.143433,475
899.259766,471
899.37616,472
899.492493,472
899.608765,478
899.725159,488
899.841553,485
899.957947,469
900.07428,469
900.190552,470
900.306946,462
900.423157,469
900.53949,481
900.655884,455
900.772156,478
900.888489,473
901.004822,470
901.121033,465
901.237366,473
901.353699,479
901.46991,484
901.586304,462
901.702515,481
901.818787,471
901.93512,457
902.051331,464
902.167603,482
902.283875,474
902.400085,484
902.516418,463
902.632629,492
902.74884,467
902.865112,469
902.981384,483
903.097595,483
903.213867,477
903.330017,488
903.446289,478
903.5625,482
903.67865,474
903.794922,474
903.911072,485
904.027344,477
904.143494,480
904.259705,487
904.375916,493
904.492065,474
904.608215,467
904.724426,486
904.840576,486
904.956726,485
905.072876,480
905.189087,471
905.305176,473
905.421387,472
905.537537,483
905.653687,488
905.769775,477
905.885925,488
906.002014,473
906.118164,484
906.234314,492
906.350403,501
906.466492,494
906.582642,504
906.69873,488
906.814758,471
906.930908,480
907.046936,479
907.163086,473
907.279175,483
907.395264,461
907.511353,473
907.62738,494
907.743408,478
907.859497,478
907.975525,502
908.091553,476
908.207703,473
908.32373,472
908.439758,487
908.555786,483
908.671814,485
908.787842,480
908.90387,474
909.019775,485
909.135864,471
909.251892,483
909.367859,479
909.483826,502
909.599854,488
909.715881,474
909.831848,450
909.947815,479
910.063782,485
910.179749,501
910.295776,470
910.411743,465
910.527649,509
910.643616,499
910.759583,473
910.875488,493
910.991455,504
911.107361,500
911.223267,491
911.339294,470
911.4552,482
911.571106,459
911.687073,488
911.802979,466
911.918823,477
912.034729,488
912.150635,475
912.266602,476
912.382446,474
912.498352,480
912.614197,485
912.730103,470
912.846008,491
