792.44574,617
792.56488,597
792.68396,666
792.80304,639
792.92218,609
793.041199,570
793.160339,583
793.279419,598
793.398499,573
793.517578,552
793.636658,542
793.755737,554
793.874817,558
793.993896,545
794.112976,558
794.232056,544
794.351074,543
794.470215,542
794.589233,544
794.708313,559
794.827393,532
794.946411,536
795.065552,546
795.18457,539
795.303589,563
795.422668,522
795.541687,544
795.660767,528
795.779846,541
795.898865,518
796.017883,540
796.136963,528
796.255981,514
796.375061,513
796.49408,524
796.613037,525
796.732117,526
796.851135,507
796.970154,523
797.089233,503
797.208191,522
797.327271,509
797.446228,512
797.565186,507
797.684265,501
797.803223,533
797.922241,508
798.04126,520
798.160278,511
798.279297,524
798.398315,529
798.517273,519
798.636292,515
798.75531,490
798.874268,514
798.993286,502
799.112244,534
799.231323,507
799.350281,526
799.469238,493
799.588257,500
799.707153,495
799.826111,513
799.945129,501
800.064087,516
800.183044,495
800.302063,529
800.421021,491
800.539978,510
800.658936,512
800.777893,526
800.896912,501
801.015747,503
801.134705,498
801.253723,500
801.37262,486
801.491638,513
801.610535,508
801.729492,506
801.84845,500
801.967407,488
802.086243,496
802.205261,496
802.324158,483
802.443115,508
802.562073,523
802.680969,503
802.799927,499
802.918762,495
803.037659,489
803.156677,533
803.275574,503
803.39447,504
803.513428,490
803.632263,511
803.751221,517
803.870117,506
803.989014,493
804.107971,483
804.226746,502
804.345642,500
804.4646,471
804.583496,486
804.702393,489
804.821228,498
804.940125,539
805.059021,480
805.177917,493
805.296814,490
805.415649,516
805.534546,505
805.653442,503
805.772278,486
805.891113,489
806.01001,518
806.128906,494
806.247742,505
806.366577,506
806.485413,506
806.604309,518
806.723145,485
806.84198,500
806.960876,504
807.079712,495
807.198486,513
807.317383,501
807.436218,505
807.554993,491
807.673889,498
807.792725,489
807.91156,485
808.030396,492
808.14917,503
808.268005,490
808.386841,494
808.505676,497
808.624451,494
808.743286,498
808.862122,518
808.980896,500
809.099731,500
809.218506,491
809.337341,507
809.456116,462
809.57489,491
809.693726,496
809.8125,481
809.931274,493
810.050049,486
810.168884,517
810.287659,478
810.406372,491
810.525269,482
810.643982,478
810.762756,482
810.881531,498
811.000305,497
811.11908,501
811.237854,497
811.356567,486
811.475403,487
811.594116,509
811.71283,513
811.831604,493
811.950378,507
812.069153,506
812.187927,514
812.30658,496
812.425415,487
812.544128,497
812.662781,489
812.781616,475
812.900269,483
813.019043,498
813.137756,501
813.256531,481
813.375244,498
813.493896,492
813.612671,501
813.731384,503
813.850037,472
813.96875,480
814.087524,501
814.206238,486
814.324951,486
814.443604,492
814.562256,487
814.68103,507
814.799683,491
814.918335,479
815.037109,488
815.155762,470
815.274475,477
815.393188,449
815.511841,482
815.630554,489
815.749146,490
815.867859,483
815.986572,503
816.105164,494
816.223877,465
816.342529,491
816.461182,473
816.579895,475
816.698486,489
816.817139,491
816.935791,483
817.054504,480
817.173096,518
817.291748,479
817.4104,490
817.529053,492
817.647644,492
817.766235,470
817.884949,471
818.00354,471
818.122192,476
818.240845,475
818.359436,451
818.478088,474
818.59668,478
818.715271,478
818.833923,486
818.952515,476
819.071106,466
819.189758,471
819.30835,471
819.426941,460
819.545532,465
819.664124,467
819.782715,470
819.901306,460
820.019897,458
820.138489,461
820.25708,488
820.375671,455
820.494202,473
820.612732,478
820.731384,466
820.849915,475
820.968506,467
821.087097,463
821.205627,458
821.324158,443
821.442749,475
821.561279,466
821.679871,456
821.798401,458
821.916931,480
822.035461,470
822.154053,487
822.272583,445
822.391174,476
822.509583,448
822.628174,458
822.746704,462
822.865234,467
822.983765,474
823.102295,454
823.220825,447
823.339294,485
823.457825,469
823.576355,461
823.694824,431
823.813354,476
823.931885,451
824.050354,464
824.168884,450
824.287354,468
824.405823,462
824.524353,458
824.642822,459
824.761353,455
824.879822,437
824.998291,466
825.116699,452
825.235291,471
825.353699,453
825.472168,442
825.590637,448
825.709106,461
825.827576,456
825.946045,465
826.064453,481
826.182983,462
826.301392,462
826.4198,472
826.53833,454
826.656738,479
826.775208,455
826.893677,446
827.012024,465
827.130493,456
827.248962,445
827.36731,461
827.485779,474
827.604248,453
827.722595,445
827.841064,447
827.959412,467
828.077942,460
828.196289,451
828.314636,459
828.433105,478
828.551514,477
828.669861,439
828.78833,470
828.906677,439
829.025085,447
829.143433,456
829.261841,456
829.38031,444
829.498657,450
829.617004,461
829.735413,473
829.85376,454
829.972107,453
830.090515,441
830.208862,456
830.327209,456
830.445557,462
830.563904,451
830.682312,448
830.800659,448
830.919006,472
831.037354,452
831.155701,463
831.274048,441
831.392395,469
831.51062,454
831.629028,459
831.747314,452
831.865662,463
831.984009,447
832.102356,443
832.220642,468
832.338928,449
832.457275,448
832.575623,456
832.693909,453
832.812134,461
832.930481,443
833.048828,447
833.167114,450
833.2854,475
833.403687,457
833.521973,461
833.640259,451
833.758545,475
833.876831,457
833.995056,458
834.113281,440
834.231628,475
834.349915,450
834.468201,442
834.586426,441
834.704651,470
834.822998,461
834.941162,461
835.059448,444
835.177673,456
835.295959,450
835.414246,467
835.53241,453
835.650635,453
835.768921,456
835.887146,462
836.005371,460
836.123596,462
836.241821,460
836.360046,456
836.478271,457
836.596497,464
836.714722,448
836.832886,454
836.95105,483
837.069336,461
837.1875,450
837.305725,455
837.423889,472
837.542053,461
837.660339,437
837.778503,471
837.896667,459
838.014832,481
838.132996,454
838.25116,456
838.369385,442
838.487488,462
838.605713,463
838.723877,456
838.84198,462
838.960205,466
839.078308,469
839.196472,455
839.314636,456
839.4328,451
839.550964,439
839.669067,471
839.787231,448
839.905396,449
840.023499,454
840.141602,447
840.259766,442
840.377869,469
840.495972,457
840.614136,454
840.732239,459
840.850342,448
840.968445,458
841.086548,440
841.204651,452
841.322754,456
841.440918,454
841.55896,471
841.677002,456
841.795166,463
841.913208,448
842.031311,463
842.149353,453
842.267456,460
842.385498,467
842.503601,467
842.621643,453
842.739746,468
842.857788,450
842.97583,446
843.093933,454
843.211975,452
843.330017,458
843.44812,447
843.566101,440
843.684204,453
843.802246,459
843.920227,471
844.038269,471
844.156311,466
844.274292,460
844.392395,458
844.510376,444
844.628357,439
844.74646,451
844.864441,464
844.982422,440
845.100403,456
845.218384,469
845.336426,462
845.454468,439
845.572449,451
845.69043,440
845.808411,461
845.926453,452
846.044373,474
846.162354,449
846.280396,470
846.398315,449
846.516296,474
846.634216,471
846.752197,468
846.870178,462
846.988098,463
847.106079,467
847.22406,445
847.34198,446
847.4599,463
847.577881,462
847.695801,447
847.813782,431
847.931641,455
848.049561,456
848.167603,456
848.285461,451
848.403381,462
848.521362,448
848.639221,462
848.75708,461
848.875,471
848.99292,456
849.110901,465
849.22876,460
849.34668,481
849.464539,459
849.582458,472
849.700317,461
849.818176,459
849.936096,444
850.053955,463
850.171875,441
850.289673,459
850.407593,451
850.525452,469
850.643311,446
850.761169,455
850.878967,423
850.996887,447
851.114746,446
851.232544,454
851.350403,464
851.468262,455
851.58606,459
851.703979,462
851.821777,447
851.939636,461
852.057434,454
852.175232,459
852.293091,447
852.410889,471
852.528687,440
852.646545,464
852.764343,479
852.88208,462
852.999939,448
853.117676,482
853.235535,455
853.353271,459
853.471069,443
853.588928,459
853.706604,446
853.824402,466
853.9422,461
854.059998,451
854.177734,454
854.295532,460
854.413269,446
854.531006,462
854.648804,452
854.766541,461
854.884277,448
855.002014,457
855.119751,455
855.237549,467
855.355225,465
855.473022,464
855.590698,450
855.708435,457
855.826172,455
855.943848,473
856.061646,458
856.179321,458
856.296997,461
856.414795,463
856.53241,460
856.650085,460
856.767822,439
856.885559,487
857.003174,437
857.120911,457
857.238586,452
857.356201,473
857.473938,451
857.591614,453
857.709351,452
857.826965,454
857.944641,457
858.062317,451
858.179993,452
858.297668,472
858.415283,450
858.532959,479
858.650574,465
858.768188,479
858.885803,462
859.003479,456
859.121094,444
859.23877,475
859.356384,467
859.473999,462
859.591675,441
859.709229,463
859.826843,465
859.944458,450
860.062012,438
860.179626,429
860.297302,449
860.414856,457
860.532471,452
860.650024,455
860.767639,473
860.885193,461
861.002808,449
861.120361,476
861.237976,454
861.35553,449
861.473022,448
861.590698,451
861.708191,448
861.825745,449
861.943298,461
862.060852,455
862.178406,450
862.295959,478
862.413513,449
862.531006,458
862.64856,442
862.766113,453
862.883667,465
863.00116,442
863.118713,458
863.236206,472
863.353699,446
863.471252,467
863.588745,457
863.706177,445
863.82373,444
863.941162,470
864.058716,468
864.176208,461
864.29364,453
864.411194,448
864.528687,450
864.646118,464
864.763611,430
864.881042,450
864.998535,451
865.116028,433
865.233459,454
865.350891,459
865.468384,436
865.585754,439
865.703308,451
865.820679,477
865.938171,446
866.055542,461
866.173035,437
866.290466,477
866.407837,470
866.52533,450
866.6427,458
866.760071,455
866.877563,455
866.994934,463
867.112305,435
867.229736,451
867.347107,455
867.464539,459
867.58197,438
867.699341,482
867.81665,450
867.934082,441
868.051453,471
868.168823,458
868.286194,456
868.403564,461
868.520935,446
868.638306,465
868.755676,451
868.872986,468
868.990295,451
869.107727,461
869.225037,461
869.342346,464
869.459717,443
869.577026,450
869.694336,454
869.811707,474
869.929016,469
870.046326,457
870.163635,465
870.280945,473
870.398254,465
870.515564,449
870.632812,459
870.750183,453
870.867432,471
870.984741,468
871.102051,470
871.219299,452
871.336609,449
871.453918,471
871.571106,459
871.688416,451
871.805664,462
871.922852,470
872.040222,454
872.157471,479
872.274719,467
872.391968,463
872.509155,457
872.626465,458
872.743652,466
872.860962,482
872.978149,463
873.095337,471
873.212646,456
873.329834,480
873.44696,456
873.564209,453
873.681396,477
873.798645,468
873.915894,441
874.03302,466
874.150208,462
874.267456,470
874.384583,450
874.501831,476
874.618958,462
874.736145,441
874.853333,441
874.970459,461
875.087646,440
875.204834,455
875.32196,456
875.439148,456
875.556274,442
875.673401,465
875.790527,455
875.907715,454
876.024841,460
876.141968,455
876.259094,453
876.376282,461
876.493347,451
876.610474,453
876.7276,460
876.844727,454
876.961853,459
877.078918,433
877.195984,441
877.313171,445
877.430237,463
877.547302,470
877.664368,465
877.781433,449
877.898499,459
878.015625,467
878.13269,437
878.249695,482
878.366821,451
878.483887,467
878.600952,450
878.717957,443
878.834961,428
878.952087,436
879.069092,441
879.186157,449
879.303162,471
879.420227,466
879.537231,452
879.654236,428
879.77124,457
879.888306,459
880.005249,442
880.122314,460
880.239319,449
880.356323,471
880.473328,444
880.590271,462
880.707275,438
880.824341,441
880.941284,472
881.058228,462
881.175232,448
881.292236,462
881.40918,470
881.526123,462
881.643066,448
881.760071,460
881.877014,442
881.993958,481
882.11084,459
882.227783,465
882.344727,450
882.46167,471
882.578613,461
882.695618,462
882.812439,453
882.929382,463
883.046326,481
883.163208,443
883.280151,439
883.397034,454
883.513916,454
883.630798,452
883.747742,430
883.864563,461
883.981506,453
884.098389,462
884.21521,459
884.332153,480
884.448975,454
884.565796,480
884.682678,457
884.7995,476
884.916443,459
885.033264,469
885.150085,476
885.266968,480
885.383789,474
885.500671,471
885.617493,481
885.734314,459
885.851196,471
885.967896,476
886.084717,461
886.201599,483
886.318359,452
886.435181,494
886.552002,482
886.668762,491
886.785645,467
886.902344,482
887.019165,466
887.135925,460
887.252747,461
887.369446,477
887.486267,464
887.603027,451
887.719788,472
887.836548,465
887.953247,465
888.070068,493
888.186829,468
888.303528,470
888.420288,467
888.536987,455
888.653687,447
888.770447,464
888.887146,476
889.003967,485
889.120667,452
889.237305,479
889.354065,455
889.470703,456
889.587463,456
889.704163,469
889.820862,474
889.937561,455
890.054199,450
890.170837,449
890.287598,449
890.404236,471
890.520874,453
890.637634,474
890.754211,444
890.87085,462
890.987549,470
891.104187,450
891.220886,466
891.337463,463
891.454102,461
891.57074,473
891.687378,442
891.804077,462
891.920654,455
892.037231,454
892.15387,446
892.270447,468
892.387085,446
892.503723,480
892.6203,469
892.736877,449
892.853516,464
892.970032,468
893.08667,463
893.203186,477
893.319763,460
893.43634,456
893.552917,453
893.669556,450
893.786011,453
893.902588,471
894.019165,445
894.135681,452
894.252197,472
894.368835,471
894.485291,463
894.601868,476
894.718384,450
894.8349,467
894.951355,455
895.067932,466
895.184448,463
895.300964,466
895.417419,467
895.533936,468
895.650452,462
895.766907,457
895.883423,458
895.999878,445
896.116333,439
896.232849,475
896.349304,470
896.465759,468
896.582214,451
896.698669,454
896.815125,464
896.931641,458
897.048035,452
897.164551,453
897.280884,458
897.397339,467
897.513794,451
897.630249,472
897.746582,475
897.863098,470
897.979431,461
898.095886,470
898.212341,477
898.328674,459
898.445129,475
898.561462,473
898.677795,451
898.794312,447
898.910645,451
899.026978,461
899.143433,480
899.259766,459
899.37616,446
899.492493,451
899.608765,444
899.725159,489
899.841553,449
899.957947,454
900.07428,470
900.190552,460
900.306946,471
900.423157,458
900.53949,477
900.655884,451
900.772156,472
900.888489,484
901.004822,469
901.121033,482
901.237366,472
901.353699,471
901.46991,460
901.586304,465
901.702515,460
901.818787,465
901.93512,474
902.051331,456
902.167603,474
902.283875,467
902.400085,479
902.516418,489
902.632629,470
902.74884,471
902.865112,495
902.981384,487
903.097595,479
903.213867,517
903.330017,455
903.446289,485
903.5625,460
903.67865,463
903.794922,467
903.911072,485
904.027344,453
904.143494,476
904.259705,458
904.375916,463
904.492065,464
904.608215,489
904.724426,460
904.840576,480
904.956726,472
905.072876,453
905.189087,467
905.305176,487
905.421387,462
905.537537,490
905.653687,467
905.769775,483
905.885925,451
906.002014,464
906.118164,466
906.234314,447
906.350403,482
906.466492,476
906.582642,463
906.69873,459
906.814758,475
906.930908,461
907.046936,466
907.163086,467
907.279175,473
907.395264,450
907.511353,467
907.62738,453
907.743408,466
907.859497,477
907.975525,456
908.091553,473
908.207703,459
908.32373,476
908.439758,454
908.555786,479
908.671814,467
908.787842,466
908.90387,466
909.019775,474
909.135864,452
909.251892,464
909.367859,471
909.483826,471
909.599854,478
909.715881,470
909.831848,465
909.947815,459
910.063782,480
910.179749,491
910.295776,466
910.411743,467
910.527649,474
910.643616,482
910.759583,449
910.875488,486
910.991455,464
911.107361,476
911.223267,466
911.339294,468
911.4552,452
911.571106,475
911.687073,463
911.802979,478
911.918823,462
912.034729,470
912.150635,474
912.266602,475
912.382446,464
912.498352,473
912.614197,470
912.730103,487
912.846008,485
792.44574,606
792.56488,637
792.68396,652
792.80304,653
792.92218,606
793.041199,579
793.160339,542
793.279419,612
793.398499,577
793.517578,556
793.636658,560
793.755737,559
793.874817,553
793.993896,585
794.112976,576
794.232056,533
794.351074,546
794.470215,540
794.589233,545
794.708313,541
794.827393,538
794.946411,556
795.065552,534
795.18457,525
795.303589,542
795.422668,520
795.541687,526
795.660767,531
795.779846,525
795.898865,526
796.017883,523
796.136963,518
796.255981,542
796.375061,524
796.49408,531
796.613037,523
796.732117,524
796.851135,534
796.970154,510
797.089233,515
797.208191,515
797.327271,518
797.446228,504
797.565186,515
797.684265,527
797.803223,517
797.922241,532
798.04126,515
798.160278,504
798.279297,504
798.398315,500
798.517273,488
798.636292,501
798.75531,535
798.874268,514
798.993286,508
799.112244,504
799.231323,488
799.350281,492
799.469238,509
799.588257,517
799.707153,493
799.826111,518
799.945129,507
800.064087,520
800.183044,506
800.302063,507
800.421021,504
800.539978,500
800.658936,489
800.777893,511
800.896912,494
801.015747,500
801.134705,489
801.253723,501
801.37262,508
801.491638,501
801.610535,515
801.729492,491
801.84845,496
801.967407,522
802.086243,500
802.205261,506
802.324158,469
802.443115,511
802.562073,497
802.680969,510
802.799927,502
802.918762,489
803.037659,513
803.156677,500
803.275574,516
803.39447,500
803.513428,488
803.632263,526
803.751221,501
803.870117,516
803.989014,511
804.107971,502
804.226746,498
804.345642,496
804.4646,521
804.583496,533
804.702393,509
804.821228,499
804.940125,498
805.059021,501
805.177917,510
805.296814,499
805.415649,505
805.534546,517
805.653442,498
805.772278,503
805.891113,493
806.01001,506
806.128906,503
806.247742,498
806.366577,495
806.485413,473
806.604309,494
806.723145,505
806.84198,469
806.960876,509
807.079712,511
807.198486,482
807.317383,479
807.436218,496
807.554993,508
807.673889,489
807.792725,491
807.91156,476
808.030396,510
808.14917,516
808.268005,507
808.386841,493
808.505676,494
808.624451,488
808.743286,486
808.862122,478
808.980896,495
809.099731,507
809.218506,485
809.337341,518
809.456116,483
809.57489,491
809.693726,489
809.8125,493
809.931274,490
810.050049,488
810.168884,490
810.287659,496
810.406372,504
810.525269,503
810.643982,499
810.762756,498
810.881531,487
811.000305,502
811.11908,478
811.237854,508
811.356567,512
811.475403,515
811.594116,459
811.71283,484
811.831604,494
811.950378,495
812.069153,503
812.187927,511
812.30658,492
812.425415,485
812.544128,508
812.662781,495
812.781616,490
812.900269,491
813.019043,501
813.137756,472
813.256531,519
813.375244,498
813.493896,513
813.612671,480
813.731384,512
813.850037,493
813.96875,491
814.087524,484
814.206238,494
814.324951,482
814.443604,475
814.562256,511
814.68103,492
814.799683,487
814.918335,487
815.037109,491
815.155762,491
815.274475,502
815.393188,489
815.511841,502
815.630554,495
815.749146,471
815.867859,473
815.986572,482
816.105164,498
816.223877,514
816.342529,483
816.461182,494
816.579895,480
816.698486,520
816.817139,482
816.935791,486
817.054504,484
817.173096,477
817.291748,466
817.4104,493
817.529053,495
817.647644,480
817.766235,474
817.884949,503
818.00354,483
818.122192,483
818.240845,477
818.359436,499
818.478088,497
818.59668,480
818.715271,456
818.833923,478
818.952515,485
819.071106,493
819.189758,455
819.30835,465
819.426941,475
819.545532,488
819.664124,472
819.782715,464
819.901306,471
820.019897,481
820.138489,452
820.25708,468
820.375671,469
820.494202,467
820.612732,470
820.731384,459
820.849915,461
820.968506,461
821.087097,464
821.205627,470
821.324158,476
821.442749,479
821.561279,470
821.679871,465
821.798401,470
821.916931,464
822.035461,479
822.154053,463
822.272583,470
822.391174,470
822.509583,472
822.628174,453
822.746704,461
822.865234,464
822.983765,458
823.102295,456
823.220825,443
823.339294,471
823.457825,464
823.576355,462
823.694824,459
823.813354,475
823.931885,468
824.050354,471
824.168884,459
824.287354,460
824.405823,463
824.524353,478
824.642822,470
824.761353,478
824.879822,473
824.998291,467
825.116699,459
825.235291,475
825.353699,457
825.472168,467
825.590637,446
825.709106,478
825.827576,452
825.946045,439
826.064453,443
826.182983,437
826.301392,461
826.4198,465
826.53833,437
826.656738,451
826.775208,448
826.893677,462
827.012024,456
827.130493,443
827.248962,455
827.36731,456
827.485779,459
827.604248,463
827.722595,456
827.841064,451
827.959412,466
828.077942,460
828.196289,455
828.314636,440
828.433105,464
828.551514,471
828.669861,440
828.78833,454
828.906677,440
829.025085,470
829.143433,447
829.261841,450
829.38031,477
829.498657,458
829.617004,439
829.735413,461
829.85376,456
829.972107,458
830.090515,450
830.208862,450
830.327209,467
830.445557,446
830.563904,448
830.682312,447
830.800659,461
830.919006,464
831.037354,467
831.155701,458
831.274048,470
831.392395,462
831.51062,458
831.629028,466
831.747314,468
831.865662,441
831.984009,461
832.102356,459
832.220642,452
832.338928,461
832.457275,449
832.575623,450
832.693909,451
832.812134,456
832.930481,438
833.048828,466
833.167114,473
833.2854,463
833.403687,458
833.521973,466
833.640259,442
833.758545,465
833.876831,448
833.995056,464
834.113281,441
834.231628,468
834.349915,447
834.468201,456
834.586426,456
834.704651,461
834.822998,463
834.941162,469
835.059448,451
835.177673,476
835.295959,451
835.414246,462
835.53241,455
835.650635,458
835.768921,475
835.887146,456
836.005371,452
836.123596,466
836.241821,449
836.360046,445
836.478271,448
836.596497,456
836.714722,456
836.832886,460
836.95105,478
837.069336,457
837.1875,448
837.305725,454
837.423889,445
837.542053,445
837.660339,448
837.778503,445
837.896667,433
838.014832,441
838.132996,438
838.25116,458
838.369385,459
838.487488,447
838.605713,447
838.723877,457
838.84198,452
838.960205,479
839.078308,442
839.196472,463
839.314636,454
839.4328,463
839.550964,462
839.669067,460
839.787231,451
839.905396,473
840.023499,459
840.141602,457
840.259766,465
840.377869,437
840.495972,448
840.614136,455
840.732239,463
840.850342,458
840.968445,471
841.086548,473
841.204651,455
841.322754,472
841.440918,464
841.55896,455
841.677002,442
841.795166,470
841.913208,452
842.031311,466
842.149353,448
842.267456,457
842.385498,460
842.503601,456
842.621643,458
842.739746,461
842.857788,461
842.97583,461
843.093933,454
843.211975,459
843.330017,440
843.44812,470
843.566101,444
843.684204,470
843.802246,439
843.920227,454
844.038269,464
844.156311,472
844.274292,444
844.392395,452
844.510376,471
844.628357,461
844.74646,445
844.864441,453
844.982422,442
845.100403,454
845.218384,473
845.336426,469
845.454468,456
845.572449,457
845.69043,452
845.808411,459
845.926453,453
846.044373,450
846.162354,445
846.280396,457
846.398315,466
846.516296,461
846.634216,438
846.752197,450
846.870178,460
846.988098,468
847.106079,461
847.22406,460
847.34198,468
847.4599,442
847.577881,446
847.695801,464
847.813782,464
847.931641,441
848.049561,467
848.167603,471
848.285461,469
848.403381,459
848.521362,455
848.639221,459
848.75708,452
848.875,446
848.99292,473
849.110901,466
849.22876,456
849.34668,474
849.464539,451
849.582458,447
849.700317,436
849.818176,451
849.936096,446
850.053955,473
850.171875,461
850.289673,466
850.407593,464
850.525452,454
850.643311,460
850.761169,463
850.878967,473
850.996887,471
851.114746,481
851.232544,463
851.350403,462
851.468262,462
851.58606,455
851.703979,457
851.821777,459
851.939636,439
852.057434,470
852.175232,471
852.293091,459
852.410889,486
852.528687,465
852.646545,457
852.764343,456
852.88208,482
852.999939,460
853.117676,444
853.235535,455
853.353271,446
853.471069,452
853.588928,470
853.706604,457
853.824402,459
853.9422,446
854.059998,451
854.177734,441
854.295532,450
854.413269,456
854.531006,450
854.648804,453
854.766541,460
854.884277,453
855.002014,457
855.119751,461
855.237549,471
855.355225,462
855.473022,458
855.590698,465
855.708435,465
855.826172,462
855.943848,463
856.061646,472
856.179321,464
856.296997,436
856.414795,465
856.53241,461
856.650085,457
856.767822,473
856.885559,453
857.003174,459
857.120911,457
857.238586,465
857.356201,476
857.473938,471
857.591614,464
857.709351,444
857.826965,478
857.944641,450
858.062317,438
858.179993,453
858.297668,471
858.415283,460
858.532959,441
858.650574,452
858.768188,463
858.885803,469
859.003479,469
859.121094,464
859.23877,462
859.356384,460
859.473999,450
859.591675,469
859.709229,452
859.826843,465
859.944458,454
860.062012,471
860.179626,443
860.297302,443
860.414856,466
860.532471,455
860.650024,459
860.767639,443
860.885193,475
861.002808,447
861.120361,438
861.237976,458
861.35553,444
861.473022,459
861.590698,456
861.708191,468
861.825745,475
861.943298,452
862.060852,444
862.178406,461
862.295959,447
862.413513,443
862.531006,473
862.64856,451
862.766113,456
862.883667,473
863.00116,442
863.118713,433
863.236206,458
863.353699,453
863.471252,451
863.588745,433
863.706177,468
863.82373,453
863.941162,457
864.058716,446
864.176208,465
864.29364,474
864.411194,453
864.528687,461
864.646118,461
864.763611,470
864.881042,456
864.998535,440
865.116028,463
865.233459,443
865.350891,450
865.468384,442
865.585754,458
865.703308,452
865.820679,460
865.938171,444
866.055542,448
866.173035,450
866.290466,445
866.407837,470
866.52533,461
866.6427,449
866.760071,466
866.877563,480
866.994934,460
867.112305,452
867.229736,463
867.347107,455
867.464539,469
867.58197,453
867.699341,465
867.81665,457
867.934082,472
868.051453,461
868.168823,462
868.286194,459
868.403564,460
868.520935,468
868.638306,449
868.755676,465
868.872986,463
868.990295,464
869.107727,461
869.225037,447
869.342346,448
869.459717,456
869.577026,474
869.694336,469
869.811707,456
869.929016,467
870.046326,457
870.163635,439
870.280945,462
870.398254,456
870.515564,467
870.632812,451
870.750183,447
870.867432,456
870.984741,458
871.102051,450
871.219299,461
871.336609,456
871.453918,463
871.571106,467
871.688416,460
871.805664,465
871.922852,448
872.040222,461
872.157471,463
872.274719,468
872.391968,456
872.509155,459
872.626465,463
872.743652,469
872.860962,460
872.978149,461
873.095337,469
873.212646,475
873.329834,441
873.44696,459
873.564209,461
873.681396,461
873.798645,457
873.915894,456
874.03302,464
874.150208,445
874.267456,464
874.384583,451
874.501831,453
874.618958,472
874.736145,466
874.853333,479
874.970459,450
875.087646,451
875.204834,457
875.32196,459
875.439148,468
875.556274,477
875.673401,448
875.790527,459
875.907715,468
876.024841,448
876.141968,478
876.259094,455
876.376282,477
876.493347,464
876.610474,468
876.7276,462
876.844727,454
876.961853,463
877.078918,475
877.195984,434
877.313171,482
877.430237,445
877.547302,461
877.664368,466
877.781433,477
877.898499,462
878.015625,461
878.13269,466
878.249695,463
878.366821,451
878.483887,458
878.600952,442
878.717957,457
878.834961,465
878.952087,460
879.069092,449
879.186157,443
879.303162,454
879.420227,453
879.537231,464
879.654236,457
879.77124,462
879.888306,456
880.005249,451
880.122314,469
880.239319,454
880.356323,457
880.473328,462
880.590271,476
880.707275,454
880.824341,446
880.941284,466
881.058228,466
881.175232,454
881.292236,457
881.40918,458
881.526123,471
881.643066,450
881.760071,468
881.877014,462
881.993958,451
882.11084,445
882.227783,469
882.344727,452
882.46167,466
882.578613,448
882.695618,448
882.812439,464
882.929382,468
883.046326,453
883.163208,465
883.280151,465
883.397034,459
883.513916,465
883.630798,473
883.747742,458
883.864563,470
883.981506,452
884.098389,473
884.21521,436
884.332153,451
884.448975,455
884.565796,464
884.682678,466
884.7995,465
884.916443,469
885.033264,487
885.150085,476
885.266968,486
885.383789,467
885.500671,487
885.617493,480
885.734314,492
885.851196,496
885.967896,473
886.084717,481
886.201599,476
886.318359,482
886.435181,483
886.552002,485
886.668762,477
886.785645,495
886.902344,476
887.019165,478
887.135925,449
887.252747,478
887.369446,482
887.486267,467
887.603027,474
887.719788,469
887.836548,471
887.953247,451
888.070068,480
888.186829,450
888.303528,474
888.420288,463
888.536987,473
888.653687,454
888.770447,463
888.887146,451
889.003967,467
889.120667,445
889.237305,466
889.354065,464
889.470703,469
889.587463,457
889.704163,501
889.820862,451
889.937561,441
890.054199,458
890.170837,463
890.287598,458
890.404236,480
890.520874,460
890.637634,456
890.754211,450
890.87085,472
890.987549,470
891.104187,462
891.220886,454
891.337463,449
891.454102,465
891.57074,475
891.687378,444
891.804077,453
891.920654,469
892.037231,466
892.15387,454
892.270447,478
892.387085,476
892.503723,456
892.6203,474
892.736877,456
892.853516,469
892.970032,473
893.08667,468
893.203186,484
893.319763,449
893.43634,474
893.552917,465
893.669556,445
893.786011,459
893.902588,458
894.019165,461
894.135681,465
894.252197,451
894.368835,480
894.485291,475
894.601868,464
894.718384,464
894.8349,478
894.951355,450
895.067932,451
895.184448,467
895.300964,462
895.417419,478
895.533936,476
895.650452,467
895.766907,469
895.883423,448
895.999878,464
896.116333,463
896.232849,478
896.349304,459
896.465759,468
896.582214,457
896.698669,456
896.815125,456
896.931641,469
897.048035,461
897.164551,472
897.280884,465
897.397339,457
897.513794,449
897.630249,451
897.746582,491
897.863098,466
897.979431,476
898.095886,478
898.212341,460
898.328674,472
898.445129,447
898.561462,484
898.677795,460
898.794312,457
898.910645,442
899.026978,464
899.143433,451
899.259766,468
899.37616,447
899.492493,470
899.608765,457
899.725159,464
899.841553,438
899.957947,473
900.07428,453
900.190552,458
900.306946,471
900.423157,482
900.53949,457
900.655884,459
900.772156,465
900.888489,462
901.004822,471
901.121033,474
901.237366,470
901.353699,469
901.46991,458
901.586304,478
901.702515,474
901.818787,479
901.93512,452
902.051331,450
902.167603,471
902.283875,478
902.400085,477
902.516418,481
902.632629,465
902.74884,464
902.865112,470
902.981384,475
903.097595,471
903.213867,484
903.330017,470
903.446289,453
903.5625,458
903.67865,462
903.794922,477
903.911072,485
904.027344,469
904.143494,464
904.259705,465
904.375916,478
904.492065,455
904.608215,470
904.724426,469
904.840576,460
904.956726,467
905.072876,463
905.189087,459
905.305176,487
905.421387,447
905.537537,479
905.653687,472
905.769775,472
905.885925,460
906.002014,472
906.118164,463
906.234314,460
906.350403,483
906.466492,469
906.582642,460
906.69873,462
906.814758,481
906.930908,470
907.046936,465
907.163086,474
907.279175,480
907.395264,473
907.511353,470
907.62738,475
907.743408,464
907.859497,473
907.975525,470
908.091553,457
908.207703,452
908.32373,487
908.439758,476
908.555786,484
908.671814,480
908.787842,473
908.90387,453
909.019775,482
909.135864,478
909.251892,452
909.367859,482
909.483826,473
909.599854,466
909.715881,463
909.831848,471
909.947815,478
910.063782,449
910.179749,475
910.295776,463
910.411743,478
910.527649,487
910.643616,443
910.759583,470
910.875488,472
910.991455,455
911.107361,477
911.223267,496
911.339294,483
911.4552,460
911.571106,459
911.687073,470
911.802979,483
911.918823,492
912.034729,470
912.150635,455
912.266602,481
912.382446,463
912.498352,473
912.614197,443
912.730103,486
912.846008,454
792.44574,605
792.56488,641
792.68396,680
792.80304,628
792.92218,597
793.041199,570
793.160339,581
793.279419,584
793.398499,599
793.517578,550
793.636658,531
793.755737,551
793.874817,581
793.993896,583
794.112976,556
794.232056,552
794.351074,570
794.470215,554
794.589233,554
794.708313,553
794.827393,533
794.946411,539
795.065552,541
795.18457,541
795.303589,575
795.422668,535
795.541687,549
795.660767,538
795.779846,519
795.898865,554
796.017883,535
796.136963,542
796.255981,543
796.375061,518
796.49408,549
796.613037,527
796.732117,508
796.851135,518
796.970154,512
797.089233,512
797.208191,518
797.327271,509
797.446228,513
797.565186,516
797.684265,528
797.803223,512
797.922241,522
798.04126,513
798.160278,539
798.279297,518
798.398315,510
798.517273,524
798.636292,524
798.75531,480
798.874268,515
798.993286,482
799.112244,523
799.231323,488
799.350281,511
799.469238,516
799.588257,516
799.707153,497
799.826111,509
799.945129,506
800.064087,523
800.183044,512
800.302063,513
800.421021,503
800.539978,502
800.658936,514
800.777893,517
800.896912,513
801.015747,517
801.134705,508
801.253723,501
801.37262,487
801.491638,507
801.610535,501
801.729492,512
801.84845,494
801.967407,497
802.086243,488
802.205261,506
802.324158,500
802.443115,490
802.562073,519
802.680969,507
802.799927,498
802.918762,507
803.037659,511
803.156677,491
803.275574,507
803.39447,511
803.513428,499
803.632263,525
803.751221,497
803.870117,490
803.989014,504
804.107971,494
804.226746,519
804.345642,495
804.4646,491
804.583496,498
804.702393,479
804.821228,502
804.940125,495
805.059021,506
805.177917,497
805.296814,496
805.415649,495
805.534546,497
805.653442,483
805.772278,495
805.891113,517
806.01001,500
806.128906,498
806.247742,502
806.366577,515
806.485413,497
806.604309,492
806.723145,489
806.84198,494
806.960876,504
807.079712,503
807.198486,495
807.317383,499
807.436218,500
807.554993,510
807.673889,496
807.792725,507
807.91156,490
808.030396,501
808.14917,511
808.268005,503
808.386841,505
808.505676,481
808.624451,530
808.743286,493
808.862122,514
808.980896,496
809.099731,502
809.218506,492
809.337341,491
809.456116,515
809.57489,515
809.693726,485
809.8125,495
809.931274,494
810.050049,508
810.168884,485
810.287659,487
810.406372,492
810.525269,497
810.643982,491
810.762756,503
810.881531,478
811.000305,514
811.11908,507
811.237854,505
811.356567,488
811.475403,516
811.594116,468
811.71283,514
811.831604,508
811.950378,505
812.069153,519
812.187927,502
812.30658,482
812.425415,501
812.544128,496
812.662781,498
812.781616,499
812.900269,497
813.019043,510
813.137756,512
813.256531,476
813.375244,495
813.493896,478
813.612671,494
813.731384,476
813.850037,487
813.96875,508
814.087524,491
814.206238,506
814.324951,494
814.443604,485
814.562256,477
814.68103,508
814.799683,484
814.918335,492
815.037109,496
815.155762,496
815.274475,506
815.393188,502
815.511841,505
815.630554,485
815.749146,484
815.867859,487
815.986572,501
816.105164,497
816.223877,476
816.342529,467
816.461182,466
816.579895,494
816.698486,490
816.817139,495
816.935791,482
817.054504,497
817.173096,506
817.291748,494
817.4104,486
817.529053,480
817.647644,497
817.766235,470
817.884949,468
818.00354,483
818.122192,475
818.240845,469
818.359436,501
818.478088,483
818.59668,479
818.715271,478
818.833923,486
818.952515,459
819.071106,486
819.189758,483
819.30835,486
819.426941,473
819.545532,469
819.664124,468
819.782715,497
819.901306,470
820.019897,459
820.138489,476
820.25708,465
820.375671,474
820.494202,467
820.612732,487
820.731384,471
820.849915,468
820.968506,479
821.087097,450
821.205627,472
821.324158,471
821.442749,482
821.561279,484
821.679871,464
821.798401,470
821.916931,464
822.035461,469
822.154053,473
822.272583,450
822.391174,484
822.509583,473
822.628174,454
822.746704,468
822.865234,470
822.983765,445
823.102295,472
823.220825,450
823.339294,461
823.457825,470
823.576355,479
823.694824,472
823.813354,454
823.931885,444
824.050354,454
824.168884,465
824.287354,472
824.405823,464
824.524353,477
824.642822,463
824.761353,485
824.879822,467
824.998291,472
825.116699,474
825.235291,464
825.353699,469
825.472168,475
825.590637,480
825.709106,476
825.827576,460
825.946045,492
826.064453,461
826.182983,471
826.301392,463
826.4198,448
826.53833,490
826.656738,456
826.775208,471
826.893677,455
827.012024,456
827.130493,463
827.248962,463
827.36731,446
827.485779,479
827.604248,456
827.722595,460
827.841064,489
827.959412,460
828.077942,460
828.196289,454
828.314636,458
828.433105,445
828.551514,477
828.669861,445
828.78833,451
828.906677,453
829.025085,446
829.143433,456
829.261841,444
829.38031,440
829.498657,470
829.617004,463
829.735413,452
829.85376,456
829.972107,461
830.090515,457
830.208862,452
830.327209,457
830.445557,444
830.563904,452
830.682312,456
830.800659,457
830.919006,464
831.037354,455
831.155701,472
831.274048,465
831.392395,451
831.51062,465
831.629028,463
831.747314,447
831.865662,458
831.984009,442
832.102356,465
832.220642,436
832.338928,450
832.457275,465
832.575623,462
832.693909,453
832.812134,471
832.930481,443
833.048828,451
833.167114,457
833.2854,471
833.403687,439
833.521973,480
833.640259,457
833.758545,461
833.876831,458
833.995056,464
834.113281,461
834.231628,466
834.349915,454
834.468201,449
834.586426,461
834.704651,458
834.822998,461
834.941162,465
835.059448,458
835.177673,451
835.295959,467
835.414246,450
835.53241,451
835.650635,441
835.768921,455
835.887146,466
836.005371,433
836.123596,462
836.241821,449
836.360046,453
836.478271,448
836.596497,477
836.714722,463
836.832886,458
836.95105,438
837.069336,476
837.1875,449
837.305725,457
837.423889,455
837.542053,469
837.660339,460
837.778503,461
837.896667,456
838.014832,449
838.132996,464
838.25116,457
838.369385,447
838.487488,449
838.605713,463
838.723877,442
838.84198,457
838.960205,468
839.078308,464
839.196472,444
839.314636,448
839.4328,443
839.550964,466
839.669067,470
839.787231,471
839.905396,451
840.023499,453
840.141602,460
840.259766,471
840.377869,458
840.495972,461
840.614136,447
840.732239,463
840.850342,472
840.968445,466
841.086548,459
841.204651,450
841.322754,468
841.440918,456
841.55896,455
841.677002,459
841.795166,473
841.913208,449
842.031311,466
842.149353,454
842.267456,431
842.385498,454
842.503601,439
842.621643,449
842.739746,455
842.857788,445
842.97583,452
843.093933,449
843.211975,466
843.330017,446
843.44812,476
843.566101,457
843.684204,477
843.802246,458
843.920227,465
844.038269,460
844.156311,431
844.274292,473
844.392395,468
844.510376,468
844.628357,449
844.74646,438
844.864441,459
844.982422,453
845.100403,453
845.218384,453
845.336426,460
845.454468,450
845.572449,456
845.69043,439
845.808411,461
845.926453,465
846.044373,452
846.162354,454
846.280396,471
846.398315,451
846.516296,453
846.634216,462
846.752197,455
846.870178,467
846.988098,441
847.106079,460
847.22406,459
847.34198,464
847.4599,472
847.577881,447
847.695801,464
847.813782,452
847.931641,465
848.049561,434
848.167603,457
848.285461,470
848.403381,468
848.521362,450
848.639221,478
848.75708,445
848.875,446
848.99292,459
849.110901,459
849.22876,444
849.34668,454
849.464539,445
849.582458,474
849.700317,461
849.818176,468
849.936096,457
850.053955,452
850.171875,471
850.289673,492
850.407593,482
850.525452,451
850.643311,460
850.761169,466
850.878967,474
850.996887,457
851.114746,450
851.232544,493
851.350403,472
851.468262,451
851.58606,478
851.703979,467
851.821777,465
851.939636,480
852.057434,450
852.175232,454
852.293091,462
852.410889,454
852.528687,453
852.646545,462
852.764343,455
852.88208,461
852.999939,454
853.117676,468
853.235535,453
853.353271,471
853.471069,445
853.588928,447
853.706604,487
853.824402,458
853.9422,450
854.059998,464
854.177734,445
854.295532,467
854.413269,455
854.531006,452
854.648804,473
854.766541,447
854.884277,454
855.002014,452
855.119751,456
855.237549,473
855.355225,468
855.473022,441
855.590698,456
855.708435,455
855.826172,465
855.943848,457
856.061646,442
856.179321,453
856.296997,441
856.414795,464
856.53241,454
856.650085,453
856.767822,478
856.885559,463
857.003174,455
857.120911,454
857.238586,473
857.356201,465
857.473938,453
857.591614,465
857.709351,464
857.826965,445
857.944641,454
858.062317,465
858.179993,461
858.297668,458
858.415283,465
858.532959,457
858.650574,457
858.768188,460
858.885803,460
859.003479,465
859.121094,451
859.23877,456
859.356384,470
859.473999,454
859.591675,478
859.709229,461
859.826843,448
859.944458,465
860.062012,436
860.179626,478
860.297302,455
860.414856,442
860.532471,434
860.650024,467
860.767639,453
860.885193,471
861.002808,451
861.120361,456
861.237976,444
861.35553,468
861.473022,447
861.590698,461
861.708191,454
861.825745,466
861.943298,447
862.060852,467
862.178406,446
862.295959,452
862.413513,443
862.531006,443
862.64856,462
862.766113,457
862.883667,455
863.00116,471
863.118713,439
863.236206,462
863.353699,458
863.471252,459
863.588745,473
863.706177,466
863.82373,447
863.941162,447
864.058716,448
864.176208,451
864.29364,456
864.411194,449
864.528687,438
864.646118,460
864.763611,462
864.881042,468
864.998535,470
865.116028,464
865.233459,446
865.350891,447
865.468384,454
865.585754,455
865.703308,462
865.820679,466
865.938171,455
866.055542,468
866.173035,449
866.290466,469
866.407837,442
866.52533,472
866.6427,434
866.760071,468
866.877563,456
866.994934,459
867.112305,472
867.229736,465
867.347107,467
867.464539,453
867.58197,447
867.699341,443
867.81665,457
867.934082,456
868.051453,456
868.168823,463
868.286194,427
868.403564,473
868.520935,455
868.638306,471
868.755676,461
868.872986,474
868.990295,470
869.107727,449
869.225037,455
869.342346,472
869.459717,466
869.577026,467
869.694336,447
869.811707,463
869.929016,477
870.046326,461
870.163635,464
870.280945,471
870.398254,450
870.515564,461
870.632812,469
870.750183,482
870.867432,464
870.984741,452
871.102051,472
871.219299,457
871.336609,466
871.453918,464
871.571106,473
871.688416,488
871.805664,461
871.922852,491
872.040222,451
872.157471,470
872.274719,475
872.391968,472
872.509155,470
872.626465,466
872.743652,459
872.860962,464
872.978149,446
873.095337,442
873.212646,466
873.329834,448
873.44696,463
873.564209,458
873.681396,466
873.798645,443
873.915894,466
874.03302,458
874.150208,465
874.267456,473
874.384583,441
874.501831,468
874.618958,466
874.736145,460
874.853333,477
874.970459,485
875.087646,454
875.204834,463
875.32196,461
875.439148,485
875.556274,454
875.673401,469
875.790527,477
875.907715,455
876.024841,454
876.141968,470
876.259094,449
876.376282,464
876.493347,462
876.610474,469
876.7276,458
876.844727,449
876.961853,468
877.078918,459
877.195984,455
877.313171,484
877.430237,443
877.547302,471
877.664368,480
877.781433,460
877.898499,472
878.015625,452
878.13269,456
878.249695,460
878.366821,461
878.483887,454
878.600952,475
878.717957,450
878.834961,476
878.952087,472
879.069092,443
879.186157,429
879.303162,464
879.420227,462
879.537231,470
879.654236,470
879.77124,459
879.888306,477
880.005249,443
880.122314,470
880.239319,458
880.356323,456
880.473328,449
880.590271,467
880.707275,463
880.824341,462
880.941284,457
881.058228,465
881.175232,454
881.292236,450
881.40918,444
881.526123,452
881.643066,464
881.760071,458
881.877014,454
881.993958,457
882.11084,451
882.227783,464
882.344727,463
882.46167,453
882.578613,465
882.695618,463
882.812439,452
882.929382,465
883.046326,456
883.163208,443
883.280151,463
883.397034,452
883.513916,469
883.630798,470
883.747742,470
883.864563,449
883.981506,461
884.098389,462
884.21521,444
884.332153,474
884.448975,463
884.565796,460
884.682678,464
884.7995,480
884.916443,468
885.033264,464
885.150085,476
885.266968,463
885.383789,460
885.500671,480
885.617493,443
885.734314,488
885.851196,471
885.967896,472
886.084717,475
886.201599,481
886.318359,473
886.435181,483
886.552002,481
886.668762,482
886.785645,458
886.902344,475
887.019165,463
887.135925,459
887.252747,480
887.369446,493
887.486267,484
887.603027,481
887.719788,457
887.836548,475
887.953247,466
888.070068,457
888.186829,457
888.303528,470
888.420288,479
888.536987,467
888.653687,465
888.770447,458
888.887146,486
889.003967,472
889.120667,460
889.237305,478
889.354065,470
889.470703,485
889.587463,453
889.704163,498
889.820862,444
889.937561,445
890.054199,468
890.170837,478
890.287598,451
890.404236,478
890.520874,448
890.637634,485
890.754211,466
890.87085,446
890.987549,464
891.104187,480
891.220886,454
891.337463,454
891.454102,465
891.57074,485
891.687378,466
891.804077,477
891.920654,470
892.037231,481
892.15387,462
892.270447,479
892.387085,460
892.503723,446
892.6203,451
892.736877,480
892.853516,475
892.970032,471
893.08667,464
893.203186,453
893.319763,480
893.43634,454
893.552917,457
893.669556,446
893.786011,472
893.902588,462
894.019165,444
894.135681,474
894.252197,455
894.368835,476
894.485291,464
894.601868,471
894.718384,472
894.8349,454
894.951355,478
895.067932,456
895.184448,452
895.300964,482
895.417419,482
895.533936,479
895.650452,465
895.766907,456
895.883423,460
895.999878,483
896.116333,476
896.232849,475
896.349304,462
896.465759,457
896.582214,469
896.698669,497
896.815125,2545
896.931641,428
897.048035,447
897.164551,481
897.280884,463
897.397339,461
897.513794,460
897.630249,461
897.746582,450
897.863098,454
897.979431,459
898.095886,468
898.212341,464
898.328674,471
898.445129,475
898.561462,476
898.677795,452
898.794312,469
898.910645,459
899.026978,464
899.143433,454
899.259766,468
899.37616,454
899.492493,453
899.608765,478
899.725159,450
899.841553,467
899.957947,462
900.07428,478
900.190552,474
900.306946,454
900.423157,458
900.53949,474
900.655884,469
900.772156,475
900.888489,469
901.004822,453
901.121033,484
901.237366,471
901.353699,483
901.46991,474
901.586304,466
901.702515,500
901.818787,469
901.93512,462
902.051331,460
902.167603,486
902.283875,494
902.400085,488
902.516418,477
902.632629,459
902.74884,498
902.865112,481
902.981384,487
903.097595,473
903.213867,474
903.330017,468
903.446289,457
903.5625,460
903.67865,487
903.794922,474
903.911072,484
904.027344,475
904.143494,490
904.259705,466
904.375916,477
904.492065,473
904.608215,473
904.724426,471
904.840576,474
904.956726,467
905.072876,461
905.189087,466
905.305176,479
905.421387,477
905.537537,489
905.653687,477
905.769775,494
905.885925,474
906.002014,477
906.118164,474
906.234314,490
906.350403,465
906.466492,463
906.582642,465
906.69873,464
906.814758,468
906.930908,477
907.046936,459
907.163086,475
907.279175,467
907.395264,461
907.511353,473
907.62738,469
907.743408,484
907.859497,488
907.975525,468
908.091553,477
908.207703,470
908.32373,474
908.439758,484
908.555786,478
908.671814,477
908.787842,481
908.90387,455
909.019775,496
909.135864,466
909.251892,487
909.367859,488
909.483826,462
909.599854,466
909.715881,469
909.831848,482
909.947815,470
910.063782,461
910.179749,468
910.295776,453
910.411743,475
910.527649,485
910.643616,464
910.759583,472
910.875488,475
910.991455,464
911.107361,483
911.223267,464
911.339294,473
911.4552,471
911.571106,474
911.687073,473
911.802979,479
911.918823,476
912.034729,485
912.150635,470
912.266602,474
912.382446,477
912.498352,468
912.614197,466
912.730103,483
912.846008,466
