792.44574,618
792.56488,651
792.68396,686
792.80304,672
792.92218,627
793.041199,595
793.160339,584
793.279419,630
793.398499,619
793.517578,591
793.636658,597
793.755737,595
793.874817,617
793.993896,613
794.112976,590
794.232056,583
794.351074,597
794.470215,605
794.589233,576
794.708313,590
794.827393,594
794.946411,597
795.065552,604
795.18457,580
795.303589,586
795.422668,572
795.541687,591
795.660767,578
795.779846,579
795.898865,571
796.017883,582
796.136963,581
796.255981,577
796.375061,568
796.49408,580
796.613037,581
796.732117,580
796.851135,581
796.970154,588
797.089233,562
797.208191,584
797.327271,562
797.446228,583
797.565186,574
797.684265,569
797.803223,587
797.922241,572
798.04126,558
798.160278,585
798.279297,586
798.398315,557
798.517273,586
798.636292,568
798.75531,577
798.874268,558
798.993286,551
799.112244,560
799.231323,584
799.350281,569
799.469238,563
799.588257,579
799.707153,560
799.826111,559
799.945129,580
800.064087,579
800.183044,576
800.302063,567
800.421021,553
800.539978,569
800.658936,569
800.777893,568
800.896912,565
801.015747,580
801.134705,578
801.253723,576
801.37262,577
801.491638,577
801.610535,570
801.729492,576
801.84845,582
801.967407,598
802.086243,582
802.205261,591
802.324158,589
802.443115,598
802.562073,575
802.680969,582
802.799927,577
802.918762,597
803.037659,572
803.156677,586
803.275574,542
803.39447,584
803.513428,602
803.632263,598
803.751221,584
803.870117,594
803.989014,586
804.107971,585
804.226746,584
804.345642,574
804.4646,573
804.583496,581
804.702393,583
804.821228,582
804.940125,589
805.059021,603
805.177917,578
805.296814,601
805.415649,594
805.534546,578
805.653442,595
805.772278,616
805.891113,588
806.01001,588
806.128906,589
806.247742,568
806.366577,592
806.485413,597
806.604309,597
806.723145,600
806.84198,597
806.960876,586
807.079712,563
807.198486,587
807.317383,598
807.436218,622
807.554993,586
807.673889,610
807.792725,596
807.91156,619
808.030396,610
808.14917,634
808.268005,595
808.386841,627
808.505676,609
808.624451,588
808.743286,624
808.862122,626
808.980896,589
809.099731,614
809.218506,596
809.337341,611
809.456116,615
809.57489,609
809.693726,622
809.8125,593
809.931274,607
810.050049,586
810.168884,599
810.287659,586
810.406372,645
810.525269,600
810.643982,607
810.762756,636
810.881531,598
811.000305,632
811.11908,616
811.237854,621
811.356567,588
811.475403,617
811.594116,629
811.71283,604
811.831604,615
811.950378,619
812.069153,618
812.187927,624
812.30658,613
812.425415,635
812.544128,600
812.662781,608
812.781616,634
812.900269,620
813.019043,600
813.137756,645
813.256531,597
813.375244,624
813.493896,641
813.612671,639
813.731384,622
813.850037,632
813.96875,600
814.087524,642
814.206238,597
814.324951,615
814.443604,621
814.562256,625
814.68103,600
814.799683,631
814.918335,588
815.037109,607
815.155762,611
815.274475,590
815.393188,605
815.511841,593
815.630554,594
815.749146,603
815.867859,601
815.986572,580
816.105164,587
816.223877,589
816.342529,591
816.461182,598
816.579895,588
816.698486,601
816.817139,621
816.935791,609
817.054504,604
817.173096,581
817.291748,578
817.4104,584
817.529053,595
817.647644,582
817.766235,559
817.884949,555
818.00354,568
818.122192,550
818.240845,548
818.359436,538
818.478088,539
818.59668,542
818.715271,507
818.833923,535
818.952515,516
819.071106,526
819.189758,524
819.30835,526
819.426941,486
819.545532,511
819.664124,492
819.782715,500
819.901306,499
820.019897,508
820.138489,471
820.25708,515
820.375671,486
820.494202,503
820.612732,489
820.731384,501
820.849915,495
820.968506,476
821.087097,499
821.205627,501
821.324158,497
821.442749,491
821.561279,492
821.679871,491
821.798401,484
821.916931,477
822.035461,478
822.154053,485
822.272583,482
822.391174,478
822.509583,477
822.628174,475
822.746704,484
822.865234,483
822.983765,477
823.102295,496
823.220825,483
823.339294,490
823.457825,474
823.576355,491
823.694824,500
823.813354,472
823.931885,465
824.050354,486
824.168884,495
824.287354,498
824.405823,478
824.524353,499
824.642822,494
824.761353,494
824.879822,468
824.998291,481
825.116699,492
825.235291,468
825.353699,490
825.472168,477
825.590637,463
825.709106,481
825.827576,487
825.946045,467
826.064453,478
826.182983,497
826.301392,484
826.4198,482
826.53833,467
826.656738,482
826.775208,447
826.893677,472
827.012024,476
827.130493,459
827.248962,491
827.36731,480
827.485779,462
827.604248,491
827.722595,446
827.841064,473
827.959412,463
828.077942,473
828.196289,475
828.314636,459
828.433105,462
828.551514,471
828.669861,473
828.78833,473
828.906677,436
829.025085,461
829.143433,444
829.261841,468
829.38031,463
829.498657,461
829.617004,477
829.735413,449
829.85376,450
829.972107,447
830.090515,455
830.208862,465
830.327209,457
830.445557,466
830.563904,471
830.682312,470
830.800659,446
830.919006,450
831.037354,462
831.155701,477
831.274048,448
831.392395,471
831.51062,457
831.629028,445
831.747314,469
831.865662,448
831.984009,451
832.102356,480
832.220642,463
832.338928,468
832.457275,453
832.575623,463
832.693909,475
832.812134,458
832.930481,468
833.048828,459
833.167114,478
833.2854,471
833.403687,448
833.521973,463
833.640259,463
833.758545,457
833.876831,450
833.995056,450
834.113281,454
834.231628,460
834.349915,443
834.468201,467
834.586426,460
834.704651,468
834.822998,463
834.941162,432
835.059448,460
835.177673,456
835.295959,469
835.414246,463
835.53241,467
835.650635,478
835.768921,487
835.887146,458
836.005371,456
836.123596,465
836.241821,469
836.360046,467
836.478271,465
836.596497,463
836.714722,467
836.832886,468
836.95105,482
837.069336,481
837.1875,466
837.305725,498
837.423889,465
837.542053,481
837.660339,468
837.778503,479
837.896667,456
838.014832,477
838.132996,473
838.25116,462
838.369385,475
838.487488,486
838.605713,480
838.723877,458
838.84198,484
838.960205,475
839.078308,467
839.196472,475
839.314636,481
839.4328,472
839.550964,470
839.669067,465
839.787231,455
839.905396,459
840.023499,467
840.141602,474
840.259766,483
840.377869,478
840.495972,447
840.614136,476
840.732239,491
840.850342,493
840.968445,469
841.086548,471
841.204651,457
841.322754,462
841.440918,465
841.55896,475
841.677002,441
841.795166,470
841.913208,447
842.031311,441
842.149353,478
842.267456,458
842.385498,459
842.503601,445
842.621643,443
842.739746,464
842.857788,454
842.97583,438
843.093933,469
843.211975,456
843.330017,453
843.44812,452
843.566101,455
843.684204,460
843.802246,469
843.920227,472
844.038269,454
844.156311,455
844.274292,445
844.392395,465
844.510376,467
844.628357,453
844.74646,456
844.864441,452
844.982422,445
845.100403,459
845.218384,446
845.336426,472
845.454468,448
845.572449,463
845.69043,468
845.808411,457
845.926453,473
846.044373,436
846.162354,446
846.280396,456
846.398315,460
846.516296,445
846.634216,466
846.752197,471
846.870178,469
846.988098,446
847.106079,456
847.22406,461
847.34198,454
847.4599,464
847.577881,461
847.695801,474
847.813782,454
847.931641,422
848.049561,461
848.167603,461
848.285461,457
848.403381,477
848.521362,447
848.639221,459
848.75708,461
848.875,454
848.99292,440
849.110901,453
849.22876,447
849.34668,459
849.464539,442
849.582458,477
849.700317,452
849.818176,469
849.936096,452
850.053955,446
850.171875,462
850.289673,447
850.407593,456
850.525452,465
850.643311,450
850.761169,442
850.878967,443
850.996887,468
851.114746,445
851.232544,466
851.350403,448
851.468262,459
851.58606,475
851.703979,472
851.821777,461
851.939636,474
852.057434,445
852.175232,444
852.293091,477
852.410889,481
852.528687,447
852.646545,481
852.764343,451
852.88208,463
852.999939,461
853.117676,461
853.235535,458
853.353271,465
853.471069,453
853.588928,449
853.706604,463
853.824402,466
853.9422,461
854.059998,444
854.177734,450
854.295532,469
854.413269,455
854.531006,480
854.648804,469
854.766541,468
854.884277,446
855.002014,442
855.119751,463
855.237549,445
855.355225,457
855.473022,451
855.590698,440
855.708435,464
855.826172,459
855.943848,462
856.061646,454
856.179321,460
856.296997,434
856.414795,455
856.53241,462
856.650085,447
856.767822,460
856.885559,477
857.003174,473
857.120911,475
857.238586,459
857.356201,471
857.473938,461
857.591614,485
857.709351,466
857.826965,466
857.944641,444
858.062317,473
858.179993,468
858.297668,469
858.415283,468
858.532959,455
858.650574,471
858.768188,462
858.885803,446
859.003479,450
859.121094,448
859.23877,483
859.356384,457
859.473999,453
859.591675,461
859.709229,466
859.826843,461
859.944458,462
860.062012,469
860.179626,457
860.297302,451
860.414856,480
860.532471,468
860.650024,440
860.767639,451
860.885193,456
861.002808,429
861.120361,469
861.237976,473
861.35553,449
861.473022,452
861.590698,463
861.708191,456
861.825745,483
861.943298,455
862.060852,471
862.178406,459
862.295959,457
862.413513,449
862.531006,462
862.64856,459
862.766113,459
862.883667,471
863.00116,462
863.118713,449
863.236206,473
863.353699,447
863.471252,451
863.588745,474
863.706177,461
863.82373,460
863.941162,474
864.058716,439
864.176208,466
864.29364,465
864.411194,466
864.528687,460
864.646118,462
864.763611,453
864.881042,459
864.998535,446
865.116028,468
865.233459,445
865.350891,455
865.468384,451
865.585754,479
865.703308,474
865.820679,461
865.938171,460
866.055542,460
866.173035,458
866.290466,449
866.407837,462
866.52533,470
866.6427,462
866.760071,449
866.877563,452
866.994934,428
867.112305,464
867.229736,463
867.347107,461
867.464539,469
867.58197,465
867.699341,478
867.81665,442
867.934082,441
868.051453,475
868.168823,462
868.286194,470
868.403564,447
868.520935,470
868.638306,444
868.755676,472
868.872986,454
868.990295,468
869.107727,470
869.225037,488
869.342346,461
869.459717,468
869.577026,478
869.694336,457
869.811707,456
869.929016,462
870.046326,474
870.163635,433
870.280945,456
870.398254,475
870.515564,474
870.632812,468
870.750183,462
870.867432,470
870.984741,471
871.102051,451
871.219299,477
871.336609,462
871.453918,459
871.571106,465
871.688416,460
871.805664,465
871.922852,461
872.040222,468
872.157471,484
872.274719,463
872.391968,485
872.509155,481
872.626465,469
872.743652,478
872.860962,454
872.978149,453
873.095337,467
873.212646,451
873.329834,470
873.44696,481
873.564209,471
873.681396,462
873.798645,463
873.915894,462
874.03302,461
874.150208,462
874.267456,470
874.384583,447
874.501831,472
874.618958,452
874.736145,479
874.853333,472
874.970459,467
875.087646,474
875.204834,452
875.32196,460
875.439148,475
875.556274,444
875.673401,477
875.790527,467
875.907715,473
876.024841,459
876.141968,476
876.259094,448
876.376282,473
876.493347,472
876.610474,454
876.7276,458
876.844727,475
876.961853,458
877.078918,472
877.195984,458
877.313171,468
877.430237,454
877.547302,451
877.664368,463
877.781433,460
877.898499,458
878.015625,460
878.13269,471
878.249695,469
878.366821,462
878.483887,467
878.600952,468
878.717957,470
878.834961,463
878.952087,490
879.069092,436
879.186157,485
879.303162,477
879.420227,476
879.537231,486
879.654236,460
879.77124,463
879.888306,463
880.005249,459
880.122314,451
880.239319,449
880.356323,478
880.473328,474
880.590271,479
880.707275,464
880.824341,466
880.941284,465
881.058228,456
881.175232,473
881.292236,475
881.40918,456
881.526123,461
881.643066,459
881.760071,468
881.877014,472
881.993958,491
882.11084,472
882.227783,480
882.344727,493
882.46167,475
882.578613,446
882.695618,483
882.812439,471
882.929382,453
883.046326,459
883.163208,474
883.280151,463
883.397034,453
883.513916,463
883.630798,472
883.747742,486
883.864563,452
883.981506,471
884.098389,485
884.21521,463
884.332153,449
884.448975,459
884.565796,469
884.682678,483
884.7995,469
884.916443,459
885.033264,480
885.150085,469
885.266968,471
885.383789,478
885.500671,488
885.617493,468
885.734314,497
885.851196,477
885.967896,485
886.084717,458
886.201599,484
886.318359,457
886.435181,484
886.552002,475
886.668762,489
886.785645,454
886.902344,452
887.019165,475
887.135925,468
887.252747,473
887.369446,493
887.486267,468
887.603027,482
887.719788,487
887.836548,453
887.953247,461
888.070068,472
888.186829,460
888.303528,479
888.420288,475
888.536987,484
888.653687,473
888.770447,461
888.887146,474
889.003967,455
889.120667,485
889.237305,470
889.354065,465
889.470703,464
889.587463,456
889.704163,495
889.820862,472
889.937561,474
890.054199,469
890.170837,462
890.287598,469
890.404236,474
890.520874,462
890.637634,476
890.754211,472
890.87085,487
890.987549,487
891.104187,497
891.220886,480
891.337463,475
891.454102,485
891.57074,491
891.687378,464
891.804077,472
891.920654,458
892.037231,472
892.15387,461
892.270447,474
892.387085,470
892.503723,493
892.6203,468
892.736877,478
892.853516,491
892.970032,471
893.08667,484
893.203186,460
893.319763,472
893.43634,470
893.552917,459
893.669556,462
893.786011,474
893.902588,475
894.019165,484
894.135681,483
894.252197,481
894.368835,468
894.485291,483
894.601868,470
894.718384,474
894.8349,451
894.951355,465
895.067932,489
895.184448,455
895.300964,463
895.417419,469
895.533936,480
895.650452,454
895.766907,478
895.883423,482
895.999878,482
896.116333,447
896.232849,475
896.349304,480
896.465759,467
896.582214,478
896.698669,471
896.815125,476
896.931641,468
897.048035,498
897.164551,472
897.280884,477
897.397339,466
897.513794,457
897.630249,484
897.746582,473
897.863098,493
897.979431,474
898.095886,482
898.212341,471
898.328674,471
898.445129,484
898.561462,455
898.677795,479
898.794312,460
898.910645,476
899.026978,479
899.143433,471
899.259766,483
899.37616,471
899.492493,481
899.608765,462
899.725159,481
899.841553,457
899.957947,471
900.07428,458
900.190552,485
900.306946,473
900.423157,472
900.53949,472
900.655884,467
900.772156,459
900.888489,484
901.004822,457
901.121033,498
901.237366,465
901.353699,477
901.46991,468
901.586304,479
901.702515,485
901.818787,474
901.93512,486
902.051331,475
902.167603,484
902.283875,491
902.400085,499
902.516418,481
902.632629,472
902.74884,478
902.865112,467
902.981384,474
903.097595,477
903.213867,466
903.330017,495
903.446289,465
903.5625,481
903.67865,492
903.794922,457
903.911072,498
904.027344,490
904.143494,485
904.259705,494
904.375916,475
904.492065,473
904.608215,493
904.724426,475
904.840576,470
904.956726,497
905.072876,505
905.189087,466
905.305176,477
905.421387,479
905.537537,479
905.653687,488
905.769775,488
905.885925,486
906.002014,480
906.118164,460
906.234314,513
906.350403,485
906.466492,499
906.582642,471
906.69873,498
906.814758,502
906.930908,499
907.046936,472
907.163086,501
907.279175,484
907.395264,479
907.511353,491
907.62738,490
907.743408,503
907.859497,490
907.975525,478
908.091553,477
908.207703,489
908.32373,470
908.439758,482
908.555786,485
908.671814,487
908.787842,492
908.90387,487
909.019775,462
909.135864,504
909.251892,493
909.367859,483
909.483826,475
909.599854,486
909.715881,492
909.831848,494
909.947815,481
910.063782,464
910.179749,491
910.295776,485
910.411743,501
910.527649,491
910.643616,496
910.759583,468
910.875488,480
910.991455,476
911.107361,482
911.223267,466
911.339294,487
911.4552,478
911.571106,489
911.687073,474
911.802979,495
911.918823,472
912.034729,480
912.150635,482
912.266602,486
912.382446,494
912.498352,479
912.614197,473
912.730103,473
912.846008,477
792.44574,646
792.56488,647
792.68396,688
792.80304,678
792.92218,623
793.041199,590
793.160339,621
793.279419,635
793.398499,627
793.517578,585
793.636658,604
793.755737,610
793.874817,601
793.993896,642
794.112976,591
794.232056,581
794.351074,575
794.470215,618
794.589233,596
794.708313,599
794.827393,601
794.946411,570
795.065552,575
795.18457,588
795.303589,580
795.422668,575
795.541687,575
795.660767,589
795.779846,602
795.898865,603
796.017883,587
796.136963,570
796.255981,599
796.375061,591
796.49408,568
796.613037,590
796.732117,592
796.851135,558
796.970154,586
797.089233,586
797.208191,585
797.327271,582
797.446228,582
797.565186,584
797.684265,583
797.803223,575
797.922241,555
798.04126,581
798.160278,573
798.279297,581
798.398315,562
798.517273,570
798.636292,547
798.75531,562
798.874268,591
798.993286,584
799.112244,586
799.231323,558
799.350281,559
799.469238,591
799.588257,583
799.707153,569
799.826111,578
799.945129,560
800.064087,558
800.183044,569
800.302063,567
800.421021,590
800.539978,596
800.658936,579
800.777893,564
800.896912,578
801.015747,570
801.134705,587
801.253723,583
801.37262,565
801.491638,583
801.610535,570
801.729492,582
801.84845,565
801.967407,593
802.086243,587
802.205261,575
802.324158,585
802.443115,581
802.562073,578
802.680969,581
802.799927,577
802.918762,622
803.037659,579
803.156677,603
803.275574,603
803.39447,570
803.513428,603
803.632263,603
803.751221,571
803.870117,579
803.989014,595
804.107971,587
804.226746,586
804.345642,613
804.4646,567
804.583496,597
804.702393,597
804.821228,598
804.940125,592
805.059021,595
805.177917,605
805.296814,583
805.415649,602
805.534546,578
805.653442,603
805.772278,588
805.891113,596
806.01001,623
806.128906,582
806.247742,602
806.366577,583
806.485413,589
806.604309,570
806.723145,589
806.84198,600
806.960876,603
807.079712,639
807.198486,605
807.317383,610
807.436218,604
807.554993,591
807.673889,587
807.792725,596
807.91156,609
808.030396,612
808.14917,606
808.268005,622
808.386841,592
808.505676,615
808.624451,614
808.743286,623
808.862122,597
808.980896,609
809.099731,606
809.218506,621
809.337341,604
809.456116,603
809.57489,597
809.693726,598
809.8125,612
809.931274,627
810.050049,618
810.168884,617
810.287659,621
810.406372,596
810.525269,600
810.643982,605
810.762756,604
810.881531,606
811.000305,613
811.11908,613
811.237854,619
811.356567,615
811.475403,609
811.594116,623
811.71283,612
811.831604,601
811.950378,610
812.069153,588
812.187927,608
812.30658,624
812.425415,626
812.544128,624
812.662781,620
812.781616,613
812.900269,596
813.019043,636
813.137756,616
813.256531,611
813.375244,604
813.493896,614
813.612671,598
813.731384,622
813.850037,597
813.96875,635
814.087524,611
814.206238,631
814.324951,605
814.443604,612
814.562256,616
814.68103,630
814.799683,627
814.918335,626
815.037109,605
815.155762,637
815.274475,615
815.393188,598
815.511841,601
815.630554,597
815.749146,583
815.867859,576
815.986572,598
816.105164,576
816.223877,607
816.342529,607
816.461182,606
816.579895,614
816.698486,588
816.817139,610
816.935791,611
817.054504,617
817.173096,599
817.291748,588
817.4104,593
817.529053,581
817.647644,570
817.766235,579
817.884949,587
818.00354,561
818.122192,567
818.240845,551
818.359436,569
818.478088,552
818.59668,511
818.715271,540
818.833923,512
818.952515,515
819.071106,523
819.189758,509
819.30835,507
819.426941,525
819.545532,494
819.664124,489
819.782715,489
819.901306,493
820.019897,511
820.138489,501
820.25708,485
820.375671,489
820.494202,513
820.612732,487
820.731384,497
820.849915,485
820.968506,483
821.087097,490
821.205627,476
821.324158,519
821.442749,478
821.561279,485
821.679871,482
821.798401,481
821.916931,505
822.035461,499
822.154053,488
822.272583,500
822.391174,491
822.509583,493
822.628174,478
822.746704,480
822.865234,465
822.983765,475
823.102295,489
823.220825,471
823.339294,479
823.457825,482
823.576355,479
823.694824,490
823.813354,493
823.931885,477
824.050354,482
824.168884,487
824.287354,487
824.405823,511
824.524353,506
824.642822,489
824.761353,490
824.879822,507
824.998291,480
825.116699,492
825.235291,477
825.353699,493
825.472168,483
825.590637,481
825.709106,492
825.827576,487
825.946045,470
826.064453,478
826.182983,481
826.301392,475
826.4198,464
826.53833,478
826.656738,460
826.775208,463
826.893677,476
827.012024,461
827.130493,475
827.248962,459
827.36731,487
827.485779,477
827.604248,477
827.722595,452
827.841064,456
827.959412,500
828.077942,461
828.196289,457
828.314636,471
828.433105,470
828.551514,467
828.669861,458
828.78833,451
828.906677,471
829.025085,468
829.143433,456
829.261841,461
829.38031,484
829.498657,458
829.617004,451
829.735413,467
829.85376,463
829.972107,472
830.090515,483
830.208862,474
830.327209,472
830.445557,443
830.563904,475
830.682312,476
830.800659,461
830.919006,463
831.037354,461
831.155701,466
831.274048,451
831.392395,442
831.51062,466
831.629028,455
831.747314,448
831.865662,472
831.984009,445
832.102356,458
832.220642,458
832.338928,454
832.457275,456
832.575623,474
832.693909,481
832.812134,455
832.930481,483
833.048828,472
833.167114,462
833.2854,475
833.403687,472
833.521973,459
833.640259,458
833.758545,455
833.876831,467
833.995056,453
834.113281,451
834.231628,467
834.349915,463
834.468201,465
834.586426,463
834.704651,457
834.822998,479
834.941162,456
835.059448,485
835.177673,467
835.295959,455
835.414246,455
835.53241,464
835.650635,464
835.768921,466
835.887146,471
836.005371,455
836.123596,460
836.241821,468
836.360046,444
836.478271,477
836.596497,463
836.714722,485
836.832886,470
836.95105,485
837.069336,467
837.1875,491
837.305725,469
837.423889,493
837.542053,451
837.660339,477
837.778503,475
837.896667,486
838.014832,472
838.132996,484
838.25116,472
838.369385,491
838.487488,468
838.605713,473
838.723877,469
838.84198,454
838.960205,480
839.078308,477
839.196472,485
839.314636,472
839.4328,475
839.550964,469
839.669067,462
839.787231,469
839.905396,475
840.023499,485
840.141602,440
840.259766,473
840.377869,460
840.495972,485
840.614136,476
840.732239,471
840.850342,473
840.968445,477
841.086548,458
841.204651,474
841.322754,471
841.440918,492
841.55896,455
841.677002,474
841.795166,465
841.913208,470
842.031311,447
842.149353,461
842.267456,437
842.385498,480
842.503601,450
842.621643,466
842.739746,454
842.857788,455
842.97583,435
843.093933,462
843.211975,451
843.330017,476
843.44812,432
843.566101,474
843.684204,456
843.802246,447
843.920227,449
844.038269,459
844.156311,450
844.274292,436
844.392395,456
844.510376,467
844.628357,457
844.74646,472
844.864441,434
844.982422,454
845.100403,459
845.218384,459
845.336426,459
845.454468,442
845.572449,473
845.69043,456
845.808411,446
845.926453,469
846.044373,464
846.162354,449
846.280396,463
846.398315,465
846.516296,450
846.634216,462
846.752197,454
846.870178,446
846.988098,457
847.106079,449
847.22406,453
847.34198,459
847.4599,479
847.577881,454
847.695801,469
847.813782,444
847.931641,454
848.049561,481
848.167603,457
848.285461,457
848.403381,464
848.521362,462
848.639221,463
848.75708,451
848.875,468
848.99292,457
849.110901,451
849.22876,462
849.34668,456
849.464539,458
849.582458,466
849.700317,453
849.818176,441
849.936096,464
850.053955,463
850.171875,463
850.289673,454
850.407593,457
850.525452,440
850.643311,458
850.761169,457
850.878967,463
850.996887,440
851.114746,451
851.232544,457
851.350403,436
851.468262,447
851.58606,451
851.703979,457
851.821777,450
851.939636,474
852.057434,460
852.175232,468
852.293091,467
852.410889,483
852.528687,468
852.646545,468
852.764343,457
852.88208,456
852.999939,469
853.117676,448
853.235535,450
853.353271,464
853.471069,465
853.588928,460
853.706604,470
853.824402,459
853.9422,451
854.059998,458
854.177734,471
854.295532,475
854.413269,458
854.531006,458
854.648804,454
854.766541,476
854.884277,455
855.002014,451
855.119751,461
855.237549,451
855.355225,451
855.473022,461
855.590698,463
855.708435,464
855.826172,465
855.943848,465
856.061646,471
856.179321,456
856.296997,465
856.414795,470
856.53241,451
856.650085,459
856.767822,461
856.885559,454
857.003174,454
857.120911,468
857.238586,461
857.356201,462
857.473938,455
857.591614,444
857.709351,462
857.826965,467
857.944641,473
858.062317,459
858.179993,451
858.297668,470
858.415283,463
858.532959,474
858.650574,455
858.768188,471
858.885803,464
859.003479,470
859.121094,457
859.23877,451
859.356384,464
859.473999,457
859.591675,475
859.709229,461
859.826843,451
859.944458,447
860.062012,471
860.179626,459
860.297302,470
860.414856,473
860.532471,456
860.650024,461
860.767639,475
860.885193,471
861.002808,457
861.120361,467
861.237976,471
861.35553,454
861.473022,469
861.590698,462
861.708191,452
861.825745,478
861.943298,474
862.060852,456
862.178406,463
862.295959,455
862.413513,459
862.531006,459
862.64856,442
862.766113,455
862.883667,447
863.00116,447
863.118713,466
863.236206,459
863.353699,462
863.471252,483
863.588745,471
863.706177,448
863.82373,469
863.941162,446
864.058716,470
864.176208,465
864.29364,479
864.411194,465
864.528687,455
864.646118,464
864.763611,462
864.881042,455
864.998535,485
865.116028,488
865.233459,467
865.350891,461
865.468384,464
865.585754,468
865.703308,466
865.820679,456
865.938171,456
866.055542,442
866.173035,461
866.290466,461
866.407837,468
866.52533,453
866.6427,462
866.760071,461
866.877563,454
866.994934,450
867.112305,466
867.229736,460
867.347107,463
867.464539,437
867.58197,455
867.699341,453
867.81665,454
867.934082,463
868.051453,462
868.168823,476
868.286194,451
868.403564,450
868.520935,470
868.638306,454
868.755676,474
868.872986,474
868.990295,466
869.107727,483
869.225037,469
869.342346,465
869.459717,471
869.577026,471
869.694336,474
869.811707,460
869.929016,457
870.046326,461
870.163635,472
870.280945,463
870.398254,446
870.515564,464
870.632812,459
870.750183,467
870.867432,469
870.984741,477
871.102051,473
871.219299,458
871.336609,471
871.453918,464
871.571106,474
871.688416,468
871.805664,455
871.922852,442
872.040222,480
872.157471,489
872.274719,471
872.391968,482
872.509155,460
872.626465,464
872.743652,464
872.860962,454
872.978149,470
873.095337,479
873.212646,464
873.329834,455
873.44696,463
873.564209,467
873.681396,473
873.798645,466
873.915894,475
874.03302,461
874.150208,484
874.267456,435
874.384583,472
874.501831,461
874.618958,482
874.736145,468
874.853333,462
874.970459,451
875.087646,461
875.204834,452
875.32196,466
875.439148,459
875.556274,477
875.673401,456
875.790527,477
875.907715,480
876.024841,482
876.141968,456
876.259094,469
876.376282,463
876.493347,459
876.610474,471
876.7276,457
876.844727,473
876.961853,476
877.078918,474
877.195984,460
877.313171,460
877.430237,473
877.547302,477
877.664368,466
877.781433,463
877.898499,473
878.015625,469
878.13269,452
878.249695,459
878.366821,462
878.483887,455
878.600952,452
878.717957,454
878.834961,474
878.952087,472
879.069092,491
879.186157,449
879.303162,455
879.420227,475
879.537231,481
879.654236,458
879.77124,461
879.888306,461
880.005249,460
880.122314,471
880.239319,472
880.356323,491
880.473328,464
880.590271,463
880.707275,496
880.824341,456
880.941284,463
881.058228,473
881.175232,476
881.292236,470
881.40918,483
881.526123,454
881.643066,452
881.760071,463
881.877014,455
881.993958,467
882.11084,453
882.227783,462
882.344727,452
882.46167,473
882.578613,469
882.695618,464
882.812439,473
882.929382,472
883.046326,455
883.163208,459
883.280151,463
883.397034,470
883.513916,499
883.630798,466
883.747742,490
883.864563,458
883.981506,475
884.098389,461
884.21521,479
884.332153,477
884.448975,475
884.565796,464
884.682678,468
884.7995,473
884.916443,474
885.033264,448
885.150085,476
885.266968,465
885.383789,468
885.500671,483
885.617493,483
885.734314,476
885.851196,478
885.967896,479
886.084717,461
886.201599,462
886.318359,473
886.435181,472
886.552002,482
886.668762,485
886.785645,461
886.902344,467
887.019165,481
887.135925,454
887.252747,492
887.369446,488
887.486267,489
887.603027,469
887.719788,472
887.836548,473
887.953247,474
888.070068,477
888.186829,478
888.303528,477
888.420288,453
888.536987,484
888.653687,473
888.770447,475
888.887146,499
889.003967,476
889.120667,484
889.237305,484
889.354065,496
889.470703,488
889.587463,477
889.704163,476
889.820862,478
889.937561,469
890.054199,467
890.170837,472
890.287598,467
890.404236,471
890.520874,479
890.637634,482
890.754211,475
890.87085,469
890.987549,480
891.104187,466
891.220886,480
891.337463,477
891.454102,464
891.57074,471
891.687378,497
891.804077,461
891.920654,466
892.037231,451
892.15387,480
892.270447,467
892.387085,464
892.503723,486
892.6203,473
892.736877,472
892.853516,478
892.970032,470
893.08667,500
893.203186,483
893.319763,480
893.43634,477
893.552917,488
893.669556,496
893.786011,477
893.902588,465
894.019165,484
894.135681,473
894.252197,496
894.368835,465
894.485291,480
894.601868,468
894.718384,467
894.8349,497
894.951355,503
895.067932,477
895.184448,467
895.300964,462
895.417419,478
895.533936,457
895.650452,480
895.766907,466
895.883423,490
895.999878,473
896.116333,469
896.232849,486
896.349304,468
896.465759,474
896.582214,471
896.698669,475
896.815125,496
896.931641,474
897.048035,478
897.164551,483
897.280884,463
897.397339,485
897.513794,463
897.630249,482
897.746582,491
897.863098,476
897.979431,466
898.095886,473
898.212341,454
898.328674,482
898.445129,490
898.561462,484
898.677795,466
898.794312,462
898.910645,468
899.026978,482
899.143433,468
899.259766,502
899.37616,479
899.492493,497
899.608765,485
899.725159,471
899.841553,486
899.957947,489
900.07428,494
900.190552,492
900.306946,465
900.423157,490
900.53949,497
900.655884,471
900.772156,502
900.888489,485
901.004822,491
901.121033,492
901.237366,482
901.353699,488
901.46991,504
901.586304,473
901.702515,484
901.818787,477
901.93512,484
902.051331,471
902.167603,480
902.283875,496
902.400085,483
902.516418,491
902.632629,509
902.74884,484
902.865112,469
902.981384,498
903.097595,493
903.213867,474
903.330017,473
903.446289,490
903.5625,509
903.67865,498
903.794922,505
903.911072,456
904.027344,473
904.143494,483
904.259705,501
904.375916,467
904.492065,472
904.608215,497
904.724426,478
904.840576,485
904.956726,450
905.072876,497
905.189087,493
905.305176,475
905.421387,477
905.537537,469
905.653687,502
905.769775,482
905.885925,506
906.002014,477
906.118164,497
906.234314,491
906.350403,498
906.466492,485
906.582642,496
906.69873,488
906.814758,454
906.930908,487
907.046936,496
907.163086,488
907.279175,486
907.395264,468
907.511353,495
907.62738,487
907.743408,480
907.859497,491
907.975525,477
908.091553,471
908.207703,477
908.32373,476
908.439758,492
908.555786,505
908.671814,486
908.787842,474
908.90387,480
909.019775,474
909.135864,496
909.251892,453
909.367859,490
909.483826,485
909.599854,459
909.715881,461
909.831848,508
909.947815,476
910.063782,484
910.179749,493
910.295776,472
910.411743,481
910.527649,506
910.643616,470
910.759583,459
910.875488,497
910.991455,486
911.107361,481
911.223267,498
911.339294,477
911.4552,483
911.571106,478
911.687073,484
911.802979,464
911.918823,464
912.034729,485
912.150635,481
912.266602,504
912.382446,489
912.498352,483
912.614197,483
912.730103,479
912.846008,489
792.44574,629
792.56488,650
792.68396,685
792.80304,652
792.92218,632
793.041199,609
793.160339,587
793.279419,636
793.398499,611
793.517578,615
793.636658,596
793.755737,605
793.874817,641
793.993896,614
794.112976,587
794.232056,619
794.351074,590
794.470215,617
794.589233,612
794.708313,597
794.827393,596
794.946411,584
795.065552,594
795.18457,627
795.303589,597
795.422668,580
795.541687,596
795.660767,599
795.779846,570
795.898865,595
796.017883,573
796.136963,580
796.255981,576
796.375061,576
796.49408,594
796.613037,585
796.732117,606
796.851135,570
796.970154,582
797.089233,562
797.208191,571
797.327271,563
797.446228,582
797.565186,580
797.684265,599
797.803223,578
797.922241,585
798.04126,565
798.160278,574
798.279297,575
798.398315,574
798.517273,588
798.636292,579
798.75531,593
798.874268,569
798.993286,565
799.112244,586
799.231323,562
799.350281,560
799.469238,588
799.588257,583
799.707153,606
799.826111,575
799.945129,596
800.064087,575
800.183044,564
800.302063,573
800.421021,578
800.539978,549
800.658936,567
800.777893,544
800.896912,559
801.015747,591
801.134705,576
801.253723,582
801.37262,572
801.491638,568
801.610535,567
801.729492,568
801.84845,587
801.967407,558
802.086243,577
802.205261,576
802.324158,584
802.443115,584
802.562073,595
802.680969,566
802.799927,593
802.918762,583
803.037659,589
803.156677,572
803.275574,569
803.39447,573
803.513428,598
803.632263,590
803.751221,579
803.870117,614
803.989014,626
804.107971,597
804.226746,598
804.345642,598
804.4646,579
804.583496,585
804.702393,600
804.821228,578
804.940125,603
805.059021,567
805.177917,599
805.296814,595
805.415649,599
805.534546,630
805.653442,615
805.772278,592
805.891113,610
806.01001,593
806.128906,590
806.247742,583
806.366577,619
806.485413,618
806.604309,603
806.723145,603
806.84198,603
806.960876,593
807.079712,609
807.198486,612
807.317383,600
807.436218,588
807.554993,597
807.673889,615
807.792725,608
807.91156,597
808.030396,618
808.14917,602
808.268005,601
808.386841,592
808.505676,626
808.624451,590
808.743286,617
808.862122,601
808.980896,590
809.099731,622
809.218506,617
809.337341,598
809.456116,599
809.57489,631
809.693726,636
809.8125,604
809.931274,619
810.050049,625
810.168884,612
810.287659,632
810.406372,643
810.525269,601
810.643982,630
810.762756,602
810.881531,635
811.000305,599
811.11908,631
811.237854,603
811.356567,608
811.475403,626
811.594116,609
811.71283,611
811.831604,628
811.950378,597
812.069153,628
812.187927,619
812.30658,614
812.425415,617
812.544128,604
812.662781,609
812.781616,607
812.900269,626
813.019043,629
813.137756,611
813.256531,633
813.375244,596
813.493896,615
813.612671,636
813.731384,611
813.850037,609
813.96875,635
814.087524,604
814.206238,613
814.324951,624
814.443604,639
814.562256,604
814.68103,619
814.799683,599
814.918335,598
815.037109,608
815.155762,612
815.274475,618
815.393188,599
815.511841,622
815.630554,592
815.749146,602
815.867859,609
815.986572,614
816.105164,600
816.223877,589
816.342529,602
816.461182,596
816.579895,613
816.698486,610
816.817139,598
816.935791,615
817.054504,629
817.173096,600
817.291748,611
817.4104,605
817.529053,583
817.647644,575
817.766235,585
817.884949,581
818.00354,583
818.122192,573
818.240845,537
818.359436,542
818.478088,535
818.59668,534
818.715271,539
818.833923,557
818.952515,526
819.071106,498
819.189758,508
819.30835,528
819.426941,508
819.545532,495
819.664124,490
819.782715,508
819.901306,510
820.019897,496
820.138489,498
820.25708,509
820.375671,484
820.494202,481
820.612732,497
820.731384,494
820.849915,473
820.968506,484
821.087097,484
821.205627,493
821.324158,493
821.442749,483
821.561279,473
821.679871,508
821.798401,495
821.916931,486
822.035461,490
822.154053,487
822.272583,475
822.391174,494
822.509583,482
822.628174,483
822.746704,474
822.865234,486
822.983765,467
823.102295,475
823.220825,486
823.339294,504
823.457825,486
823.576355,495
823.694824,498
823.813354,496
823.931885,495
824.050354,483
824.168884,481
824.287354,483
824.405823,501
824.524353,493
824.642822,482
824.761353,485
824.879822,489
824.998291,491
825.116699,487
825.235291,479
825.353699,480
825.472168,484
825.590637,450
825.709106,474
825.827576,475
825.946045,474
826.064453,465
826.182983,476
826.301392,462
826.4198,472
826.53833,474
826.656738,460
826.775208,460
826.893677,461
827.012024,465
827.130493,464
827.248962,468
827.36731,454
827.485779,462
827.604248,462
827.722595,489
827.841064,437
827.959412,462
828.077942,474
828.196289,467
828.314636,463
828.433105,479
828.551514,460
828.669861,455
828.78833,457
828.906677,480
829.025085,463
829.143433,457
829.261841,484
829.38031,474
829.498657,456
829.617004,473
829.735413,458
829.85376,467
829.972107,454
830.090515,475
830.208862,468
830.327209,469
830.445557,459
830.563904,470
830.682312,460
830.800659,471
830.919006,480
831.037354,462
831.155701,463
831.274048,462
831.392395,462
831.51062,461
831.629028,492
831.747314,463
831.865662,472
831.984009,470
832.102356,472
832.220642,466
832.338928,467
832.457275,479
832.575623,478
832.693909,434
832.812134,472
832.930481,461
833.048828,460
833.167114,457
833.2854,487
833.403687,475
833.521973,467
833.640259,479
833.758545,452
833.876831,443
833.995056,483
834.113281,462
834.231628,481
834.349915,472
834.468201,474
834.586426,464
834.704651,476
834.822998,435
834.941162,446
835.059448,476
835.177673,466
835.295959,448
835.414246,466
835.53241,476
835.650635,458
835.768921,489
835.887146,465
836.005371,468
836.123596,464
836.241821,452
836.360046,470
836.478271,485
836.596497,481
836.714722,469
836.832886,467
836.95105,469
837.069336,482
837.1875,486
837.305725,458
837.423889,469
837.542053,475
837.660339,488
837.778503,485
837.896667,472
838.014832,467
838.132996,481
838.25116,469
838.369385,475
838.487488,472
838.605713,476
838.723877,477
838.84198,487
838.960205,483
839.078308,450
839.196472,462
839.314636,492
839.4328,468
839.550964,472
839.669067,461
839.787231,468
839.905396,471
840.023499,472
840.141602,468
840.259766,475
840.377869,444
840.495972,465
840.614136,468
840.732239,493
840.850342,470
840.968445,468
841.086548,481
841.204651,468
841.322754,465
841.440918,460
841.55896,478
841.677002,447
841.795166,475
841.913208,498
842.031311,455
842.149353,458
842.267456,469
842.385498,452
842.503601,455
842.621643,448
842.739746,480
842.857788,429
842.97583,469
843.093933,460
843.211975,463
843.330017,467
843.44812,486
843.566101,460
843.684204,433
843.802246,442
843.920227,468
844.038269,461
844.156311,465
844.274292,456
844.392395,469
844.510376,454
844.628357,467
844.74646,474
844.864441,442
844.982422,453
845.100403,441
845.218384,470
845.336426,449
845.454468,464
845.572449,455
845.69043,460
845.808411,468
845.926453,453
846.044373,450
846.162354,484
846.280396,454
846.398315,465
846.516296,464
846.634216,457
846.752197,461
846.870178,468
846.988098,451
847.106079,447
847.22406,464
847.34198,450
847.4599,458
847.577881,446
847.695801,460
847.813782,461
847.931641,452
848.049561,475
848.167603,459
848.285461,462
848.403381,447
848.521362,470
848.639221,446
848.75708,470
848.875,466
848.99292,453
849.110901,459
849.22876,460
849.34668,456
849.464539,464
849.582458,472
849.700317,446
849.818176,465
849.936096,437
850.053955,456
850.171875,497
850.289673,443
850.407593,446
850.525452,465
850.643311,454
850.761169,457
850.878967,454
850.996887,456
851.114746,453
851.232544,463
851.350403,455
851.468262,423
851.58606,459
851.703979,461
851.821777,462
851.939636,458
852.057434,456
852.175232,458
852.293091,483
852.410889,484
852.528687,453
852.646545,430
852.764343,479
852.88208,458
852.999939,465
853.117676,450
853.235535,465
853.353271,446
853.471069,473
853.588928,454
853.706604,449
853.824402,450
853.9422,446
854.059998,441
854.177734,468
854.295532,460
854.413269,456
854.531006,468
854.648804,474
854.766541,459
854.884277,471
855.002014,451
855.119751,469
855.237549,453
855.355225,461
855.473022,486
855.590698,474
855.708435,455
855.826172,461
855.943848,458
856.061646,484
856.179321,452
856.296997,478
856.414795,466
856.53241,458
856.650085,451
856.767822,471
856.885559,471
857.003174,462
857.120911,471
857.238586,485
857.356201,442
857.473938,486
857.591614,474
857.709351,470
857.826965,466
857.944641,455
858.062317,469
858.179993,473
858.297668,459
858.415283,473
858.532959,469
858.650574,454
858.768188,485
858.885803,461
859.003479,450
859.121094,483
859.23877,476
859.356384,439
859.473999,460
859.591675,486
859.709229,465
859.826843,472
859.944458,459
860.062012,465
860.179626,472
860.297302,462
860.414856,468
860.532471,464
860.650024,455
860.767639,462
860.885193,448
861.002808,458
861.120361,465
861.237976,463
861.35553,459
861.473022,469
861.590698,477
861.708191,462
861.825745,452
861.943298,468
862.060852,439
862.178406,485
862.295959,460
862.413513,455
862.531006,463
862.64856,455
862.766113,457
862.883667,470
863.00116,447
863.118713,470
863.236206,467
863.353699,464
863.471252,456
863.588745,454
863.706177,449
863.82373,480
863.941162,457
864.058716,465
864.176208,432
864.29364,470
864.411194,463
864.528687,471
864.646118,474
864.763611,471
864.881042,469
864.998535,459
865.116028,466
865.233459,467
865.350891,453
865.468384,456
865.585754,466
865.703308,464
865.820679,481
865.938171,469
866.055542,467
866.173035,473
866.290466,469
866.407837,455
866.52533,462
866.6427,472
866.760071,470
866.877563,471
866.994934,467
867.112305,467
867.229736,473
867.347107,471
867.464539,461
867.58197,485
867.699341,474
867.81665,467
867.934082,475
868.051453,470
868.168823,457
868.286194,477
868.403564,464
868.520935,453
868.638306,460
868.755676,459
868.872986,468
868.990295,470
869.107727,475
869.225037,484
869.342346,452
869.459717,476
869.577026,461
869.694336,477
869.811707,450
869.929016,460
870.046326,446
870.163635,464
870.280945,475
870.398254,462
870.515564,478
870.632812,471
870.750183,451
870.867432,453
870.984741,459
871.102051,468
871.219299,469
871.336609,482
871.453918,460
871.571106,473
871.688416,434
871.805664,469
871.922852,462
872.040222,464
872.157471,472
872.274719,452
872.391968,453
872.509155,481
872.626465,484
872.743652,473
872.860962,466
872.978149,488
873.095337,474
873.212646,490
873.329834,458
873.44696,466
873.564209,466
873.681396,469
873.798645,456
873.915894,467
874.03302,470
874.150208,461
874.267456,472
874.384583,466
874.501831,461
874.618958,479
874.736145,479
874.853333,469
874.970459,461
875.087646,450
875.204834,468
875.32196,463
875.439148,477
875.556274,483
875.673401,465
875.790527,474
875.907715,459
876.024841,482
876.141968,453
876.259094,469
876.376282,457
876.493347,464
876.610474,464
876.7276,457
876.844727,470
876.961853,469
877.078918,471
877.195984,478
877.313171,479
877.430237,466
877.547302,465
877.664368,484
877.781433,468
877.898499,473
878.015625,461
878.13269,474
878.249695,456
878.366821,467
878.483887,469
878.600952,462
878.717957,461
878.834961,475
878.952087,491
879.069092,475
879.186157,473
879.303162,474
879.420227,458
879.537231,469
879.654236,468
879.77124,455
879.888306,471
880.005249,465
880.122314,474
880.239319,463
880.356323,470
880.473328,484
880.590271,468
880.707275,457
880.824341,472
880.941284,460
881.058228,475
881.175232,472
881.292236,447
881.40918,475
881.526123,455
881.643066,475
881.760071,464
881.877014,478
881.993958,467
882.11084,462
882.227783,457
882.344727,485
882.46167,458
882.578613,464
882.695618,451
882.812439,472
882.929382,473
883.046326,480
883.163208,475
883.280151,464
883.397034,466
883.513916,461
883.630798,488
883.747742,477
883.864563,481
883.981506,463
884.098389,481
884.21521,469
884.332153,485
884.448975,458
884.565796,491
884.682678,471
884.7995,474
884.916443,459
885.033264,451
885.150085,462
885.266968,483
885.383789,491
885.500671,482
885.617493,476
885.734314,479
885.851196,486
885.967896,479
886.084717,490
886.201599,484
886.318359,488
886.435181,472
886.552002,482
886.668762,458
886.785645,477
886.902344,476
887.019165,485
887.135925,466
887.252747,467
887.369446,476
887.486267,476
887.603027,496
887.719788,474
887.836548,473
887.953247,467
888.070068,465
888.186829,488
888.303528,470
888.420288,480
888.536987,473
888.653687,478
888.770447,478
888.887146,485
889.003967,477
889.120667,478
889.237305,467
889.354065,473
889.470703,490
889.587463,478
889.704163,475
889.820862,456
889.937561,458
890.054199,487
890.170837,468
890.287598,471
890.404236,476
890.520874,467
890.637634,470
890.754211,476
890.87085,484
890.987549,475
891.104187,479
891.220886,467
891.337463,479
891.454102,483
891.57074,469
891.687378,487
891.804077,479
891.920654,478
892.037231,459
892.15387,466
892.270447,480
892.387085,474
892.503723,494
892.6203,462
892.736877,491
892.853516,470
892.970032,472
893.08667,484
893.203186,491
893.319763,477
893.43634,486
893.552917,478
893.669556,488
893.786011,480
893.902588,475
894.019165,483
894.135681,487
894.252197,457
894.368835,486
894.485291,504
894.601868,503
894.718384,479
894.8349,478
894.951355,486
895.067932,491
895.184448,481
895.300964,458
895.417419,493
895.533936,484
895.650452,477
895.766907,475
895.883423,490
895.999878,492
896.116333,474
896.232849,484
896.349304,476
896.465759,467
896.582214,501
896.698669,467
896.815125,485
896.931641,483
897.048035,467
897.164551,476
897.280884,488
897.397339,470
897.513794,474
897.630249,466
897.746582,468
897.863098,477
897.979431,472
898.095886,479
898.212341,482
898.328674,483
898.445129,486
898.561462,475
898.677795,465
898.794312,476
898.910645,486
899.026978,467
899.143433,484
899.259766,479
899.37616,477
899.492493,486
899.608765,479
899.725159,502
899.841553,479
899.957947,477
900.07428,488
900.190552,513
900.306946,487
900.423157,473
900.53949,479
900.655884,496
900.772156,474
900.888489,497
901.004822,498
901.121033,501
901.237366,481
901.353699,469
901.46991,475
901.586304,492
901.702515,505
901.818787,495
901.93512,489
902.051331,503
902.167603,487
902.283875,476
902.400085,479
902.516418,486
902.632629,502
902.74884,486
902.865112,487
902.981384,478
903.097595,498
903.213867,491
903.330017,496
903.446289,471
903.5625,477
903.67865,486
903.794922,484
903.911072,499
904.027344,509
904.143494,475
904.259705,486
904.375916,482
904.492065,479
904.608215,500
904.724426,490
904.840576,481
904.956726,475
905.072876,486
905.189087,486
905.305176,484
905.421387,506
905.537537,477
905.653687,485
905.769775,480
905.885925,486
906.002014,481
906.118164,474
906.234314,475
906.350403,481
906.466492,475
906.582642,502
906.69873,481
906.814758,489
906.930908,482
907.046936,506
907.163086,471
907.279175,475
907.395264,499
907.511353,503
907.62738,475
907.743408,496
907.859497,492
907.975525,491
908.091553,470
908.207703,488
908.32373,485
908.439758,504
908.555786,490
908.671814,487
908.787842,490
908.90387,493
909.019775,486
909.135864,486
909.251892,486
909.367859,469
909.483826,472
909.599854,509
909.715881,472
909.831848,483
909.947815,461
910.063782,457
910.179749,469
910.295776,501
910.411743,489
910.527649,477
910.643616,470
910.759583,499
910.875488,488
910.991455,495
911.107361,481
911.223267,498
911.339294,478
911.4552,493
911.571106,487
911.687073,508
911.802979,474
911.918823,490
912.034729,480
912.150635,503
912.266602,505
912.382446,493
912.498352,482
912.614197,509
912.730103,492
912.846008,503
