792.44574,549
792.56488,587
792.68396,614
792.80304,602
792.92218,535
793.041199,499
793.160339,538
793.279419,524
793.398499,559
793.517578,507
793.636658,496
793.755737,534
793.874817,566
793.993896,537
794.112976,537
794.232056,534
794.351074,501
794.470215,509
794.589233,525
794.708313,509
794.827393,512
794.946411,521
795.065552,517
795.18457,508
795.303589,525
795.422668,543
795.541687,520
795.660767,494
795.779846,522
795.898865,516
796.017883,495
796.136963,517
796.255981,508
796.375061,523
796.49408,512
796.613037,501
796.732117,493
796.851135,504
796.970154,510
797.089233,508
797.208191,514
797.327271,506
797.446228,515
797.565186,481
797.684265,513
797.803223,501
797.922241,486
798.04126,486
798.160278,505
798.279297,501
798.398315,505
798.517273,483
798.636292,484
798.75531,507
798.874268,496
798.993286,507
799.112244,508
799.231323,484
799.350281,493
799.469238,475
799.588257,491
799.707153,518
799.826111,475
799.945129,496
800.064087,488
800.183044,490
800.302063,496
800.421021,495
800.539978,497
800.658936,494
800.777893,498
800.896912,498
801.015747,502
801.134705,476
801.253723,489
801.37262,466
801.491638,508
801.610535,489
801.729492,478
801.84845,493
801.967407,487
802.086243,491
802.205261,480
802.324158,504
802.443115,499
802.562073,497
802.680969,503
802.799927,491
802.918762,482
803.037659,486
803.156677,474
803.275574,492
803.39447,470
803.513428,496
803.632263,490
803.751221,496
803.870117,497
803.989014,476
804.107971,485
804.226746,486
804.345642,508
804.4646,491
804.583496,497
804.702393,496
804.821228,478
804.940125,469
805.059021,503
805.177917,473
805.296814,509
805.415649,480
805.534546,496
805.653442,473
805.772278,500
805.891113,482
806.01001,485
806.128906,493
806.247742,491
806.366577,489
806.485413,477
806.604309,504
806.723145,492
806.84198,472
806.960876,478
807.079712,478
807.198486,464
807.317383,467
807.436218,514
807.554993,499
807.673889,497
807.792725,498
807.91156,490
808.030396,485
808.14917,524
808.268005,471
808.386841,488
808.505676,487
808.624451,477
808.743286,482
808.862122,482
808.980896,467
809.099731,468
809.218506,463
809.337341,503
809.456116,480
809.57489,512
809.693726,495
809.8125,523
809.931274,477
810.050049,493
810.168884,462
810.287659,470
810.406372,465
810.525269,470
810.643982,479
810.762756,487
810.881531,471
811.000305,501
811.11908,489
811.237854,483
811.356567,485
811.475403,487
811.594116,482
811.71283,484
811.831604,501
811.950378,468
812.069153,478
812.187927,499
812.30658,478
812.425415,461
812.544128,493
812.662781,488
812.781616,487
812.900269,496
813.019043,461
813.137756,479
813.256531,475
813.375244,474
813.493896,477
813.612671,481
813.731384,478
813.850037,481
813.96875,476
814.087524,479
814.206238,479
814.324951,496
814.443604,479
814.562256,489
814.68103,473
814.799683,510
814.918335,479
815.037109,490
815.155762,501
815.274475,495
815.393188,489
815.511841,476
815.630554,464
815.749146,480
815.867859,465
815.986572,482
816.105164,483
816.223877,472
816.342529,458
816.461182,472
816.579895,455
816.698486,484
816.817139,468
816.935791,489
817.054504,489
817.173096,479
817.291748,455
817.4104,468
817.529053,466
817.647644,477
817.766235,479
817.884949,486
818.00354,485
818.122192,483
818.240845,450
818.359436,483
818.478088,472
818.59668,455
818.715271,470
818.833923,481
818.952515,465
819.071106,492
819.189758,471
819.30835,465
819.426941,460
819.545532,476
819.664124,450
819.782715,465
819.901306,465
820.019897,483
820.138489,458
820.25708,465
820.375671,463
820.494202,457
820.612732,474
820.731384,479
820.849915,460
820.968506,478
821.087097,460
821.205627,456
821.324158,457
821.442749,476
821.561279,483
821.679871,471
821.798401,445
821.916931,459
822.035461,464
822.154053,448
822.272583,475
822.391174,469
822.509583,455
822.628174,446
822.746704,446
822.865234,456
822.983765,458
823.102295,462
823.220825,452
823.339294,473
823.457825,453
823.576355,459
823.694824,448
823.813354,459
823.931885,469
824.050354,464
824.168884,454
824.287354,453
824.405823,471
824.524353,454
824.642822,469
824.761353,457
824.879822,468
824.998291,473
825.116699,461
825.235291,458
825.353699,480
825.472168,463
825.590637,461
825.709106,465
825.827576,464
825.946045,464
826.064453,460
826.182983,468
826.301392,455
826.4198,459
826.53833,460
826.656738,461
826.775208,456
826.893677,461
827.012024,453
827.130493,463
827.248962,435
827.36731,462
827.485779,467
827.604248,438
827.722595,449
827.841064,446
827.959412,448
828.077942,462
828.196289,449
828.314636,454
828.433105,456
828.551514,456
828.669861,458
828.78833,455
828.906677,432
829.025085,456
829.143433,456
829.261841,461
829.38031,434
829.498657,452
829.617004,486
829.735413,483
829.85376,453
829.972107,453
830.090515,456
830.208862,457
830.327209,476
830.445557,454
830.563904,439
830.682312,463
830.800659,449
830.919006,458
831.037354,469
831.155701,465
831.274048,453
831.392395,452
831.51062,440
831.629028,456
831.747314,469
831.865662,438
831.984009,460
832.102356,446
832.220642,455
832.338928,443
832.457275,436
832.575623,478
832.693909,455
832.812134,453
832.930481,442
833.048828,459
833.167114,466
833.2854,459
833.403687,457
833.521973,467
833.640259,432
833.758545,448
833.876831,435
833.995056,454
834.113281,460
834.231628,451
834.349915,459
834.468201,450
834.586426,444
834.704651,457
834.822998,431
834.941162,437
835.059448,457
835.177673,439
835.295959,434
835.414246,455
835.53241,455
835.650635,436
835.768921,452
835.887146,464
836.005371,438
836.123596,452
836.241821,436
836.360046,464
836.478271,459
836.596497,441
836.714722,458
836.832886,464
836.95105,449
837.069336,441
837.1875,446
837.305725,454
837.423889,452
837.542053,460
837.660339,459
837.778503,450
837.896667,443
838.014832,457
838.132996,455
838.25116,443
838.369385,457
838.487488,444
838.605713,446
838.723877,460
838.84198,439
838.960205,445
839.078308,439
839.196472,459
839.314636,447
839.4328,450
839.550964,430
839.669067,438
839.787231,440
839.905396,442
840.023499,444
840.141602,439
840.259766,477
840.377869,466
840.495972,442
840.614136,461
840.732239,440
840.850342,443
840.968445,455
841.086548,453
841.204651,438
841.322754,423
841.440918,454
841.55896,454
841.677002,453
841.795166,466
841.913208,448
842.031311,462
842.149353,449
842.267456,450
842.385498,442
842.503601,459
842.621643,460
842.739746,457
842.857788,442
842.97583,453
843.093933,449
843.211975,459
843.330017,442
843.44812,484
843.566101,438
843.684204,456
843.802246,434
843.920227,456
844.038269,449
844.156311,472
844.274292,453
844.392395,462
844.510376,456
844.628357,453
844.74646,420
844.864441,465
844.982422,464
845.100403,468
845.218384,442
845.336426,435
845.454468,458
845.572449,462
845.69043,448
845.808411,446
845.926453,436
846.044373,450
846.162354,456
846.280396,462
846.398315,437
846.516296,444
846.634216,436
846.752197,449
846.870178,460
846.988098,443
847.106079,444
847.22406,452
847.34198,464
847.4599,444
847.577881,438
847.695801,463
847.813782,461
847.931641,463
848.049561,451
848.167603,461
848.285461,458
848.403381,441
848.521362,451
848.639221,476
848.75708,438
848.875,472
848.99292,448
849.110901,461
849.22876,444
849.34668,456
849.464539,437
849.582458,456
849.700317,470
849.818176,454
849.936096,435
850.053955,455
850.171875,449
850.289673,457
850.407593,443
850.525452,468
850.643311,443
850.761169,452
850.878967,459
850.996887,479
851.114746,451
851.232544,463
851.350403,446
851.468262,462
851.58606,429
851.703979,455
851.821777,435
851.939636,442
852.057434,435
852.175232,461
852.293091,463
852.410889,432
852.528687,466
852.646545,472
852.764343,443
852.88208,462
852.999939,444
853.117676,448
853.235535,438
853.353271,440
853.471069,447
853.588928,451
853.706604,451
853.824402,455
853.9422,458
854.059998,439
854.177734,451
854.295532,444
854.413269,448
854.531006,442
854.648804,452
854.766541,431
854.884277,450
855.002014,438
855.119751,428
855.237549,449
855.355225,457
855.473022,446
855.590698,465
855.708435,456
855.826172,449
855.943848,459
856.061646,438
856.179321,448
856.296997,442
856.414795,470
856.53241,451
856.650085,447
856.767822,450
856.885559,450
857.003174,456
857.120911,453
857.238586,437
857.356201,449
857.473938,443
857.591614,468
857.709351,454
857.826965,453
857.944641,465
858.062317,452
858.179993,439
858.297668,468
858.415283,435
858.532959,479
858.650574,457
858.768188,463
858.885803,450
859.003479,439
859.121094,447
859.23877,449
859.356384,471
859.473999,457
859.591675,461
859.709229,467
859.826843,460
859.944458,443
860.062012,450
860.179626,441
860.297302,451
860.414856,449
860.532471,455
860.650024,453
860.767639,443
860.885193,469
861.002808,443
861.120361,437
861.237976,451
861.35553,445
861.473022,460
861.590698,447
861.708191,451
861.825745,467
861.943298,440
862.060852,461
862.178406,444
862.295959,448
862.413513,446
862.531006,450
862.64856,446
862.766113,447
862.883667,462
863.00116,455
863.118713,435
863.236206,449
863.353699,430
863.471252,473
863.588745,451
863.706177,467
863.82373,442
863.941162,456
864.058716,463
864.176208,455
864.29364,446
864.411194,444
864.528687,437
864.646118,454
864.763611,444
864.881042,452
864.998535,448
865.116028,461
865.233459,446
865.350891,452
865.468384,459
865.585754,463
865.703308,473
865.820679,465
865.938171,443
866.055542,439
866.173035,459
866.290466,451
866.407837,428
866.52533,439
866.6427,460
866.760071,438
866.877563,426
866.994934,437
867.112305,450
867.229736,450
867.347107,447
867.464539,459
867.58197,459
867.699341,431
867.81665,453
867.934082,466
868.051453,445
868.168823,441
868.286194,452
868.403564,446
868.520935,433
868.638306,452
868.755676,443
868.872986,457
868.990295,449
869.107727,468
869.225037,445
869.342346,447
869.459717,444
869.577026,454
869.694336,449
869.811707,458
869.929016,456
870.046326,459
870.163635,468
870.280945,444
870.398254,436
870.515564,454
870.632812,472
870.750183,466
870.867432,444
870.984741,464
871.102051,455
871.219299,468
871.336609,453
871.453918,461
871.571106,434
871.688416,463
871.805664,442
871.922852,456
872.040222,450
872.157471,469
872.274719,470
872.391968,475
872.509155,459
872.626465,440
872.743652,437
872.860962,464
872.978149,464
873.095337,454
873.212646,462
873.329834,453
873.44696,443
873.564209,463
873.681396,490
873.798645,456
873.915894,436
874.03302,453
874.150208,466
874.267456,448
874.384583,463
874.501831,478
874.618958,460
874.736145,470
874.853333,472
874.970459,458
875.087646,453
875.204834,456
875.32196,462
875.439148,477
875.556274,464
875.673401,484
875.790527,451
875.907715,458
876.024841,466
876.141968,452
876.259094,463
876.376282,459
876.493347,453
876.610474,465
876.7276,453
876.844727,452
876.961853,455
877.078918,472
877.195984,472
877.313171,449
877.430237,450
877.547302,451
877.664368,438
877.781433,441
877.898499,444
878.015625,479
878.13269,430
878.249695,437
878.366821,474
878.483887,469
878.600952,430
878.717957,455
878.834961,458
878.952087,463
879.069092,446
879.186157,465
879.303162,433
879.420227,454
879.537231,444
879.654236,431
879.77124,452
879.888306,461
880.005249,456
880.122314,462
880.239319,458
880.356323,450
880.473328,452
880.590271,453
880.707275,462
880.824341,459
880.941284,447
881.058228,463
881.175232,456
881.292236,456
881.40918,465
881.526123,447
881.643066,440
881.760071,452
881.877014,449
881.993958,452
882.11084,436
882.227783,467
882.344727,442
882.46167,454
882.578613,461
882.695618,467
882.812439,461
882.929382,456
883.046326,463
883.163208,452
883.280151,445
883.397034,462
883.513916,460
883.630798,466
883.747742,457
883.864563,448
883.981506,461
884.098389,438
884.21521,455
884.332153,459
884.448975,462
884.565796,458
884.682678,459
884.7995,454
884.916443,458
885.033264,449
885.150085,455
885.266968,456
885.383789,452
885.500671,455
885.617493,436
885.734314,453
885.851196,470
885.967896,452
886.084717,449
886.201599,457
886.318359,465
886.435181,467
886.552002,465
886.668762,470
886.785645,464
886.902344,488
887.019165,443
887.135925,450
887.252747,487
887.369446,478
887.486267,453
887.603027,464
887.719788,431
887.836548,482
887.953247,449
888.070068,476
888.186829,465
888.303528,463
888.420288,478
888.536987,467
888.653687,458
888.770447,464
888.887146,455
889.003967,458
889.120667,464
889.237305,470
889.354065,449
889.470703,475
889.587463,442
889.704163,455
889.820862,444
889.937561,450
890.054199,469
890.170837,458
890.287598,465
890.404236,476
890.520874,443
890.637634,462
890.754211,476
890.87085,450
890.987549,459
891.104187,458
891.220886,456
891.337463,474
891.454102,456
891.57074,453
891.687378,480
891.804077,462
891.920654,448
892.037231,457
892.15387,472
892.270447,461
892.387085,445
892.503723,446
892.6203,451
892.736877,458
892.853516,469
892.970032,476
893.08667,470
893.203186,442
893.319763,449
893.43634,456
893.552917,454
893.669556,470
893.786011,451
893.902588,483
894.019165,470
894.135681,460
894.252197,450
894.368835,471
894.485291,445
894.601868,442
894.718384,442
894.8349,469
894.951355,440
895.067932,459
895.184448,459
895.300964,452
895.417419,459
895.533936,448
895.650452,462
895.766907,480
895.883423,452
895.999878,475
896.116333,471
896.232849,466
896.349304,440
896.465759,474
896.582214,471
896.698669,447
896.815125,468
896.931641,464
897.048035,446
897.164551,463
897.280884,463
897.397339,490
897.513794,462
897.630249,466
897.746582,447
897.863098,479
897.979431,455
898.095886,465
898.212341,460
898.328674,467
898.445129,468
898.561462,462
898.677795,443
898.794312,455
898.910645,465
899.026978,460
899.143433,453
899.259766,480
899.37616,456
899.492493,471
899.608765,449
899.725159,464
899.841553,452
899.957947,467
900.07428,462
900.190552,453
900.306946,479
900.423157,445
900.53949,453
900.655884,474
900.772156,455
900.888489,457
901.004822,466
901.121033,436
901.237366,477
901.353699,465
901.46991,471
901.586304,444
901.702515,451
901.818787,459
901.93512,460
902.051331,462
902.167603,444
902.283875,460
902.400085,489
902.516418,480
902.632629,462
902.74884,491
902.865112,457
902.981384,470
903.097595,456
903.213867,471
903.330017,458
903.446289,460
903.5625,465
903.67865,463
903.794922,454
903.911072,474
904.027344,465
904.143494,477
904.259705,455
904.375916,477
904.492065,457
904.608215,462
904.724426,462
904.840576,477
904.956726,469
905.072876,473
905.189087,462
905.305176,482
905.421387,444
905.537537,476
905.653687,479
905.769775,450
905.885925,430
906.002014,461
906.118164,456
906.234314,464
906.350403,453
906.466492,473
906.582642,482
906.69873,478
906.814758,465
906.930908,471
907.046936,460
907.163086,467
907.279175,466
907.395264,473
907.511353,468
907.62738,460
907.743408,452
907.859497,470
907.975525,473
908.091553,456
908.207703,471
908.32373,445
908.439758,453
908.555786,477
908.671814,482
908.787842,470
908.90387,454
909.019775,469
909.135864,455
909.251892,496
909.367859,452
909.483826,447
909.599854,463
909.715881,479
909.831848,470
909.947815,463
910.063782,484
910.179749,479
910.295776,473
910.411743,463
910.527649,475
910.643616,476
910.759583,475
910.875488,475
910.991455,448
911.107361,490
911.223267,465
911.339294,479
911.4552,474
911.571106,446
911.687073,456
911.802979,458
911.918823,479
912.034729,475
912.150635,451
912.266602,483
912.382446,458
912.498352,462
912.614197,466
912.730103,473
912.846008,460
792.44574,540
792.56488,545
792.68396,616
792.80304,598
792.92218,538
793.041199,528
793.160339,535
793.279419,562
793.398499,545
793.517578,505
793.636658,524
793.755737,550
793.874817,559
793.993896,553
794.112976,539
794.232056,523
794.351074,514
794.470215,516
794.589233,504
794.708313,531
794.827393,521
794.946411,512
795.065552,534
795.18457,517
795.303589,526
795.422668,504
795.541687,537
795.660767,524
795.779846,498
795.898865,500
796.017883,510
796.136963,506
796.255981,531
796.375061,516
796.49408,518
796.613037,503
796.732117,506
796.851135,490
796.970154,505
797.089233,517
797.208191,510
797.327271,499
797.446228,521
797.565186,483
797.684265,511
797.803223,503
797.922241,487
798.04126,507
798.160278,492
798.279297,507
798.398315,484
798.517273,489
798.636292,490
798.75531,501
798.874268,487
798.993286,497
799.112244,521
799.231323,501
799.350281,518
799.469238,494
799.588257,499
799.707153,516
799.826111,479
799.945129,497
800.064087,501
800.183044,493
800.302063,511
800.421021,487
800.539978,502
800.658936,499
800.777893,499
800.896912,481
801.015747,484
801.134705,477
801.253723,467
801.37262,481
801.491638,513
801.610535,484
801.729492,508
801.84845,503
801.967407,478
802.086243,485
802.205261,519
802.324158,484
802.443115,479
802.562073,502
802.680969,496
802.799927,493
802.918762,515
803.037659,503
803.156677,485
803.275574,500
803.39447,476
803.513428,478
803.632263,476
803.751221,493
803.870117,494
803.989014,496
804.107971,501
804.226746,510
804.345642,479
804.4646,475
804.583496,493
804.702393,484
804.821228,479
804.940125,486
805.059021,486
805.177917,494
805.296814,496
805.415649,493
805.534546,509
805.653442,482
805.772278,489
805.891113,512
806.01001,500
806.128906,490
806.247742,507
806.366577,489
806.485413,499
806.604309,479
806.723145,490
806.84198,502
806.960876,487
807.079712,482
807.198486,487
807.317383,491
807.436218,512
807.554993,483
807.673889,482
807.792725,511
807.91156,481
808.030396,485
808.14917,496
808.268005,493
808.386841,481
808.505676,517
808.624451,476
808.743286,501
808.862122,451
808.980896,482
809.099731,482
809.218506,487
809.337341,499
809.456116,489
809.57489,488
809.693726,489
809.8125,501
809.931274,490
810.050049,497
810.168884,498
810.287659,482
810.406372,491
810.525269,503
810.643982,491
810.762756,491
810.881531,466
811.000305,505
811.11908,469
811.237854,471
811.356567,480
811.475403,488
811.594116,463
811.71283,490
811.831604,495
811.950378,485
812.069153,472
812.187927,498
812.30658,480
812.425415,473
812.544128,471
812.662781,482
812.781616,488
812.900269,479
813.019043,483
813.137756,480
813.256531,496
813.375244,506
813.493896,497
813.612671,486
813.731384,470
813.850037,475
813.96875,479
814.087524,479
814.206238,478
814.324951,482
814.443604,492
814.562256,490
814.68103,479
814.799683,483
814.918335,476
815.037109,467
815.155762,492
815.274475,476
815.393188,479
815.511841,486
815.630554,478
815.749146,482
815.867859,481
815.986572,486
816.105164,460
816.223877,464
816.342529,475
816.461182,473
816.579895,489
816.698486,485
816.817139,480
816.935791,473
817.054504,484
817.173096,483
817.291748,448
817.4104,487
817.529053,482
817.647644,478
817.766235,488
817.884949,476
818.00354,473
818.122192,472
818.240845,470
818.359436,467
818.478088,474
818.59668,471
818.715271,467
818.833923,467
818.952515,462
819.071106,487
819.189758,461
819.30835,473
819.426941,451
819.545532,451
819.664124,474
819.782715,447
819.901306,472
820.019897,465
820.138489,478
820.25708,467
820.375671,471
820.494202,453
820.612732,452
820.731384,485
820.849915,468
820.968506,460
821.087097,455
821.205627,451
821.324158,447
821.442749,485
821.561279,464
821.679871,468
821.798401,466
821.916931,475
822.035461,448
822.154053,479
822.272583,445
822.391174,455
822.509583,451
822.628174,475
822.746704,464
822.865234,468
822.983765,467
823.102295,477
823.220825,455
823.339294,462
823.457825,458
823.576355,475
823.694824,464
823.813354,463
823.931885,467
824.050354,462
824.168884,444
824.287354,455
824.405823,469
824.524353,478
824.642822,463
824.761353,463
824.879822,467
824.998291,467
825.116699,454
825.235291,461
825.353699,461
825.472168,460
825.590637,455
825.709106,461
825.827576,447
825.946045,450
826.064453,445
826.182983,459
826.301392,443
826.4198,461
826.53833,448
826.656738,464
826.775208,429
826.893677,475
827.012024,445
827.130493,454
827.248962,465
827.36731,458
827.485779,448
827.604248,465
827.722595,453
827.841064,462
827.959412,452
828.077942,469
828.196289,439
828.314636,441
828.433105,458
828.551514,458
828.669861,440
828.78833,485
828.906677,466
829.025085,436
829.143433,448
829.261841,457
829.38031,460
829.498657,475
829.617004,425
829.735413,462
829.85376,444
829.972107,441
830.090515,453
830.208862,451
830.327209,448
830.445557,451
830.563904,458
830.682312,455
830.800659,447
830.919006,452
831.037354,459
831.155701,467
831.274048,444
831.392395,458
831.51062,444
831.629028,438
831.747314,448
831.865662,463
831.984009,459
832.102356,448
832.220642,442
832.338928,467
832.457275,465
832.575623,454
832.693909,450
832.812134,445
832.930481,447
833.048828,467
833.167114,460
833.2854,445
833.403687,447
833.521973,451
833.640259,447
833.758545,472
833.876831,456
833.995056,444
834.113281,462
834.231628,460
834.349915,443
834.468201,440
834.586426,466
834.704651,449
834.822998,464
834.941162,456
835.059448,450
835.177673,471
835.295959,461
835.414246,443
835.53241,449
835.650635,450
835.768921,440
835.887146,488
836.005371,445
836.123596,453
836.241821,443
836.360046,446
836.478271,445
836.596497,451
836.714722,453
836.832886,467
836.95105,439
837.069336,455
837.1875,453
837.305725,452
837.423889,454
837.542053,457
837.660339,438
837.778503,469
837.896667,455
838.014832,442
838.132996,453
838.25116,445
838.369385,447
838.487488,461
838.605713,445
838.723877,438
838.84198,454
838.960205,443
839.078308,459
839.196472,444
839.314636,462
839.4328,449
839.550964,462
839.669067,448
839.787231,450
839.905396,460
840.023499,442
840.141602,456
840.259766,440
840.377869,466
840.495972,464
840.614136,469
840.732239,453
840.850342,451
840.968445,452
841.086548,457
841.204651,447
841.322754,459
841.440918,449
841.55896,446
841.677002,439
841.795166,429
841.913208,468
842.031311,464
842.149353,459
842.267456,456
842.385498,439
842.503601,467
842.621643,451
842.739746,443
842.857788,461
842.97583,464
843.093933,446
843.211975,448
843.330017,450
843.44812,442
843.566101,456
843.684204,464
843.802246,447
843.920227,458
844.038269,450
844.156311,475
844.274292,439
844.392395,452
844.510376,467
844.628357,444
844.74646,448
844.864441,453
844.982422,448
845.100403,432
845.218384,445
845.336426,470
845.454468,461
845.572449,444
845.69043,452
845.808411,449
845.926453,443
846.044373,457
846.162354,449
846.280396,427
846.398315,451
846.516296,466
846.634216,460
846.752197,444
846.870178,458
846.988098,477
847.106079,450
847.22406,478
847.34198,458
847.4599,432
847.577881,425
847.695801,452
847.813782,440
847.931641,465
848.049561,450
848.167603,463
848.285461,441
848.403381,443
848.521362,440
848.639221,460
848.75708,450
848.875,472
848.99292,473
849.110901,466
849.22876,448
849.34668,445
849.464539,437
849.582458,448
849.700317,442
849.818176,463
849.936096,436
850.053955,451
850.171875,448
850.289673,447
850.407593,457
850.525452,456
850.643311,457
850.761169,445
850.878967,465
850.996887,453
851.114746,438
851.232544,459
851.350403,462
851.468262,468
851.58606,436
851.703979,450
851.821777,441
851.939636,483
852.057434,439
852.175232,438
852.293091,451
852.410889,453
852.528687,442
852.646545,479
852.764343,421
852.88208,454
852.999939,433
853.117676,445
853.235535,455
853.353271,452
853.471069,456
853.588928,441
853.706604,472
853.824402,454
853.9422,448
854.059998,437
854.177734,440
854.295532,455
854.413269,453
854.531006,436
854.648804,450
854.766541,452
854.884277,440
855.002014,466
855.119751,445
855.237549,452
855.355225,435
855.473022,438
855.590698,440
855.708435,449
855.826172,449
855.943848,463
856.061646,453
856.179321,453
856.296997,457
856.414795,468
856.53241,457
856.650085,451
856.767822,466
856.885559,459
857.003174,440
857.120911,438
857.238586,458
857.356201,453
857.473938,429
857.591614,435
857.709351,457
857.826965,477
857.944641,441
858.062317,452
858.179993,444
858.297668,460
858.415283,445
858.532959,462
858.650574,448
858.768188,474
858.885803,447
859.003479,444
859.121094,463
859.23877,471
859.356384,456
859.473999,453
859.591675,477
859.709229,450
859.826843,448
859.944458,454
860.062012,441
860.179626,463
860.297302,460
860.414856,439
860.532471,452
860.650024,465
860.767639,455
860.885193,439
861.002808,456
861.120361,443
861.237976,447
861.35553,464
861.473022,439
861.590698,449
861.708191,477
861.825745,461
861.943298,440
862.060852,450
862.178406,458
862.295959,453
862.413513,427
862.531006,458
862.64856,454
862.766113,445
862.883667,439
863.00116,469
863.118713,466
863.236206,448
863.353699,448
863.471252,435
863.588745,464
863.706177,430
863.82373,441
863.941162,457
864.058716,451
864.176208,446
864.29364,443
864.411194,447
864.528687,447
864.646118,446
864.763611,448
864.881042,444
864.998535,459
865.116028,469
865.233459,459
865.350891,441
865.468384,456
865.585754,457
865.703308,433
865.820679,463
865.938171,437
866.055542,462
866.173035,449
866.290466,444
866.407837,436
866.52533,439
866.6427,449
866.760071,454
866.877563,456
866.994934,479
867.112305,457
867.229736,469
867.347107,435
867.464539,450
867.58197,441
867.699341,445
867.81665,444
867.934082,458
868.051453,433
868.168823,450
868.286194,436
868.403564,445
868.520935,442
868.638306,466
868.755676,465
868.872986,440
868.990295,440
869.107727,460
869.225037,443
869.342346,460
869.459717,454
869.577026,464
869.694336,449
869.811707,434
869.929016,469
870.046326,439
870.163635,446
870.280945,464
870.398254,453
870.515564,450
870.632812,437
870.750183,459
870.867432,447
870.984741,453
871.102051,445
871.219299,455
871.336609,446
871.453918,446
871.571106,459
871.688416,470
871.805664,451
871.922852,448
872.040222,453
872.157471,451
872.274719,466
872.391968,463
872.509155,448
872.626465,462
872.743652,451
872.860962,462
872.978149,450
873.095337,459
873.212646,458
873.329834,440
873.44696,451
873.564209,463
873.681396,452
873.798645,467
873.915894,459
874.03302,454
874.150208,459
874.267456,464
874.384583,438
874.501831,446
874.618958,445
874.736145,440
874.853333,451
874.970459,463
875.087646,446
875.204834,458
875.32196,463
875.439148,458
875.556274,456
875.673401,461
875.790527,446
875.907715,476
876.024841,445
876.141968,468
876.259094,452
876.376282,456
876.493347,456
876.610474,472
876.7276,441
876.844727,450
876.961853,458
877.078918,450
877.195984,458
877.313171,457
877.430237,459
877.547302,456
877.664368,464
877.781433,468
877.898499,466
878.015625,450
878.13269,462
878.249695,469
878.366821,464
878.483887,450
878.600952,455
878.717957,462
878.834961,448
878.952087,459
879.069092,449
879.186157,458
879.303162,465
879.420227,448
879.537231,445
879.654236,468
879.77124,444
879.888306,453
880.005249,454
880.122314,462
880.239319,449
880.356323,472
880.473328,439
880.590271,455
880.707275,453
880.824341,450
880.941284,465
881.058228,462
881.175232,457
881.292236,454
881.40918,442
881.526123,449
881.643066,451
881.760071,458
881.877014,439
881.993958,459
882.11084,468
882.227783,473
882.344727,446
882.46167,457
882.578613,471
882.695618,453
882.812439,455
882.929382,459
883.046326,446
883.163208,466
883.280151,427
883.397034,432
883.513916,459
883.630798,456
883.747742,473
883.864563,464
883.981506,454
884.098389,463
884.21521,455
884.332153,452
884.448975,450
884.565796,476
884.682678,470
884.7995,453
884.916443,474
885.033264,457
885.150085,462
885.266968,467
885.383789,452
885.500671,482
885.617493,475
885.734314,473
885.851196,460
885.967896,469
886.084717,470
886.201599,480
886.318359,447
886.435181,464
886.552002,469
886.668762,474
886.785645,469
886.902344,479
887.019165,462
887.135925,466
887.252747,451
887.369446,477
887.486267,451
887.603027,484
887.719788,459
887.836548,447
887.953247,448
888.070068,446
888.186829,458
888.303528,476
888.420288,445
888.536987,466
888.653687,437
888.770447,455
888.887146,450
889.003967,466
889.120667,455
889.237305,458
889.354065,454
889.470703,447
889.587463,458
889.704163,474
889.820862,469
889.937561,459
890.054199,452
890.170837,455
890.287598,449
890.404236,469
890.520874,442
890.637634,460
890.754211,460
890.87085,471
890.987549,451
891.104187,469
891.220886,459
891.337463,446
891.454102,459
891.57074,462
891.687378,460
891.804077,490
891.920654,442
892.037231,459
892.15387,472
892.270447,444
892.387085,457
892.503723,452
892.6203,452
892.736877,470
892.853516,462
892.970032,468
893.08667,467
893.203186,455
893.319763,470
893.43634,459
893.552917,458
893.669556,473
893.786011,459
893.902588,463
894.019165,461
894.135681,474
894.252197,450
894.368835,457
894.485291,458
894.601868,466
894.718384,478
894.8349,465
894.951355,458
895.067932,469
895.184448,472
895.300964,461
895.417419,442
895.533936,451
895.650452,469
895.766907,454
895.883423,464
895.999878,480
896.116333,460
896.232849,463
896.349304,448
896.465759,465
896.582214,471
896.698669,454
896.815125,454
896.931641,472
897.048035,455
897.164551,471
897.280884,465
897.397339,472
897.513794,446
897.630249,466
897.746582,432
897.863098,467
897.979431,484
898.095886,470
898.212341,458
898.328674,457
898.445129,460
898.561462,474
898.677795,451
898.794312,470
898.910645,477
899.026978,448
899.143433,474
899.259766,462
899.37616,471
899.492493,471
899.608765,441
899.725159,470
899.841553,472
899.957947,464
900.07428,474
900.190552,451
900.306946,464
900.423157,468
900.53949,464
900.655884,479
900.772156,467
900.888489,462
901.004822,464
901.121033,466
901.237366,463
901.353699,451
901.46991,464
901.586304,457
901.702515,462
901.818787,461
901.93512,447
902.051331,475
902.167603,488
902.283875,471
902.400085,462
902.516418,478
902.632629,454
902.74884,460
902.865112,478
902.981384,473
903.097595,470
903.213867,483
903.330017,439
903.446289,450
903.5625,471
903.67865,490
903.794922,480
903.911072,470
904.027344,472
904.143494,468
904.259705,481
904.375916,459
904.492065,475
904.608215,459
904.724426,455
904.840576,461
904.956726,465
905.072876,468
905.189087,460
905.305176,475
905.421387,455
905.537537,484
905.653687,443
905.769775,467
905.885925,481
906.002014,464
906.118164,449
906.234314,488
906.350403,449
906.466492,480
906.582642,465
906.69873,485
906.814758,462
906.930908,463
907.046936,449
907.163086,477
907.279175,470
907.395264,487
907.511353,480
907.62738,472
907.743408,464
907.859497,471
907.975525,466
908.091553,477
908.207703,449
908.32373,462
908.439758,454
908.555786,471
908.671814,473
908.787842,438
908.90387,451
909.019775,482
909.135864,452
909.251892,472
909.367859,462
909.483826,462
909.599854,461
909.715881,463
909.831848,466
909.947815,472
910.063782,460
910.179749,473
910.295776,450
910.411743,467
910.527649,451
910.643616,487
910.759583,450
910.875488,462
910.991455,475
911.107361,483
911.223267,466
911.339294,472
911.4552,452
911.571106,473
911.687073,466
911.802979,465
911.918823,460
912.034729,456
912.150635,468
912.266602,447
912.382446,473
912.498352,489
912.614197,454
912.730103,466
912.846008,476
792.44574,545
792.56488,583
792.68396,621
792.80304,584
792.92218,547
793.041199,534
793.160339,525
793.279419,541
793.398499,544
793.517578,511
793.636658,549
793.755737,530
793.874817,563
793.993896,555
794.112976,527
794.232056,493
794.351074,526
794.470215,523
794.589233,500
794.708313,515
794.827393,532
794.946411,522
795.065552,528
795.18457,514
795.303589,534
795.422668,529
795.541687,517
795.660767,516
795.779846,526
795.898865,505
796.017883,512
796.136963,524
796.255981,509
796.375061,511
796.49408,534
796.613037,495
796.732117,524
796.851135,505
796.970154,507
797.089233,492
797.208191,515
797.327271,512
797.446228,506
797.565186,495
797.684265,477
797.803223,520
797.922241,500
798.04126,512
798.160278,505
798.279297,533
798.398315,499
798.517273,496
798.636292,500
798.75531,479
798.874268,498
798.993286,487
799.112244,484
799.231323,496
799.350281,491
799.469238,496
799.588257,487
799.707153,501
799.826111,506
799.945129,476
800.064087,485
800.183044,485
800.302063,493
800.421021,485
800.539978,491
800.658936,486
800.777893,515
800.896912,502
801.015747,493
801.134705,476
801.253723,483
801.37262,482
801.491638,508
801.610535,499
801.729492,515
801.84845,505
801.967407,507
802.086243,493
802.205261,479
802.324158,494
802.443115,468
802.562073,479
802.680969,489
802.799927,500
802.918762,508
803.037659,499
803.156677,500
803.275574,471
803.39447,499
803.513428,494
803.632263,509
803.751221,486
803.870117,482
803.989014,493
804.107971,486
804.226746,476
804.345642,480
804.4646,495
804.583496,508
804.702393,474
804.821228,502
804.940125,479
805.059021,490
805.177917,478
805.296814,488
805.415649,478
805.534546,492
805.653442,516
805.772278,486
805.891113,517
806.01001,489
806.128906,468
806.247742,493
806.366577,506
806.485413,501
806.604309,503
806.723145,484
806.84198,481
806.960876,487
807.079712,481
807.198486,494
807.317383,473
807.436218,490
807.554993,480
807.673889,502
807.792725,476
807.91156,491
808.030396,484
808.14917,498
808.268005,498
808.386841,499
808.505676,472
808.624451,486
808.743286,481
808.862122,489
808.980896,482
809.099731,480
809.218506,475
809.337341,495
809.456116,488
809.57489,514
809.693726,483
809.8125,470
809.931274,480
810.050049,486
810.168884,481
810.287659,479
810.406372,493
810.525269,498
810.643982,479
810.762756,458
810.881531,484
811.000305,491
811.11908,500
811.237854,506
811.356567,483
811.475403,499
811.594116,462
811.71283,503
811.831604,488
811.950378,495
812.069153,498
812.187927,479
812.30658,482
812.425415,488
812.544128,487
812.662781,477
812.781616,488
812.900269,503
813.019043,500
813.137756,480
813.256531,471
813.375244,491
813.493896,495
813.612671,497
813.731384,482
813.850037,487
813.96875,480
814.087524,483
814.206238,478
814.324951,496
814.443604,461
814.562256,491
814.68103,487
814.799683,481
814.918335,477
815.037109,485
815.155762,478
815.274475,502
815.393188,486
815.511841,490
815.630554,481
815.749146,496
815.867859,488
815.986572,466
816.105164,482
816.223877,476
816.342529,498
816.461182,490
816.579895,503
816.698486,480
816.817139,471
816.935791,473
817.054504,463
817.173096,498
817.291748,480
817.4104,482
817.529053,451
817.647644,491
817.766235,473
817.884949,460
818.00354,487
818.122192,496
818.240845,470
818.359436,463
818.478088,446
818.59668,474
818.715271,475
818.833923,478
818.952515,461
819.071106,470
819.189758,465
819.30835,475
819.426941,450
819.545532,458
819.664124,460
819.782715,472
819.901306,453
820.019897,467
820.138489,457
820.25708,471
820.375671,460
820.494202,485
820.612732,471
820.731384,476
820.849915,455
820.968506,476
821.087097,457
821.205627,451
821.324158,457
821.442749,474
821.561279,471
821.679871,446
821.798401,469
821.916931,454
822.035461,455
822.154053,477
822.272583,459
822.391174,460
822.509583,470
822.628174,434
822.746704,464
822.865234,465
822.983765,462
823.102295,456
823.220825,472
823.339294,445
823.457825,473
823.576355,473
823.694824,443
823.813354,460
823.931885,460
824.050354,464
824.168884,457
824.287354,463
824.405823,450
824.524353,458
824.642822,464
824.761353,467
824.879822,448
824.998291,455
825.116699,464
825.235291,472
825.353699,460
825.472168,459
825.590637,456
825.709106,454
825.827576,469
825.946045,460
826.064453,461
826.182983,447
826.301392,462
826.4198,445
826.53833,457
826.656738,459
826.775208,461
826.893677,471
827.012024,420
827.130493,456
827.248962,460
827.36731,465
827.485779,448
827.604248,469
827.722595,453
827.841064,445
827.959412,442
828.077942,453
828.196289,461
828.314636,455
828.433105,455
828.551514,454
828.669861,457
828.78833,463
828.906677,436
829.025085,474
829.143433,439
829.261841,452
829.38031,447
829.498657,455
829.617004,449
829.735413,442
829.85376,456
829.972107,453
830.090515,442
830.208862,453
830.327209,441
830.445557,447
830.563904,451
830.682312,468
830.800659,460
830.919006,473
831.037354,457
831.155701,434
831.274048,455
831.392395,464
831.51062,432
831.629028,455
831.747314,448
831.865662,467
831.984009,445
832.102356,457
832.220642,451
832.338928,455
832.457275,461
832.575623,451
832.693909,437
832.812134,458
832.930481,429
833.048828,442
833.167114,447
833.2854,445
833.403687,441
833.521973,442
833.640259,446
833.758545,465
833.876831,426
833.995056,436
834.113281,456
834.231628,452
834.349915,435
834.468201,474
834.586426,450
834.704651,444
834.822998,455
834.941162,460
835.059448,455
835.177673,463
835.295959,454
835.414246,456
835.53241,464
835.650635,463
835.768921,451
835.887146,453
836.005371,456
836.123596,464
836.241821,444
836.360046,435
836.478271,441
836.596497,451
836.714722,455
836.832886,443
836.95105,454
837.069336,459
837.1875,447
837.305725,457
837.423889,438
837.542053,457
837.660339,465
837.778503,461
837.896667,444
838.014832,475
838.132996,440
838.25116,444
838.369385,457
838.487488,450
838.605713,448
838.723877,453
838.84198,441
838.960205,467
839.078308,460
839.196472,459
839.314636,444
839.4328,464
839.550964,474
839.669067,457
839.787231,444
839.905396,451
840.023499,447
840.141602,467
840.259766,446
840.377869,463
840.495972,446
840.614136,450
840.732239,455
840.850342,459
840.968445,437
841.086548,451
841.204651,450
841.322754,431
841.440918,468
841.55896,469
841.677002,441
841.795166,447
841.913208,461
842.031311,451
842.149353,453
842.267456,465
842.385498,444
842.503601,463
842.621643,458
842.739746,471
842.857788,449
842.97583,431
843.093933,462
843.211975,467
843.330017,451
843.44812,462
843.566101,453
843.684204,472
843.802246,444
843.920227,448
844.038269,449
844.156311,448
844.274292,460
844.392395,453
844.510376,450
844.628357,436
844.74646,447
844.864441,437
844.982422,459
845.100403,456
845.218384,458
845.336426,454
845.454468,459
845.572449,451
845.69043,431
845.808411,436
845.926453,447
846.044373,454
846.162354,463
846.280396,469
846.398315,453
846.516296,453
846.634216,451
846.752197,453
846.870178,454
846.988098,440
847.106079,442
847.22406,452
847.34198,443
847.4599,453
847.577881,471
847.695801,443
847.813782,444
847.931641,459
848.049561,454
848.167603,465
848.285461,453
848.403381,493
848.521362,451
848.639221,447
848.75708,456
848.875,462
848.99292,469
849.110901,451
849.22876,461
849.34668,457
849.464539,452
849.582458,440
849.700317,449
849.818176,457
849.936096,435
850.053955,459
850.171875,453
850.289673,467
850.407593,440
850.525452,470
850.643311,469
850.761169,463
850.878967,471
850.996887,464
851.114746,440
851.232544,444
851.350403,444
851.468262,443
851.58606,448
851.703979,455
851.821777,444
851.939636,450
852.057434,442
852.175232,453
852.293091,432
852.410889,462
852.528687,467
852.646545,470
852.764343,445
852.88208,472
852.999939,444
853.117676,454
853.235535,461
853.353271,440
853.471069,451
853.588928,461
853.706604,442
853.824402,448
853.9422,435
854.059998,425
854.177734,466
854.295532,465
854.413269,472
854.531006,465
854.648804,461
854.766541,451
854.884277,459
855.002014,455
855.119751,458
855.237549,449
855.355225,449
855.473022,464
855.590698,427
855.708435,451
855.826172,458
855.943848,450
856.061646,467
856.179321,443
856.296997,452
856.414795,455
856.53241,459
856.650085,450
856.767822,448
856.885559,449
857.003174,454
857.120911,459
857.238586,475
857.356201,459
857.473938,448
857.591614,431
857.709351,457
857.826965,460
857.944641,448
858.062317,452
858.179993,450
858.297668,447
858.415283,447
858.532959,451
858.650574,448
858.768188,473
858.885803,444
859.003479,436
859.121094,445
859.23877,478
859.356384,439
859.473999,436
859.591675,440
859.709229,464
859.826843,444
859.944458,445
860.062012,436
860.179626,458
860.297302,453
860.414856,450
860.532471,455
860.650024,456
860.767639,474
860.885193,468
861.002808,450
861.120361,445
861.237976,458
861.35553,439
861.473022,473
861.590698,451
861.708191,451
861.825745,458
861.943298,435
862.060852,443
862.178406,442
862.295959,440
862.413513,463
862.531006,454
862.64856,458
862.766113,458
862.883667,466
863.00116,469
863.118713,448
863.236206,464
863.353699,449
863.471252,464
863.588745,457
863.706177,454
863.82373,461
863.941162,442
864.058716,452
864.176208,453
864.29364,436
864.411194,470
864.528687,448
864.646118,445
864.763611,477
864.881042,437
864.998535,434
865.116028,463
865.233459,444
865.350891,445
865.468384,449
865.585754,460
865.703308,455
865.820679,451
865.938171,443
866.055542,466
866.173035,451
866.290466,432
866.407837,446
866.52533,460
866.6427,466
866.760071,447
866.877563,442
866.994934,451
867.112305,453
867.229736,454
867.347107,461
867.464539,476
867.58197,457
867.699341,468
867.81665,456
867.934082,479
868.051453,461
868.168823,471
868.286194,457
868.403564,469
868.520935,452
868.638306,432
868.755676,461
868.872986,447
868.990295,457
869.107727,452
869.225037,455
869.342346,457
869.459717,462
869.577026,442
869.694336,456
869.811707,441
869.929016,462
870.046326,441
870.163635,453
870.280945,449
870.398254,450
870.515564,465
870.632812,461
870.750183,441
870.867432,462
870.984741,457
871.102051,466
871.219299,455
871.336609,458
871.453918,458
871.571106,459
871.688416,449
871.805664,460
871.922852,467
872.040222,459
872.157471,453
872.274719,467
872.391968,462
872.509155,442
872.626465,456
872.743652,452
872.860962,463
872.978149,450
873.095337,467
873.212646,461
873.329834,462
873.44696,461
873.564209,453
873.681396,470
873.798645,464
873.915894,474
874.03302,448
874.150208,465
874.267456,473
874.384583,462
874.501831,462
874.618958,468
874.736145,467
874.853333,458
874.970459,453
875.087646,460
875.204834,472
875.32196,457
875.439148,448
875.556274,431
875.673401,465
875.790527,456
875.907715,458
876.024841,447
876.141968,460
876.259094,459
876.376282,461
876.493347,463
876.610474,479
876.7276,453
876.844727,476
876.961853,462
877.078918,443
877.195984,474
877.313171,464
877.430237,438
877.547302,456
877.664368,461
877.781433,463
877.898499,455
878.015625,477
878.13269,469
878.249695,462
878.366821,447
878.483887,451
878.600952,454
878.717957,473
878.834961,469
878.952087,474
879.069092,461
879.186157,471
879.303162,460
879.420227,454
879.537231,451
879.654236,463
879.77124,449
879.888306,457
880.005249,459
880.122314,475
880.239319,451
880.356323,450
880.473328,447
880.590271,444
880.707275,449
880.824341,463
880.941284,463
881.058228,452
881.175232,440
881.292236,469
881.40918,454
881.526123,435
881.643066,453
881.760071,453
881.877014,456
881.993958,465
882.11084,437
882.227783,463
882.344727,431
882.46167,473
882.578613,450
882.695618,465
882.812439,445
882.929382,461
883.046326,452
883.163208,454
883.280151,449
883.397034,448
883.513916,455
883.630798,429
883.747742,445
883.864563,479
883.981506,462
884.098389,458
884.21521,455
884.332153,463
884.448975,452
884.565796,468
884.682678,462
884.7995,456
884.916443,465
885.033264,472
885.150085,482
885.266968,443
885.383789,471
885.500671,457
885.617493,452
885.734314,482
885.851196,462
885.967896,472
886.084717,466
886.201599,473
886.318359,457
886.435181,466
886.552002,460
886.668762,468
886.785645,469
886.902344,466
887.019165,466
887.135925,470
887.252747,473
887.369446,483
887.486267,448
887.603027,470
887.719788,447
887.836548,464
887.953247,445
888.070068,465
888.186829,456
888.303528,460
888.420288,446
888.536987,461
888.653687,466
888.770447,469
888.887146,457
889.003967,455
889.120667,464
889.237305,457
889.354065,452
889.470703,445
889.587463,448
889.704163,474
889.820862,474
889.937561,469
890.054199,448
890.170837,444
890.287598,441
890.404236,474
890.520874,461
890.637634,476
890.754211,447
890.87085,457
890.987549,459
891.104187,474
891.220886,444
891.337463,465
891.454102,462
891.57074,459
891.687378,478
891.804077,454
891.920654,452
892.037231,486
892.15387,467
892.270447,484
892.387085,444
892.503723,444
892.6203,441
892.736877,467
892.853516,453
892.970032,466
893.08667,469
893.203186,469
893.319763,454
893.43634,441
893.552917,477
893.669556,474
893.786011,432
893.902588,455
894.019165,443
894.135681,462
894.252197,470
894.368835,486
894.485291,451
894.601868,476
894.718384,464
894.8349,459
894.951355,465
895.067932,470
895.184448,448
895.300964,443
895.417419,477
895.533936,483
895.650452,458
895.766907,468
895.883423,459
895.999878,456
896.116333,460
896.232849,487
896.349304,464
896.465759,457
896.582214,490
896.698669,464
896.815125,466
896.931641,445
897.048035,443
897.164551,471
897.280884,462
897.397339,471
897.513794,455
897.630249,464
897.746582,477
897.863098,467
897.979431,460
898.095886,460
898.212341,466
898.328674,461
898.445129,453
898.561462,471
898.677795,472
898.794312,457
898.910645,445
899.026978,466
899.143433,455
899.259766,471
899.37616,450
899.492493,493
899.608765,468
899.725159,466
899.841553,456
899.957947,466
900.07428,459
900.190552,456
900.306946,467
900.423157,439
900.53949,478
900.655884,446
900.772156,459
900.888489,458
901.004822,459
901.121033,482
901.237366,455
901.353699,484
901.46991,473
901.586304,476
901.702515,492
901.818787,469
901.93512,465
902.051331,460
902.167603,460
902.283875,483
902.400085,453
902.516418,473
902.632629,470
902.74884,473
902.865112,461
902.981384,455
903.097595,469
903.213867,492
903.330017,466
903.446289,475
903.5625,470
903.67865,473
903.794922,493
903.911072,465
904.027344,468
904.143494,478
904.259705,459
904.375916,472
904.492065,483
904.608215,495
904.724426,470
904.840576,488
904.956726,439
905.072876,478
905.189087,465
905.305176,460
905.421387,462
905.537537,464
905.653687,468
905.769775,474
905.885925,456
906.002014,477
906.118164,471
906.234314,463
906.350403,477
906.466492,482
906.582642,446
906.69873,457
906.814758,478
906.930908,475
907.046936,466
907.163086,474
907.279175,469
907.395264,451
907.511353,444
907.62738,480
907.743408,460
907.859497,469
907.975525,455
908.091553,471
908.207703,482
908.32373,461
908.439758,471
908.555786,468
908.671814,472
908.787842,456
908.90387,464
909.019775,472
909.135864,450
909.251892,471
909.367859,446
909.483826,473
909.599854,474
909.715881,466
909.831848,451
909.947815,461
910.063782,454
910.179749,461
910.295776,472
910.411743,456
910.527649,462
910.643616,461
910.759583,469
910.875488,496
910.991455,470
911.107361,474
911.223267,455
911.339294,470
911.4552,462
911.571106,484
911.687073,477
911.802979,477
911.918823,464
912.034729,468
912.150635,467
912.266602,480
912.382446,470
912.498352,465
912.614197,477
912.730103,472
912.846008,474
