792.44574,597
792.56488,610
792.68396,677
792.80304,634
792.92218,599
793.041199,580
793.160339,564
793.279419,560
793.398499,560
793.517578,559
793.636658,569
793.755737,590
793.874817,561
793.993896,576
794.112976,561
794.232056,568
794.351074,555
794.470215,538
794.589233,549
794.708313,552
794.827393,555
794.946411,537
795.065552,559
795.18457,577
795.303589,551
795.422668,563
795.541687,563
795.660767,542
795.779846,553
795.898865,545
796.017883,532
796.136963,527
796.255981,538
796.375061,541
796.49408,548
796.613037,529
796.732117,543
796.851135,537
796.970154,536
797.089233,555
797.208191,546
797.327271,534
797.446228,545
797.565186,533
797.684265,547
797.803223,531
797.922241,537
798.04126,551
798.160278,535
798.279297,517
798.398315,523
798.517273,533
798.636292,530
798.75531,559
798.874268,558
798.993286,550
799.112244,536
799.231323,504
799.350281,533
799.469238,538
799.588257,540
799.707153,561
799.826111,540
799.945129,544
800.064087,535
800.183044,529
800.302063,549
800.421021,543
800.539978,532
800.658936,549
800.777893,537
800.896912,530
801.015747,521
801.134705,530
801.253723,524
801.37262,551
801.491638,534
801.610535,536
801.729492,541
801.84845,516
801.967407,525
802.086243,525
802.205261,549
802.324158,532
802.443115,529
802.562073,530
802.680969,523
802.799927,534
802.918762,562
803.037659,539
803.156677,522
803.275574,527
803.39447,522
803.513428,532
803.632263,540
803.751221,537
803.870117,522
803.989014,525
804.107971,532
804.226746,541
804.345642,545
804.4646,525
804.583496,537
804.702393,536
804.821228,575
804.940125,540
805.059021,521
805.177917,561
805.296814,540
805.415649,545
805.534546,532
805.653442,521
805.772278,554
805.891113,542
806.01001,528
806.128906,529
806.247742,549
806.366577,551
806.485413,529
806.604309,548
806.723145,535
806.84198,552
806.960876,526
807.079712,542
807.198486,537
807.317383,544
807.436218,554
807.554993,548
807.673889,552
807.792725,546
807.91156,526
808.030396,538
808.14917,559
808.268005,566
808.386841,548
808.505676,576
808.624451,534
808.743286,554
808.862122,549
808.980896,555
809.099731,543
809.218506,531
809.337341,550
809.456116,544
809.57489,527
809.693726,529
809.8125,537
809.931274,554
810.050049,535
810.168884,543
810.287659,555
810.406372,542
810.525269,534
810.643982,545
810.762756,544
810.881531,549
811.000305,529
811.11908,540
811.237854,541
811.356567,545
811.475403,548
811.594116,556
811.71283,533
811.831604,546
811.950378,532
812.069153,556
812.187927,519
812.30658,559
812.425415,561
812.544128,530
812.662781,542
812.781616,548
812.900269,533
813.019043,552
813.137756,541
813.256531,542
813.375244,545
813.493896,556
813.612671,546
813.731384,546
813.850037,551
813.96875,560
814.087524,529
814.206238,563
814.324951,539
814.443604,524
814.562256,552
814.68103,526
814.799683,507
814.918335,543
815.037109,543
815.155762,555
815.274475,518
815.393188,546
815.511841,545
815.630554,520
815.749146,536
815.867859,540
815.986572,532
816.105164,554
816.223877,530
816.342529,547
816.461182,538
816.579895,540
816.698486,513
816.817139,517
816.935791,554
817.054504,550
817.173096,542
817.291748,533
817.4104,511
817.529053,520
817.647644,534
817.766235,540
817.884949,507
818.00354,529
818.122192,507
818.240845,514
818.359436,517
818.478088,503
818.59668,495
818.715271,490
818.833923,494
818.952515,494
819.071106,492
819.189758,504
819.30835,467
819.426941,499
819.545532,476
819.664124,506
819.782715,485
819.901306,478
820.019897,479
820.138489,497
820.25708,494
820.375671,470
820.494202,487
820.612732,472
820.731384,489
820.849915,502
820.968506,473
821.087097,455
821.205627,472
821.324158,481
821.442749,478
821.561279,465
821.679871,484
821.798401,484
821.916931,475
822.035461,454
822.154053,479
822.272583,473
822.391174,458
822.509583,478
822.628174,489
822.746704,462
822.865234,477
822.983765,473
823.102295,466
823.220825,496
823.339294,468
823.457825,477
823.576355,483
823.694824,452
823.813354,460
823.931885,460
824.050354,460
824.168884,466
824.287354,481
824.405823,486
824.524353,479
824.642822,477
824.761353,477
824.879822,477
824.998291,481
825.116699,459
825.235291,482
825.353699,470
825.472168,454
825.590637,479
825.709106,461
825.827576,479
825.946045,470
826.064453,453
826.182983,487
826.301392,478
826.4198,464
826.53833,470
826.656738,452
826.775208,462
826.893677,453
827.012024,463
827.130493,447
827.248962,457
827.36731,468
827.485779,462
827.604248,451
827.722595,442
827.841064,457
827.959412,462
828.077942,448
828.196289,463
828.314636,466
828.433105,477
828.551514,458
828.669861,466
828.78833,428
828.906677,466
829.025085,471
829.143433,449
829.261841,458
829.38031,482
829.498657,480
829.617004,459
829.735413,456
829.85376,466
829.972107,458
830.090515,455
830.208862,459
830.327209,453
830.445557,435
830.563904,468
830.682312,444
830.800659,456
830.919006,437
831.037354,481
831.155701,452
831.274048,466
831.392395,449
831.51062,462
831.629028,468
831.747314,447
831.865662,456
831.984009,440
832.102356,467
832.220642,451
832.338928,490
832.457275,471
832.575623,468
832.693909,463
832.812134,459
832.930481,449
833.048828,465
833.167114,441
833.2854,434
833.403687,451
833.521973,452
833.640259,476
833.758545,458
833.876831,446
833.995056,469
834.113281,447
834.231628,458
834.349915,434
834.468201,458
834.586426,448
834.704651,452
834.822998,451
834.941162,444
835.059448,466
835.177673,447
835.295959,431
835.414246,458
835.53241,464
835.650635,476
835.768921,431
835.887146,468
836.005371,486
836.123596,457
836.241821,465
836.360046,462
836.478271,446
836.596497,456
836.714722,443
836.832886,458
836.95105,473
837.069336,449
837.1875,468
837.305725,477
837.423889,462
837.542053,464
837.660339,449
837.778503,458
837.896667,475
838.014832,452
838.132996,465
838.25116,468
838.369385,457
838.487488,468
838.605713,453
838.723877,448
838.84198,478
838.960205,451
839.078308,452
839.196472,456
839.314636,451
839.4328,458
839.550964,449
839.669067,446
839.787231,449
839.905396,474
840.023499,459
840.141602,471
840.259766,463
840.377869,444
840.495972,473
840.614136,459
840.732239,462
840.850342,453
840.968445,447
841.086548,455
841.204651,461
841.322754,460
841.440918,447
841.55896,439
841.677002,460
841.795166,451
841.913208,457
842.031311,484
842.149353,453
842.267456,457
842.385498,461
842.503601,463
842.621643,465
842.739746,451
842.857788,469
842.97583,450
843.093933,459
843.211975,439
843.330017,453
843.44812,453
843.566101,471
843.684204,434
843.802246,465
843.920227,463
844.038269,456
844.156311,457
844.274292,451
844.392395,453
844.510376,455
844.628357,462
844.74646,437
844.864441,443
844.982422,454
845.100403,451
845.218384,467
845.336426,448
845.454468,458
845.572449,470
845.69043,462
845.808411,468
845.926453,467
846.044373,442
846.162354,453
846.280396,462
846.398315,441
846.516296,462
846.634216,451
846.752197,442
846.870178,450
846.988098,451
847.106079,454
847.22406,445
847.34198,446
847.4599,447
847.577881,474
847.695801,465
847.813782,459
847.931641,439
848.049561,464
848.167603,445
848.285461,454
848.403381,453
848.521362,458
848.639221,472
848.75708,456
848.875,450
848.99292,447
849.110901,447
849.22876,440
849.34668,451
849.464539,463
849.582458,454
849.700317,470
849.818176,451
849.936096,456
850.053955,467
850.171875,471
850.289673,452
850.407593,437
850.525452,452
850.643311,443
850.761169,454
850.878967,465
850.996887,441
851.114746,475
851.232544,451
851.350403,467
851.468262,450
851.58606,454
851.703979,457
851.821777,436
851.939636,436
852.057434,452
852.175232,464
852.293091,440
852.410889,440
852.528687,442
852.646545,482
852.764343,459
852.88208,457
852.999939,462
853.117676,458
853.235535,444
853.353271,444
853.471069,464
853.588928,459
853.706604,461
853.824402,448
853.9422,465
854.059998,455
854.177734,459
854.295532,440
854.413269,452
854.531006,442
854.648804,455
854.766541,466
854.884277,472
855.002014,452
855.119751,476
855.237549,455
855.355225,462
855.473022,459
855.590698,458
855.708435,457
855.826172,473
855.943848,467
856.061646,472
856.179321,453
856.296997,441
856.414795,448
856.53241,461
856.650085,466
856.767822,460
856.885559,457
857.003174,458
857.120911,451
857.238586,475
857.356201,460
857.473938,474
857.591614,453
857.709351,473
857.826965,458
857.944641,455
858.062317,484
858.179993,442
858.297668,430
858.415283,457
858.532959,452
858.650574,463
858.768188,455
858.885803,461
859.003479,454
859.121094,451
859.23877,472
859.356384,453
859.473999,447
859.591675,454
859.709229,451
859.826843,452
859.944458,452
860.062012,434
860.179626,454
860.297302,466
860.414856,457
860.532471,457
860.650024,481
860.767639,449
860.885193,469
861.002808,454
861.120361,454
861.237976,441
861.35553,471
861.473022,438
861.590698,454
861.708191,470
861.825745,449
861.943298,477
862.060852,460
862.178406,460
862.295959,462
862.413513,433
862.531006,449
862.64856,452
862.766113,452
862.883667,449
863.00116,465
863.118713,466
863.236206,449
863.353699,456
863.471252,464
863.588745,439
863.706177,466
863.82373,444
863.941162,465
864.058716,477
864.176208,448
864.29364,461
864.411194,440
864.528687,480
864.646118,486
864.763611,432
864.881042,452
864.998535,444
865.116028,460
865.233459,451
865.350891,462
865.468384,467
865.585754,446
865.703308,453
865.820679,446
865.938171,462
866.055542,468
866.173035,471
866.290466,468
866.407837,464
866.52533,453
866.6427,454
866.760071,458
866.877563,456
866.994934,456
867.112305,465
867.229736,469
867.347107,463
867.464539,480
867.58197,463
867.699341,464
867.81665,466
867.934082,446
868.051453,467
868.168823,461
868.286194,450
868.403564,462
868.520935,482
868.638306,471
868.755676,462
868.872986,454
868.990295,455
869.107727,454
869.225037,473
869.342346,458
869.459717,447
869.577026,451
869.694336,444
869.811707,470
869.929016,469
870.046326,467
870.163635,448
870.280945,485
870.398254,442
870.515564,470
870.632812,455
870.750183,444
870.867432,460
870.984741,454
871.102051,455
871.219299,459
871.336609,467
871.453918,448
871.571106,458
871.688416,464
871.805664,456
871.922852,465
872.040222,457
872.157471,453
872.274719,454
872.391968,456
872.509155,472
872.626465,460
872.743652,460
872.860962,460
872.978149,462
873.095337,469
873.212646,485
873.329834,462
873.44696,473
873.564209,457
873.681396,457
873.798645,467
873.915894,482
874.03302,471
874.150208,476
874.267456,439
874.384583,473
874.501831,464
874.618958,447
874.736145,453
874.853333,451
874.970459,462
875.087646,476
875.204834,443
875.32196,478
875.439148,466
875.556274,451
875.673401,452
875.790527,476
875.907715,459
876.024841,467
876.141968,463
876.259094,452
876.376282,453
876.493347,478
876.610474,467
876.7276,460
876.844727,447
876.961853,447
877.078918,473
877.195984,454
877.313171,455
877.430237,457
877.547302,436
877.664368,447
877.781433,453
877.898499,466
878.015625,462
878.13269,460
878.249695,469
878.366821,454
878.483887,466
878.600952,443
878.717957,462
878.834961,475
878.952087,470
879.069092,468
879.186157,469
879.303162,460
879.420227,471
879.537231,444
879.654236,464
879.77124,444
879.888306,441
880.005249,476
880.122314,475
880.239319,476
880.356323,470
880.473328,471
880.590271,466
880.707275,462
880.824341,461
880.941284,468
881.058228,457
881.175232,477
881.292236,463
881.40918,476
881.526123,458
881.643066,452
881.760071,462
881.877014,465
881.993958,456
882.11084,467
882.227783,465
882.344727,454
882.46167,457
882.578613,452
882.695618,462
882.812439,454
882.929382,462
883.046326,471
883.163208,461
883.280151,462
883.397034,449
883.513916,469
883.630798,466
883.747742,462
883.864563,463
883.981506,479
884.098389,467
884.21521,457
884.332153,466
884.448975,480
884.565796,470
884.682678,491
884.7995,452
884.916443,466
885.033264,468
885.150085,473
885.266968,475
885.383789,491
885.500671,473
885.617493,471
885.734314,473
885.851196,450
885.967896,473
886.084717,483
886.201599,486
886.318359,458
886.435181,460
886.552002,475
886.668762,465
886.785645,474
886.902344,481
887.019165,488
887.135925,463
887.252747,475
887.369446,454
887.486267,478
887.603027,459
887.719788,472
887.836548,474
887.953247,471
888.070068,470
888.186829,459
888.303528,427
888.420288,473
888.536987,484
888.653687,454
888.770447,459
888.887146,460
889.003967,482
889.120667,476
889.237305,462
889.354065,490
889.470703,478
889.587463,460
889.704163,454
889.820862,463
889.937561,471
890.054199,473
890.170837,472
890.287598,463
890.404236,477
890.520874,462
890.637634,468
890.754211,479
890.87085,470
890.987549,471
891.104187,470
891.220886,472
891.337463,450
891.454102,457
891.57074,460
891.687378,466
891.804077,484
891.920654,468
892.037231,455
892.15387,457
892.270447,466
892.387085,481
892.503723,460
892.6203,472
892.736877,464
892.853516,461
892.970032,477
893.08667,482
893.203186,458
893.319763,488
893.43634,447
893.552917,450
893.669556,466
893.786011,461
893.902588,458
894.019165,462
894.135681,480
894.252197,463
894.368835,491
894.485291,459
894.601868,468
894.718384,485
894.8349,459
894.951355,472
895.067932,449
895.184448,469
895.300964,471
895.417419,468
895.533936,461
895.650452,474
895.766907,462
895.883423,471
895.999878,441
896.116333,475
896.232849,460
896.349304,468
896.465759,482
896.582214,484
896.698669,491
896.815125,486
896.931641,470
897.048035,473
897.164551,476
897.280884,460
897.397339,483
897.513794,471
897.630249,485
897.746582,472
897.863098,476
897.979431,478
898.095886,468
898.212341,457
898.328674,462
898.445129,457
898.561462,478
898.677795,475
898.794312,470
898.910645,464
899.026978,490
899.143433,474
899.259766,481
899.37616,456
899.492493,466
899.608765,460
899.725159,472
899.841553,474
899.957947,480
900.07428,493
900.190552,458
900.306946,480
900.423157,469
900.53949,479
900.655884,462
900.772156,484
900.888489,471
901.004822,468
901.121033,468
901.237366,456
901.353699,468
901.46991,475
901.586304,467
901.702515,457
901.818787,471
901.93512,488
902.051331,473
902.167603,467
902.283875,469
902.400085,474
902.516418,481
902.632629,471
902.74884,484
902.865112,483
902.981384,491
903.097595,471
903.213867,488
903.330017,481
903.446289,474
903.5625,465
903.67865,491
903.794922,480
903.911072,467
904.027344,481
904.143494,464
904.259705,484
904.375916,468
904.492065,490
904.608215,467
904.724426,489
904.840576,477
904.956726,469
905.072876,476
905.189087,482
905.305176,469
905.421387,452
905.537537,489
905.653687,475
905.769775,472
905.885925,474
906.002014,472
906.118164,475
906.234314,467
906.350403,465
906.466492,497
906.582642,461
906.69873,485
906.814758,469
906.930908,477
907.046936,461
907.163086,502
907.279175,456
907.395264,481
907.511353,479
907.62738,488
907.743408,494
907.859497,481
907.975525,499
908.091553,460
908.207703,489
908.32373,495
908.439758,494
908.555786,477
908.671814,498
908.787842,457
908.90387,474
909.019775,467
909.135864,490
909.251892,486
909.367859,470
909.483826,455
909.599854,485
909.715881,485
909.831848,466
909.947815,468
910.063782,474
910.179749,449
910.295776,480
910.411743,488
910.527649,468
910.643616,492
910.759583,487
910.875488,471
910.991455,486
911.107361,471
911.223267,484
911.339294,492
911.4552,459
911.571106,490
911.687073,461
911.802979,457
911.918823,470
912.034729,472
912.150635,481
912.266602,469
912.382446,482
912.498352,485
912.614197,490
912.730103,479
912.846008,480
792.44574,600
792.56488,631
792.68396,651
792.80304,612
792.92218,582
793.041199,571
793.160339,589
793.279419,586
793.398499,559
793.517578,557
793.636658,566
793.755737,593
793.874817,579
793.993896,602
794.112976,558
794.232056,572
794.351074,548
794.470215,550
794.589233,576
794.708313,563
794.827393,551
794.946411,552
795.065552,564
795.18457,527
795.303589,556
795.422668,568
795.541687,562
795.660767,565
795.779846,549
795.898865,557
796.017883,550
796.136963,537
796.255981,548
796.375061,545
796.49408,539
796.613037,559
796.732117,555
796.851135,552
796.970154,527
797.089233,546
797.208191,532
797.327271,516
797.446228,530
797.565186,543
797.684265,543
797.803223,551
797.922241,539
798.04126,535
798.160278,539
798.279297,540
798.398315,547
798.517273,530
798.636292,513
798.75531,544
798.874268,536
798.993286,549
799.112244,547
799.231323,548
799.350281,547
799.469238,541
799.588257,556
799.707153,552
799.826111,536
799.945129,547
800.064087,534
800.183044,544
800.302063,539
800.421021,545
800.539978,549
800.658936,519
800.777893,522
800.896912,533
801.015747,521
801.134705,532
801.253723,531
801.37262,534
801.491638,519
801.610535,540
801.729492,530
801.84845,536
801.967407,542
802.086243,518
802.205261,525
802.324158,545
802.443115,523
802.562073,532
802.680969,541
802.799927,542
802.918762,537
803.037659,533
803.156677,543
803.275574,548
803.39447,543
803.513428,520
803.632263,552
803.751221,547
803.870117,553
803.989014,522
804.107971,548
804.226746,545
804.345642,524
804.4646,528
804.583496,539
804.702393,533
804.821228,538
804.940125,565
805.059021,541
805.177917,534
805.296814,536
805.415649,535
805.534546,520
805.653442,562
805.772278,554
805.891113,535
806.01001,531
806.128906,557
806.247742,546
806.366577,528
806.485413,539
806.604309,549
806.723145,534
806.84198,560
806.960876,559
807.079712,547
807.198486,553
807.317383,552
807.436218,530
807.554993,548
807.673889,535
807.792725,541
807.91156,529
808.030396,565
808.14917,558
808.268005,527
808.386841,567
808.505676,560
808.624451,544
808.743286,563
808.862122,552
808.980896,558
809.099731,528
809.218506,560
809.337341,539
809.456116,537
809.57489,550
809.693726,552
809.8125,541
809.931274,552
810.050049,522
810.168884,541
810.287659,540
810.406372,546
810.525269,570
810.643982,528
810.762756,523
810.881531,557
811.000305,548
811.11908,535
811.237854,535
811.356567,558
811.475403,554
811.594116,555
811.71283,542
811.831604,554
811.950378,552
812.069153,535
812.187927,545
812.30658,551
812.425415,561
812.544128,539
812.662781,573
812.781616,537
812.900269,550
813.019043,534
813.137756,551
813.256531,545
813.375244,557
813.493896,551
813.612671,561
813.731384,537
813.850037,544
813.96875,572
814.087524,542
814.206238,515
814.324951,533
814.443604,532
814.562256,529
814.68103,529
814.799683,544
814.918335,548
815.037109,525
815.155762,547
815.274475,520
815.393188,543
815.511841,538
815.630554,551
815.749146,528
815.867859,554
815.986572,530
816.105164,535
816.223877,572
816.342529,514
816.461182,532
816.579895,550
816.698486,540
816.817139,541
816.935791,548
817.054504,531
817.173096,551
817.291748,520
817.4104,556
817.529053,532
817.647644,534
817.766235,525
817.884949,513
818.00354,518
818.122192,519
818.240845,522
818.359436,501
818.478088,517
818.59668,511
818.715271,508
818.833923,483
818.952515,495
819.071106,490
819.189758,469
819.30835,507
819.426941,460
819.545532,492
819.664124,481
819.782715,466
819.901306,484
820.019897,490
820.138489,473
820.25708,477
820.375671,486
820.494202,482
820.612732,469
820.731384,477
820.849915,482
820.968506,479
821.087097,479
821.205627,493
821.324158,470
821.442749,476
821.561279,496
821.679871,472
821.798401,477
821.916931,475
822.035461,476
822.154053,482
822.272583,473
822.391174,481
822.509583,488
822.628174,478
822.746704,451
822.865234,466
822.983765,471
823.102295,458
823.220825,461
823.339294,477
823.457825,473
823.576355,465
823.694824,476
823.813354,465
823.931885,476
824.050354,471
824.168884,475
824.287354,470
824.405823,489
824.524353,465
824.642822,505
824.761353,465
824.879822,489
824.998291,484
825.116699,468
825.235291,467
825.353699,459
825.472168,465
825.590637,477
825.709106,479
825.827576,470
825.946045,459
826.064453,461
826.182983,458
826.301392,469
826.4198,463
826.53833,484
826.656738,452
826.775208,457
826.893677,445
827.012024,466
827.130493,454
827.248962,443
827.36731,470
827.485779,472
827.604248,472
827.722595,456
827.841064,478
827.959412,458
828.077942,457
828.196289,469
828.314636,458
828.433105,436
828.551514,464
828.669861,460
828.78833,464
828.906677,457
829.025085,462
829.143433,451
829.261841,485
829.38031,455
829.498657,460
829.617004,473
829.735413,468
829.85376,476
829.972107,467
830.090515,479
830.208862,460
830.327209,455
830.445557,486
830.563904,468
830.682312,447
830.800659,457
830.919006,465
831.037354,475
831.155701,463
831.274048,463
831.392395,432
831.51062,465
831.629028,447
831.747314,470
831.865662,440
831.984009,457
832.102356,464
832.220642,462
832.338928,459
832.457275,445
832.575623,451
832.693909,473
832.812134,458
832.930481,451
833.048828,476
833.167114,463
833.2854,456
833.403687,460
833.521973,451
833.640259,460
833.758545,455
833.876831,460
833.995056,444
834.113281,449
834.231628,451
834.349915,453
834.468201,457
834.586426,457
834.704651,463
834.822998,445
834.941162,455
835.059448,452
835.177673,467
835.295959,448
835.414246,451
835.53241,446
835.650635,469
835.768921,455
835.887146,468
836.005371,467
836.123596,438
836.241821,469
836.360046,467
836.478271,461
836.596497,455
836.714722,472
836.832886,464
836.95105,467
837.069336,479
837.1875,452
837.305725,468
837.423889,469
837.542053,464
837.660339,489
837.778503,450
837.896667,455
838.014832,463
838.132996,452
838.25116,455
838.369385,470
838.487488,467
838.605713,468
838.723877,475
838.84198,463
838.960205,473
839.078308,475
839.196472,448
839.314636,465
839.4328,465
839.550964,444
839.669067,451
839.787231,462
839.905396,476
840.023499,467
840.141602,458
840.259766,472
840.377869,452
840.495972,462
840.614136,456
840.732239,455
840.850342,448
840.968445,471
841.086548,461
841.204651,459
841.322754,454
841.440918,447
841.55896,457
841.677002,439
841.795166,453
841.913208,448
842.031311,467
842.149353,454
842.267456,469
842.385498,471
842.503601,437
842.621643,451
842.739746,461
842.857788,472
842.97583,466
843.093933,454
843.211975,452
843.330017,454
843.44812,462
843.566101,472
843.684204,447
843.802246,443
843.920227,455
844.038269,464
844.156311,454
844.274292,452
844.392395,454
844.510376,460
844.628357,452
844.74646,454
844.864441,465
844.982422,443
845.100403,468
845.218384,467
845.336426,469
845.454468,445
845.572449,468
845.69043,449
845.808411,455
845.926453,457
846.044373,445
846.162354,465
846.280396,451
846.398315,458
846.516296,461
846.634216,446
846.752197,454
846.870178,469
846.988098,452
847.106079,452
847.22406,458
847.34198,457
847.4599,458
847.577881,451
847.695801,454
847.813782,462
847.931641,477
848.049561,446
848.167603,455
848.285461,473
848.403381,447
848.521362,479
848.639221,451
848.75708,458
848.875,451
848.99292,466
849.110901,456
849.22876,457
849.34668,451
849.464539,463
849.582458,462
849.700317,445
849.818176,451
849.936096,452
850.053955,451
850.171875,467
850.289673,450
850.407593,456
850.525452,453
850.643311,455
850.761169,468
850.878967,467
850.996887,458
851.114746,462
851.232544,449
851.350403,459
851.468262,433
851.58606,467
851.703979,461
851.821777,467
851.939636,465
852.057434,458
852.175232,455
852.293091,454
852.410889,465
852.528687,486
852.646545,463
852.764343,461
852.88208,462
852.999939,473
853.117676,461
853.235535,460
853.353271,466
853.471069,455
853.588928,454
853.706604,456
853.824402,455
853.9422,471
854.059998,458
854.177734,457
854.295532,435
854.413269,462
854.531006,462
854.648804,457
854.766541,450
854.884277,466
855.002014,485
855.119751,456
855.237549,448
855.355225,478
855.473022,456
855.590698,463
855.708435,452
855.826172,456
855.943848,436
856.061646,470
856.179321,462
856.296997,462
856.414795,472
856.53241,466
856.650085,455
856.767822,454
856.885559,467
857.003174,464
857.120911,456
857.238586,453
857.356201,489
857.473938,471
857.591614,466
857.709351,464
857.826965,462
857.944641,443
858.062317,447
858.179993,469
858.297668,430
858.415283,482
858.532959,453
858.650574,446
858.768188,474
858.885803,459
859.003479,447
859.121094,450
859.23877,472
859.356384,461
859.473999,474
859.591675,448
859.709229,479
859.826843,453
859.944458,466
860.062012,448
860.179626,459
860.297302,466
860.414856,455
860.532471,461
860.650024,492
860.767639,457
860.885193,476
861.002808,465
861.120361,475
861.237976,482
861.35553,453
861.473022,457
861.590698,460
861.708191,460
861.825745,460
861.943298,445
862.060852,449
862.178406,464
862.295959,455
862.413513,467
862.531006,459
862.64856,454
862.766113,449
862.883667,451
863.00116,462
863.118713,469
863.236206,453
863.353699,473
863.471252,458
863.588745,463
863.706177,466
863.82373,472
863.941162,450
864.058716,452
864.176208,443
864.29364,462
864.411194,446
864.528687,463
864.646118,450
864.763611,439
864.881042,467
864.998535,462
865.116028,462
865.233459,451
865.350891,437
865.468384,440
865.585754,444
865.703308,455
865.820679,448
865.938171,461
866.055542,452
866.173035,461
866.290466,456
866.407837,460
866.52533,443
866.6427,457
866.760071,453
866.877563,477
866.994934,455
867.112305,456
867.229736,473
867.347107,452
867.464539,465
867.58197,472
867.699341,468
867.81665,469
867.934082,439
868.051453,444
868.168823,464
868.286194,475
868.403564,465
868.520935,450
868.638306,437
868.755676,479
868.872986,456
868.990295,470
869.107727,472
869.225037,463
869.342346,482
869.459717,470
869.577026,481
869.694336,461
869.811707,451
869.929016,479
870.046326,455
870.163635,449
870.280945,453
870.398254,455
870.515564,473
870.632812,460
870.750183,449
870.867432,488
870.984741,475
871.102051,480
871.219299,459
871.336609,468
871.453918,463
871.571106,467
871.688416,440
871.805664,458
871.922852,452
872.040222,468
872.157471,469
872.274719,474
872.391968,465
872.509155,449
872.626465,471
872.743652,477
872.860962,470
872.978149,472
873.095337,462
873.212646,455
873.329834,464
873.44696,458
873.564209,471
873.681396,458
873.798645,488
873.915894,478
874.03302,445
874.150208,448
874.267456,446
874.384583,459
874.501831,467
874.618958,484
874.736145,463
874.853333,457
874.970459,454
875.087646,451
875.204834,463
875.32196,471
875.439148,464
875.556274,483
875.673401,460
875.790527,463
875.907715,468
876.024841,435
876.141968,463
876.259094,466
876.376282,482
876.493347,462
876.610474,474
876.7276,479
876.844727,466
876.961853,474
877.078918,459
877.195984,456
877.313171,475
877.430237,473
877.547302,462
877.664368,460
877.781433,446
877.898499,479
878.015625,444
878.13269,459
878.249695,477
878.366821,470
878.483887,464
878.600952,463
878.717957,454
878.834961,464
878.952087,445
879.069092,464
879.186157,458
879.303162,461
879.420227,477
879.537231,458
879.654236,451
879.77124,460
879.888306,451
880.005249,464
880.122314,445
880.239319,458
880.356323,474
880.473328,465
880.590271,466
880.707275,483
880.824341,451
880.941284,471
881.058228,456
881.175232,470
881.292236,454
881.40918,467
881.526123,453
881.643066,455
881.760071,474
881.877014,453
881.993958,442
882.11084,475
882.227783,444
882.344727,475
882.46167,459
882.578613,457
882.695618,448
882.812439,473
882.929382,454
883.046326,474
883.163208,471
883.280151,458
883.397034,438
883.513916,464
883.630798,462
883.747742,492
883.864563,451
883.981506,482
884.098389,469
884.21521,469
884.332153,481
884.448975,468
884.565796,456
884.682678,459
884.7995,464
884.916443,483
885.033264,465
885.150085,490
885.266968,464
885.383789,469
885.500671,482
885.617493,467
885.734314,489
885.851196,457
885.967896,497
886.084717,469
886.201599,459
886.318359,487
886.435181,467
886.552002,456
886.668762,478
886.785645,473
886.902344,478
887.019165,479
887.135925,478
887.252747,469
887.369446,458
887.486267,462
887.603027,466
887.719788,459
887.836548,469
887.953247,473
888.070068,461
888.186829,466
888.303528,472
888.420288,474
888.536987,453
888.653687,457
888.770447,455
888.887146,450
889.003967,454
889.120667,484
889.237305,478
889.354065,477
889.470703,499
889.587463,476
889.704163,474
889.820862,465
889.937561,474
890.054199,443
890.170837,453
890.287598,481
890.404236,455
890.520874,456
890.637634,461
890.754211,463
890.87085,462
890.987549,481
891.104187,466
891.220886,454
891.337463,480
891.454102,470
891.57074,483
891.687378,474
891.804077,468
891.920654,474
892.037231,461
892.15387,472
892.270447,459
892.387085,490
892.503723,459
892.6203,470
892.736877,451
892.853516,464
892.970032,474
893.08667,461
893.203186,453
893.319763,485
893.43634,473
893.552917,470
893.669556,487
893.786011,489
893.902588,475
894.019165,469
894.135681,477
894.252197,479
894.368835,472
894.485291,485
894.601868,472
894.718384,461
894.8349,469
894.951355,473
895.067932,470
895.184448,470
895.300964,459
895.417419,478
895.533936,448
895.650452,457
895.766907,470
895.883423,488
895.999878,460
896.116333,459
896.232849,460
896.349304,480
896.465759,484
896.582214,471
896.698669,480
896.815125,485
896.931641,493
897.048035,463
897.164551,476
897.280884,454
897.397339,460
897.513794,465
897.630249,478
897.746582,464
897.863098,462
897.979431,473
898.095886,476
898.212341,477
898.328674,487
898.445129,481
898.561462,473
898.677795,482
898.794312,465
898.910645,484
899.026978,471
899.143433,476
899.259766,462
899.37616,460
899.492493,482
899.608765,471
899.725159,493
899.841553,459
899.957947,471
900.07428,470
900.190552,496
900.306946,452
900.423157,466
900.53949,481
900.655884,451
900.772156,487
900.888489,462
901.004822,500
901.121033,465
901.237366,475
901.353699,474
901.46991,485
901.586304,495
901.702515,494
901.818787,472
901.93512,476
902.051331,465
902.167603,492
902.283875,456
902.400085,500
902.516418,477
902.632629,486
902.74884,481
902.865112,492
902.981384,486
903.097595,477
903.213867,480
903.330017,490
903.446289,489
903.5625,473
903.67865,477
903.794922,481
903.911072,496
904.027344,476
904.143494,502
904.259705,478
904.375916,465
904.492065,483
904.608215,474
904.724426,473
904.840576,487
904.956726,489
905.072876,468
905.189087,469
905.305176,474
905.421387,486
905.537537,496
905.653687,471
905.769775,487
905.885925,499
906.002014,479
906.118164,482
906.234314,482
906.350403,478
906.466492,470
906.582642,486
906.69873,469
906.814758,474
906.930908,489
907.046936,459
907.163086,472
907.279175,485
907.395264,478
907.511353,473
907.62738,475
907.743408,486
907.859497,494
907.975525,478
908.091553,475
908.207703,460
908.32373,488
908.439758,485
908.555786,461
908.671814,460
908.787842,485
908.90387,476
909.019775,481
909.135864,470
909.251892,480
909.367859,484
909.483826,484
909.599854,491
909.715881,479
909.831848,474
909.947815,480
910.063782,467
910.179749,480
910.295776,474
910.411743,465
910.527649,481
910.643616,466
910.759583,471
910.875488,463
910.991455,483
911.107361,483
911.223267,476
911.339294,484
911.4552,477
911.571106,455
911.687073,485
911.802979,483
911.918823,487
912.034729,489
912.150635,469
912.266602,476
912.382446,482
912.498352,476
912.614197,492
912.730103,458
912.846008,484
792.44574,562
792.56488,603
792.68396,639
792.80304,603
792.92218,602
793.041199,568
793.160339,573
793.279419,577
793.398499,543
793.517578,540
793.636658,559
793.755737,570
793.874817,581
793.993896,573
794.112976,577
794.232056,553
794.351074,580
794.470215,564
794.589233,574
794.708313,556
794.827393,568
794.946411,538
795.065552,587
795.18457,545
795.303589,545
795.422668,548
795.541687,562
795.660767,545
795.779846,557
795.898865,522
796.017883,538
796.136963,515
796.255981,542
796.375061,540
796.49408,539
796.613037,540
796.732117,526
796.851135,556
796.970154,541
797.089233,524
797.208191,529
797.327271,526
797.446228,547
797.565186,531
797.684265,542
797.803223,552
797.922241,559
798.04126,532
798.160278,537
798.279297,557
798.398315,560
798.517273,557
798.636292,540
798.75531,546
798.874268,541
798.993286,538
799.112244,553
799.231323,538
799.350281,545
799.469238,500
799.588257,533
799.707153,545
799.826111,532
799.945129,542
800.064087,523
800.183044,528
800.302063,553
800.421021,551
800.539978,539
800.658936,528
800.777893,522
800.896912,530
801.015747,544
801.134705,531
801.253723,530
801.37262,525
801.491638,527
801.610535,527
801.729492,546
801.84845,533
801.967407,533
802.086243,537
802.205261,552
802.324158,531
802.443115,559
802.562073,544
802.680969,535
802.799927,537
802.918762,546
803.037659,529
803.156677,540
803.275574,540
803.39447,513
803.513428,532
803.632263,529
803.751221,530
803.870117,539
803.989014,545
804.107971,545
804.226746,548
804.345642,528
804.4646,516
804.583496,549
804.702393,521
804.821228,524
804.940125,535
805.059021,531
805.177917,537
805.296814,552
805.415649,541
805.534546,543
805.653442,523
805.772278,552
805.891113,552
806.01001,553
806.128906,536
806.247742,557
806.366577,560
806.485413,550
806.604309,526
806.723145,534
806.84198,554
806.960876,550
807.079712,539
807.198486,547
807.317383,556
807.436218,567
807.554993,536
807.673889,534
807.792725,552
807.91156,527
808.030396,561
808.14917,553
808.268005,552
808.386841,561
808.505676,545
808.624451,543
808.743286,522
808.862122,540
808.980896,544
809.099731,545
809.218506,570
809.337341,552
809.456116,540
809.57489,543
809.693726,551
809.8125,548
809.931274,562
810.050049,548
810.168884,544
810.287659,558
810.406372,558
810.525269,560
810.643982,544
810.762756,555
810.881531,555
811.000305,556
811.11908,529
811.237854,539
811.356567,557
811.475403,572
811.594116,561
811.71283,567
811.831604,549
811.950378,556
812.069153,529
812.187927,556
812.30658,540
812.425415,552
812.544128,546
812.662781,529
812.781616,523
812.900269,524
813.019043,540
813.137756,561
813.256531,553
813.375244,567
813.493896,553
813.612671,568
813.731384,536
813.850037,539
813.96875,563
814.087524,543
814.206238,529
814.324951,521
814.443604,543
814.562256,543
814.68103,542
814.799683,540
814.918335,546
815.037109,528
815.155762,543
815.274475,549
815.393188,530
815.511841,539
815.630554,532
815.749146,544
815.867859,510
815.986572,548
816.105164,511
816.223877,531
816.342529,537
816.461182,542
816.579895,556
816.698486,552
816.817139,520
816.935791,542
817.054504,538
817.173096,529
817.291748,529
817.4104,544
817.529053,523
817.647644,544
817.766235,519
817.884949,527
818.00354,504
818.122192,521
818.240845,517
818.359436,530
818.478088,498
818.59668,501
818.715271,510
818.833923,496
818.952515,487
819.071106,483
819.189758,496
819.30835,488
819.426941,481
819.545532,480
819.664124,505
819.782715,490
819.901306,470
820.019897,477
820.138489,465
820.25708,479
820.375671,508
820.494202,465
820.612732,467
820.731384,484
820.849915,478
820.968506,475
821.087097,472
821.205627,489
821.324158,468
821.442749,479
821.561279,477
821.679871,463
821.798401,477
821.916931,479
822.035461,470
822.154053,474
822.272583,474
822.391174,457
822.509583,467
822.628174,460
822.746704,474
822.865234,480
822.983765,467
823.102295,467
823.220825,479
823.339294,459
823.457825,496
823.576355,488
823.694824,478
823.813354,473
823.931885,452
824.050354,469
824.168884,466
824.287354,465
824.405823,466
824.524353,479
824.642822,490
824.761353,472
824.879822,479
824.998291,464
825.116699,450
825.235291,487
825.353699,477
825.472168,475
825.590637,469
825.709106,457
825.827576,456
825.946045,472
826.064453,461
826.182983,467
826.301392,464
826.4198,472
826.53833,436
826.656738,455
826.775208,473
826.893677,467
827.012024,444
827.130493,469
827.248962,462
827.36731,444
827.485779,462
827.604248,462
827.722595,450
827.841064,467
827.959412,445
828.077942,475
828.196289,465
828.314636,456
828.433105,456
828.551514,460
828.669861,452
828.78833,469
828.906677,445
829.025085,449
829.143433,464
829.261841,447
829.38031,482
829.498657,467
829.617004,470
829.735413,464
829.85376,452
829.972107,447
830.090515,442
830.208862,478
830.327209,451
830.445557,467
830.563904,461
830.682312,461
830.800659,468
830.919006,460
831.037354,437
831.155701,459
831.274048,450
831.392395,450
831.51062,460
831.629028,461
831.747314,435
831.865662,458
831.984009,469
832.102356,465
832.220642,448
832.338928,487
832.457275,436
832.575623,463
832.693909,457
832.812134,455
832.930481,464
833.048828,465
833.167114,483
833.2854,464
833.403687,448
833.521973,461
833.640259,451
833.758545,449
833.876831,471
833.995056,460
834.113281,452
834.231628,480
834.349915,465
834.468201,467
834.586426,457
834.704651,461
834.822998,457
834.941162,465
835.059448,462
835.177673,479
835.295959,441
835.414246,471
835.53241,449
835.650635,477
835.768921,447
835.887146,486
836.005371,452
836.123596,454
836.241821,455
836.360046,453
836.478271,459
836.596497,461
836.714722,457
836.832886,443
836.95105,443
837.069336,480
837.1875,452
837.305725,467
837.423889,448
837.542053,467
837.660339,480
837.778503,466
837.896667,485
838.014832,456
838.132996,475
838.25116,452
838.369385,466
838.487488,468
838.605713,455
838.723877,472
838.84198,465
838.960205,461
839.078308,481
839.196472,466
839.314636,448
839.4328,463
839.550964,476
839.669067,469
839.787231,449
839.905396,472
840.023499,468
840.141602,456
840.259766,458
840.377869,461
840.495972,447
840.614136,454
840.732239,447
840.850342,464
840.968445,470
841.086548,458
841.204651,467
841.322754,461
841.440918,473
841.55896,447
841.677002,451
841.795166,455
841.913208,458
842.031311,474
842.149353,453
842.267456,456
842.385498,461
842.503601,459
842.621643,462
842.739746,448
842.857788,457
842.97583,475
843.093933,450
843.211975,448
843.330017,443
843.44812,453
843.566101,441
843.684204,473
843.802246,442
843.920227,457
844.038269,459
844.156311,450
844.274292,465
844.392395,453
844.510376,453
844.628357,447
844.74646,445
844.864441,458
844.982422,458
845.100403,473
845.218384,457
845.336426,483
845.454468,430
845.572449,464
845.69043,456
845.808411,456
845.926453,450
846.044373,451
846.162354,455
846.280396,436
846.398315,451
846.516296,455
846.634216,443
846.752197,441
846.870178,441
846.988098,467
847.106079,460
847.22406,454
847.34198,442
847.4599,467
847.577881,447
847.695801,444
847.813782,457
847.931641,466
848.049561,462
848.167603,465
848.285461,446
848.403381,452
848.521362,494
848.639221,471
848.75708,447
848.875,466
848.99292,468
849.110901,450
849.22876,482
849.34668,472
849.464539,441
849.582458,440
849.700317,444
849.818176,466
849.936096,456
850.053955,466
850.171875,456
850.289673,470
850.407593,453
850.525452,464
850.643311,431
850.761169,468
850.878967,472
850.996887,460
851.114746,453
851.232544,463
851.350403,458
851.468262,464
851.58606,451
851.703979,447
851.821777,466
851.939636,450
852.057434,457
852.175232,448
852.293091,460
852.410889,447
852.528687,440
852.646545,454
852.764343,443
852.88208,464
852.999939,466
853.117676,468
853.235535,462
853.353271,463
853.471069,449
853.588928,467
853.706604,446
853.824402,452
853.9422,467
854.059998,460
854.177734,464
854.295532,473
854.413269,437
854.531006,436
854.648804,431
854.766541,469
854.884277,450
855.002014,460
855.119751,464
855.237549,462
855.355225,455
855.473022,440
855.590698,462
855.708435,468
855.826172,457
855.943848,455
856.061646,443
856.179321,481
856.296997,454
856.414795,457
856.53241,466
856.650085,462
856.767822,470
856.885559,483
857.003174,461
857.120911,460
857.238586,454
857.356201,487
857.473938,460
857.591614,450
857.709351,469
857.826965,469
857.944641,460
858.062317,456
858.179993,463
858.297668,438
858.415283,467
858.532959,464
858.650574,449
858.768188,458
858.885803,456
859.003479,459
859.121094,461
859.23877,450
859.356384,486
859.473999,465
859.591675,453
859.709229,461
859.826843,449
859.944458,440
860.062012,461
860.179626,452
860.297302,448
860.414856,458
860.532471,460
860.650024,445
860.767639,470
860.885193,472
861.002808,445
861.120361,472
861.237976,467
861.35553,465
861.473022,439
861.590698,468
861.708191,442
861.825745,449
861.943298,446
862.060852,465
862.178406,450
862.295959,464
862.413513,459
862.531006,474
862.64856,461
862.766113,443
862.883667,462
863.00116,457
863.118713,439
863.236206,437
863.353699,466
863.471252,455
863.588745,460
863.706177,472
863.82373,453
863.941162,471
864.058716,462
864.176208,463
864.29364,440
864.411194,466
864.528687,442
864.646118,467
864.763611,451
864.881042,452
864.998535,468
865.116028,454
865.233459,466
865.350891,463
865.468384,466
865.585754,463
865.703308,445
865.820679,436
865.938171,452
866.055542,468
866.173035,476
866.290466,452
866.407837,451
866.52533,455
866.6427,453
866.760071,441
866.877563,448
866.994934,464
867.112305,446
867.229736,466
867.347107,448
867.464539,476
867.58197,465
867.699341,459
867.81665,431
867.934082,469
868.051453,447
868.168823,454
868.286194,467
868.403564,448
868.520935,462
868.638306,469
868.755676,463
868.872986,467
868.990295,439
869.107727,487
869.225037,459
869.342346,458
869.459717,454
869.577026,457
869.694336,454
869.811707,466
869.929016,442
870.046326,465
870.163635,461
870.280945,452
870.398254,454
870.515564,483
870.632812,460
870.750183,467
870.867432,470
870.984741,466
871.102051,447
871.219299,477
871.336609,473
871.453918,469
871.571106,453
871.688416,457
871.805664,469
871.922852,452
872.040222,457
872.157471,474
872.274719,470
872.391968,461
872.509155,459
872.626465,459
872.743652,460
872.860962,467
872.978149,461
873.095337,452
873.212646,455
873.329834,482
873.44696,478
873.564209,448
873.681396,455
873.798645,466
873.915894,459
874.03302,472
874.150208,463
874.267456,466
874.384583,475
874.501831,461
874.618958,464
874.736145,468
874.853333,463
874.970459,465
875.087646,469
875.204834,460
875.32196,458
875.439148,465
875.556274,462
875.673401,475
875.790527,473
875.907715,459
876.024841,459
876.141968,464
876.259094,475
876.376282,451
876.493347,469
876.610474,463
876.7276,489
876.844727,484
876.961853,434
877.078918,477
877.195984,467
877.313171,468
877.430237,462
877.547302,471
877.664368,477
877.781433,469
877.898499,460
878.015625,456
878.13269,472
878.249695,469
878.366821,461
878.483887,454
878.600952,459
878.717957,437
878.834961,473
878.952087,464
879.069092,445
879.186157,466
879.303162,449
879.420227,479
879.537231,454
879.654236,443
879.77124,476
879.888306,477
880.005249,457
880.122314,457
880.239319,470
880.356323,449
880.473328,465
880.590271,460
880.707275,437
880.824341,468
880.941284,484
881.058228,460
881.175232,437
881.292236,481
881.40918,467
881.526123,456
881.643066,454
881.760071,474
881.877014,445
881.993958,469
882.11084,454
882.227783,452
882.344727,466
882.46167,445
882.578613,470
882.695618,455
882.812439,448
882.929382,459
883.046326,456
883.163208,473
883.280151,465
883.397034,462
883.513916,458
883.630798,461
883.747742,470
883.864563,472
883.981506,456
884.098389,474
884.21521,469
884.332153,479
884.448975,457
884.565796,465
884.682678,450
884.7995,449
884.916443,470
885.033264,461
885.150085,470
885.266968,458
885.383789,454
885.500671,461
885.617493,469
885.734314,473
885.851196,474
885.967896,484
886.084717,467
886.201599,471
886.318359,478
886.435181,491
886.552002,468
886.668762,476
886.785645,473
886.902344,485
887.019165,475
887.135925,480
887.252747,472
887.369446,471
887.486267,475
887.603027,461
887.719788,464
887.836548,478
887.953247,456
888.070068,486
888.186829,460
888.303528,465
888.420288,478
888.536987,436
888.653687,473
888.770447,480
888.887146,470
889.003967,462
889.120667,462
889.237305,483
889.354065,447
889.470703,478
889.587463,468
889.704163,476
889.820862,477
889.937561,466
890.054199,477
890.170837,457
890.287598,466
890.404236,468
890.520874,469
890.637634,456
890.754211,474
890.87085,480
890.987549,449
891.104187,480
891.220886,476
891.337463,477
891.454102,469
891.57074,475
891.687378,476
891.804077,477
891.920654,474
892.037231,461
892.15387,468
892.270447,490
892.387085,442
892.503723,465
892.6203,466
892.736877,462
892.853516,484
892.970032,488
893.08667,479
893.203186,470
893.319763,439
893.43634,469
893.552917,464
893.669556,477
893.786011,489
893.902588,465
894.019165,471
894.135681,480
894.252197,482
894.368835,458
894.485291,474
894.601868,473
894.718384,489
894.8349,464
894.951355,480
895.067932,477
895.184448,458
895.300964,470
895.417419,494
895.533936,480
895.650452,463
895.766907,484
895.883423,473
895.999878,477
896.116333,472
896.232849,470
896.349304,482
896.465759,482
896.582214,453
896.698669,467
896.815125,459
896.931641,477
897.048035,478
897.164551,485
897.280884,464
897.397339,472
897.513794,485
897.630249,475
897.746582,495
897.863098,466
897.979431,475
898.095886,468
898.212341,461
898.328674,495
898.445129,485
898.561462,456
898.677795,475
898.794312,468
898.910645,481
899.026978,481
899.143433,460
899.259766,472
899.37616,472
899.492493,462
899.608765,474
899.725159,476
899.841553,484
899.957947,460
900.07428,483
900.190552,474
900.306946,478
900.423157,486
900.53949,480
900.655884,477
900.772156,468
900.888489,469
901.004822,472
901.121033,468
901.237366,447
901.353699,464
901.46991,456
901.586304,478
901.702515,482
901.818787,484
901.93512,497
902.051331,478
902.167603,466
902.283875,509
902.400085,495
902.516418,467
902.632629,476
902.74884,503
902.865112,483
902.981384,492
903.097595,500
903.213867,464
903.330017,493
903.446289,471
903.5625,472
903.67865,493
903.794922,488
903.911072,471
904.027344,475
904.143494,478
904.259705,497
904.375916,472
904.492065,479
904.608215,477
904.724426,469
904.840576,462
904.956726,474
905.072876,480
905.189087,473
905.305176,477
905.421387,491
905.537537,469
905.653687,472
905.769775,482
905.885925,479
906.002014,483
906.118164,480
906.234314,501
906.350403,463
906.466492,483
906.582642,489
906.69873,473
906.814758,478
906.930908,470
907.046936,484
907.163086,499
907.279175,468
907.395264,482
907.511353,463
907.62738,496
907.743408,457
907.859497,487
907.975525,488
908.091553,494
908.207703,461
908.32373,476
908.439758,472
908.555786,482
908.671814,464
908.787842,489
908.90387,473
909.019775,465
909.135864,491
909.251892,478
909.367859,483
909.483826,489
909.599854,470
909.715881,484
909.831848,463
909.947815,486
910.063782,465
910.179749,492
910.295776,482
910.411743,492
910.527649,477
910.643616,474
910.759583,489
910.875488,505
910.991455,491
911.107361,494
911.223267,476
911.339294,478
911.4552,482
911.571106,470
911.687073,469
911.802979,482
911.918823,475
912.034729,472
912.150635,466
912.266602,493
912.382446,454
912.498352,480
912.614197,475
912.730103,471
912.846008,474
