792.44574,489
792.56488,513
792.68396,570
792.80304,562
792.92218,505
793.041199,486
793.160339,483
793.279419,529
793.398499,500
793.517578,492
793.636658,478
793.755737,489
793.874817,510
793.993896,508
794.112976,494
794.232056,492
794.351074,505
794.470215,483
794.589233,491
794.708313,471
794.827393,497
794.946411,494
795.065552,502
795.18457,489
795.303589,511
795.422668,503
795.541687,483
795.660767,496
795.779846,493
795.898865,482
796.017883,495
796.136963,494
796.255981,500
796.375061,483
796.49408,523
796.613037,486
796.732117,503
796.851135,507
796.970154,471
797.089233,481
797.208191,478
797.327271,482
797.446228,504
797.565186,494
797.684265,492
797.803223,484
797.922241,496
798.04126,469
798.160278,488
798.279297,459
798.398315,477
798.517273,476
798.636292,488
798.75531,492
798.874268,489
798.993286,470
799.112244,487
799.231323,474
799.350281,472
799.469238,494
799.588257,479
799.707153,500
799.826111,487
799.945129,506
800.064087,490
800.183044,483
800.302063,491
800.421021,481
800.539978,481
800.658936,462
800.777893,479
800.896912,474
801.015747,467
801.134705,476
801.253723,485
801.37262,481
801.491638,467
801.610535,492
801.729492,481
801.84845,477
801.967407,451
802.086243,468
802.205261,476
802.324158,481
802.443115,492
802.562073,461
802.680969,484
802.799927,456
802.918762,473
803.037659,489
803.156677,467
803.275574,467
803.39447,492
803.513428,481
803.632263,503
803.751221,484
803.870117,486
803.989014,474
804.107971,475
804.226746,478
804.345642,471
804.4646,488
804.583496,476
804.702393,478
804.821228,489
804.940125,473
805.059021,483
805.177917,472
805.296814,479
805.415649,476
805.534546,481
805.653442,478
805.772278,469
805.891113,481
806.01001,483
806.128906,477
806.247742,464
806.366577,479
806.485413,472
806.604309,483
806.723145,490
806.84198,467
806.960876,486
807.079712,489
807.198486,492
807.317383,497
807.436218,483
807.554993,487
807.673889,501
807.792725,496
807.91156,482
808.030396,482
808.14917,489
808.268005,477
808.386841,490
808.505676,463
808.624451,462
808.743286,496
808.862122,481
808.980896,481
809.099731,481
809.218506,514
809.337341,491
809.456116,467
809.57489,481
809.693726,485
809.8125,504
809.931274,477
810.050049,486
810.168884,469
810.287659,480
810.406372,484
810.525269,471
810.643982,483
810.762756,461
810.881531,462
811.000305,487
811.11908,486
811.237854,492
811.356567,501
811.475403,502
811.594116,489
811.71283,471
811.831604,481
811.950378,486
812.069153,473
812.187927,468
812.30658,487
812.425415,485
812.544128,476
812.662781,468
812.781616,486
812.900269,470
813.019043,466
813.137756,478
813.256531,485
813.375244,466
813.493896,465
813.612671,480
813.731384,480
813.850037,502
813.96875,489
814.087524,489
814.206238,460
814.324951,482
814.443604,471
814.562256,491
814.68103,452
814.799683,483
814.918335,469
815.037109,490
815.155762,471
815.274475,475
815.393188,473
815.511841,480
815.630554,480
815.749146,460
815.867859,469
815.986572,473
816.105164,468
816.223877,491
816.342529,470
816.461182,474
816.579895,456
816.698486,482
816.817139,479
816.935791,461
817.054504,481
817.173096,492
817.291748,454
817.4104,477
817.529053,478
817.647644,470
817.766235,444
817.884949,469
818.00354,461
818.122192,473
818.240845,461
818.359436,471
818.478088,462
818.59668,473
818.715271,452
818.833923,456
818.952515,445
819.071106,459
819.189758,434
819.30835,469
819.426941,464
819.545532,457
819.664124,456
819.782715,459
819.901306,452
820.019897,455
820.138489,452
820.25708,464
820.375671,464
820.494202,464
820.612732,445
820.731384,451
820.849915,447
820.968506,449
821.087097,454
821.205627,453
821.324158,460
821.442749,451
821.561279,457
821.679871,441
821.798401,450
821.916931,455
822.035461,471
822.154053,452
822.272583,443
822.391174,457
822.509583,444
822.628174,466
822.746704,458
822.865234,459
822.983765,443
823.102295,449
823.220825,453
823.339294,443
823.457825,441
823.576355,460
823.694824,451
823.813354,445
823.931885,462
824.050354,447
824.168884,434
824.287354,450
824.405823,456
824.524353,440
824.642822,452
824.761353,457
824.879822,453
824.998291,457
825.116699,457
825.235291,438
825.353699,434
825.472168,450
825.590637,445
825.709106,469
825.827576,440
825.946045,449
826.064453,464
826.182983,459
826.301392,440
826.4198,454
826.53833,448
826.656738,466
826.775208,437
826.893677,437
827.012024,455
827.130493,466
827.248962,462
827.36731,461
827.485779,437
827.604248,451
827.722595,441
827.841064,464
827.959412,436
828.077942,451
828.196289,449
828.314636,449
828.433105,453
828.551514,460
828.669861,442
828.78833,446
828.906677,451
829.025085,474
829.143433,470
829.261841,442
829.38031,433
829.498657,447
829.617004,460
829.735413,475
829.85376,451
829.972107,442
830.090515,461
830.208862,446
830.327209,452
830.445557,436
830.563904,443
830.682312,454
830.800659,443
830.919006,446
831.037354,441
831.155701,453
831.274048,429
831.392395,453
831.51062,444
831.629028,438
831.747314,450
831.865662,459
831.984009,424
832.102356,457
832.220642,452
832.338928,444
832.457275,445
832.575623,452
832.693909,443
832.812134,437
832.930481,433
833.048828,453
833.167114,430
833.2854,450
833.403687,440
833.521973,450
833.640259,442
833.758545,456
833.876831,424
833.995056,460
834.113281,452
834.231628,454
834.349915,443
834.468201,440
834.586426,435
834.704651,442
834.822998,451
834.941162,451
835.059448,455
835.177673,438
835.295959,460
835.414246,449
835.53241,451
835.650635,461
835.768921,430
835.887146,451
836.005371,457
836.123596,456
836.241821,450
836.360046,443
836.478271,441
836.596497,442
836.714722,435
836.832886,456
836.95105,453
837.069336,462
837.1875,434
837.305725,455
837.423889,434
837.542053,446
837.660339,472
837.778503,451
837.896667,437
838.014832,459
838.132996,446
838.25116,465
838.369385,436
838.487488,453
838.605713,435
838.723877,443
838.84198,452
838.960205,452
839.078308,450
839.196472,448
839.314636,437
839.4328,434
839.550964,441
839.669067,462
839.787231,443
839.905396,451
840.023499,453
840.141602,448
840.259766,429
840.377869,449
840.495972,447
840.614136,438
840.732239,442
840.850342,465
840.968445,452
841.086548,456
841.204651,433
841.322754,453
841.440918,462
841.55896,466
841.677002,436
841.795166,446
841.913208,448
842.031311,447
842.149353,450
842.267456,411
842.385498,442
842.503601,460
842.621643,459
842.739746,435
842.857788,448
842.97583,452
843.093933,440
843.211975,451
843.330017,440
843.44812,440
843.566101,446
843.684204,437
843.802246,443
843.920227,433
844.038269,449
844.156311,455
844.274292,442
844.392395,456
844.510376,448
844.628357,444
844.74646,450
844.864441,441
844.982422,441
845.100403,453
845.218384,450
845.336426,442
845.454468,455
845.572449,437
845.69043,432
845.808411,432
845.926453,425
846.044373,451
846.162354,460
846.280396,452
846.398315,444
846.516296,457
846.634216,437
846.752197,451
846.870178,436
846.988098,443
847.106079,437
847.22406,417
847.34198,451
847.4599,440
847.577881,427
847.695801,438
847.813782,428
847.931641,454
848.049561,424
848.167603,445
848.285461,446
848.403381,429
848.521362,430
848.639221,447
848.75708,445
848.875,438
848.99292,430
849.110901,455
849.22876,440
849.34668,449
849.464539,436
849.582458,456
849.700317,439
849.818176,444
849.936096,432
850.053955,443
850.171875,454
850.289673,448
850.407593,445
850.525452,437
850.643311,449
850.761169,435
850.878967,439
850.996887,441
851.114746,423
851.232544,448
851.350403,443
851.468262,450
851.58606,439
851.703979,432
851.821777,442
851.939636,459
852.057434,446
852.175232,459
852.293091,423
852.410889,445
852.528687,424
852.646545,460
852.764343,428
852.88208,436
852.999939,447
853.117676,436
853.235535,442
853.353271,447
853.471069,437
853.588928,439
853.706604,441
853.824402,456
853.9422,443
854.059998,456
854.177734,438
854.295532,434
854.413269,436
854.531006,450
854.648804,443
854.766541,447
854.884277,435
855.002014,435
855.119751,444
855.237549,448
855.355225,454
855.473022,453
855.590698,450
855.708435,463
855.826172,451
855.943848,458
856.061646,456
856.179321,451
856.296997,434
856.414795,456
856.53241,432
856.650085,446
856.767822,439
856.885559,464
857.003174,445
857.120911,460
857.238586,462
857.356201,460
857.473938,443
857.591614,445
857.709351,444
857.826965,433
857.944641,440
858.062317,455
858.179993,447
858.297668,472
858.415283,438
858.532959,452
858.650574,434
858.768188,448
858.885803,443
859.003479,446
859.121094,456
859.23877,442
859.356384,439
859.473999,456
859.591675,449
859.709229,449
859.826843,441
859.944458,458
860.062012,429
860.179626,440
860.297302,441
860.414856,448
860.532471,437
860.650024,454
860.767639,439
860.885193,440
861.002808,453
861.120361,439
861.237976,445
861.35553,456
861.473022,448
861.590698,446
861.708191,434
861.825745,443
861.943298,435
862.060852,453
862.178406,434
862.295959,451
862.413513,437
862.531006,447
862.64856,435
862.766113,446
862.883667,452
863.00116,454
863.118713,435
863.236206,448
863.353699,444
863.471252,445
863.588745,458
863.706177,452
863.82373,442
863.941162,437
864.058716,438
864.176208,442
864.29364,424
864.411194,439
864.528687,437
864.646118,472
864.763611,452
864.881042,437
864.998535,441
865.116028,444
865.233459,442
865.350891,446
865.468384,452
865.585754,441
865.703308,443
865.820679,446
865.938171,441
866.055542,440
866.173035,435
866.290466,448
866.407837,427
866.52533,448
866.6427,451
866.760071,442
866.877563,453
866.994934,434
867.112305,451
867.229736,443
867.347107,448
867.464539,461
867.58197,453
867.699341,438
867.81665,434
867.934082,459
868.051453,439
868.168823,451
868.286194,446
868.403564,456
868.520935,446
868.638306,461
868.755676,429
868.872986,462
868.990295,427
869.107727,452
869.225037,447
869.342346,462
869.459717,459
869.577026,483
869.694336,443
869.811707,458
869.929016,445
870.046326,466
870.163635,431
870.280945,442
870.398254,442
870.515564,460
870.632812,444
870.750183,463
870.867432,458
870.984741,460
871.102051,438
871.219299,446
871.336609,425
871.453918,459
871.571106,440
871.688416,466
871.805664,432
871.922852,448
872.040222,451
872.157471,460
872.274719,436
872.391968,460
872.509155,452
872.626465,456
872.743652,441
872.860962,449
872.978149,451
873.095337,457
873.212646,463
873.329834,457
873.44696,463
873.564209,458
873.681396,445
873.798645,439
873.915894,453
874.03302,448
874.150208,453
874.267456,458
874.384583,444
874.501831,452
874.618958,451
874.736145,445
874.853333,443
874.970459,457
875.087646,427
875.204834,449
875.32196,439
875.439148,467
875.556274,435
875.673401,472
875.790527,429
875.907715,443
876.024841,446
876.141968,473
876.259094,444
876.376282,444
876.493347,440
876.610474,442
876.7276,451
876.844727,457
876.961853,446
877.078918,463
877.195984,434
877.313171,463
877.430237,451
877.547302,444
877.664368,451
877.781433,452
877.898499,437
878.015625,459
878.13269,445
878.249695,453
878.366821,458
878.483887,457
878.600952,420
878.717957,469
878.834961,442
878.952087,462
879.069092,427
879.186157,453
879.303162,446
879.420227,457
879.537231,448
879.654236,439
879.77124,433
879.888306,472
880.005249,448
880.122314,452
880.239319,445
880.356323,444
880.473328,431
880.590271,450
880.707275,459
880.824341,456
880.941284,457
881.058228,461
881.175232,417
881.292236,451
881.40918,463
881.526123,442
881.643066,446
881.760071,465
881.877014,463
881.993958,444
882.11084,475
882.227783,455
882.344727,466
882.46167,437
882.578613,455
882.695618,451
882.812439,451
882.929382,444
883.046326,453
883.163208,448
883.280151,462
883.397034,439
883.513916,451
883.630798,447
883.747742,447
883.864563,449
883.981506,432
884.098389,435
884.21521,447
884.332153,460
884.448975,439
884.565796,451
884.682678,453
884.7995,444
884.916443,462
885.033264,466
885.150085,449
885.266968,458
885.383789,441
885.500671,468
885.617493,441
885.734314,456
885.851196,454
885.967896,458
886.084717,455
886.201599,465
886.318359,462
886.435181,447
886.552002,456
886.668762,459
886.785645,459
886.902344,474
887.019165,451
887.135925,448
887.252747,454
887.369446,466
887.486267,446
887.603027,433
887.719788,468
887.836548,463
887.953247,446
888.070068,460
888.186829,454
888.303528,462
888.420288,457
888.536987,467
888.653687,429
888.770447,474
888.887146,447
889.003967,447
889.120667,423
889.237305,458
889.354065,467
889.470703,470
889.587463,449
889.704163,468
889.820862,457
889.937561,454
890.054199,462
890.170837,449
890.287598,452
890.404236,457
890.520874,461
890.637634,460
890.754211,454
890.87085,473
890.987549,461
891.104187,476
891.220886,454
891.337463,471
891.454102,466
891.57074,425
891.687378,451
891.804077,464
891.920654,439
892.037231,464
892.15387,448
892.270447,457
892.387085,459
892.503723,454
892.6203,461
892.736877,443
892.853516,451
892.970032,460
893.08667,456
893.203186,454
893.319763,429
893.43634,461
893.552917,456
893.669556,456
893.786011,444
893.902588,473
894.019165,448
894.135681,452
894.252197,453
894.368835,470
894.485291,452
894.601868,472
894.718384,446
894.8349,456
894.951355,442
895.067932,457
895.184448,463
895.300964,452
895.417419,451
895.533936,461
895.650452,445
895.766907,471
895.883423,470
895.999878,465
896.116333,472
896.232849,450
896.349304,458
896.465759,452
896.582214,450
896.698669,474
896.815125,454
896.931641,469
897.048035,469
897.164551,458
897.280884,453
897.397339,476
897.513794,466
897.630249,466
897.746582,467
897.863098,465
897.979431,455
898.095886,479
898.212341,480
898.328674,452
898.445129,452
898.561462,454
898.677795,457
898.794312,453
898.910645,464
899.026978,454
899.143433,463
899.259766,465
899.37616,460
899.492493,453
899.608765,476
899.725159,483
899.841553,451
899.957947,483
900.07428,475
900.190552,450
900.306946,459
900.423157,474
900.53949,462
900.655884,468
900.772156,461
900.888489,458
901.004822,462
901.121033,455
901.237366,469
901.353699,453
901.46991,461
901.586304,460
901.702515,468
901.818787,466
901.93512,454
902.051331,464
902.167603,457
902.283875,449
902.400085,470
902.516418,490
902.632629,463
902.74884,477
902.865112,454
902.981384,464
903.097595,464
903.213867,472
903.330017,472
903.446289,476
903.5625,458
903.67865,474
903.794922,455
903.911072,470
904.027344,461
904.143494,462
904.259705,474
904.375916,481
904.492065,475
904.608215,479
904.724426,460
904.840576,469
904.956726,448
905.072876,479
905.189087,475
905.305176,461
905.421387,456
905.537537,453
905.653687,472
905.769775,462
905.885925,471
906.002014,469
906.118164,431
906.234314,464
906.350403,447
906.466492,486
906.582642,451
906.69873,476
906.814758,451
906.930908,461
907.046936,454
907.163086,457
907.279175,445
907.395264,491
907.511353,452
907.62738,461
907.743408,433
907.859497,484
907.975525,480
908.091553,470
908.207703,470
908.32373,480
908.439758,462
908.555786,460
908.671814,488
908.787842,477
908.90387,471
909.019775,465
909.135864,455
909.251892,465
909.367859,466
909.483826,458
909.599854,488
909.715881,466
909.831848,464
909.947815,479
910.063782,467
910.179749,477
910.295776,468
910.411743,467
910.527649,476
910.643616,451
910.759583,461
910.875488,477
910.991455,450
911.107361,491
911.223267,451
911.339294,482
911.4552,459
911.571106,473
911.687073,474
911.802979,474
911.918823,471
912.034729,457
912.150635,450
912.266602,470
912.382446,459
912.498352,466
912.614197,463
912.730103,459
912.846008,470
792.44574,466
792.56488,512
792.68396,584
792.80304,549
792.92218,519
793.041199,511
793.160339,478
793.279419,514
793.398499,494
793.517578,501
793.636658,488
793.755737,499
793.874817,530
793.993896,515
794.112976,506
794.232056,509
794.351074,505
794.470215,501
794.589233,506
794.708313,497
794.827393,482
794.946411,492
795.065552,503
795.18457,479
795.303589,488
795.422668,503
795.541687,513
795.660767,498
795.779846,485
795.898865,475
796.017883,497
796.136963,473
796.255981,494
796.375061,486
796.49408,507
796.613037,480
796.732117,480
796.851135,498
796.970154,494
797.089233,483
797.208191,504
797.327271,485
797.446228,483
797.565186,506
797.684265,485
797.803223,475
797.922241,497
798.04126,497
798.160278,507
798.279297,492
798.398315,475
798.517273,480
798.636292,489
798.75531,476
798.874268,492
798.993286,473
799.112244,474
799.231323,465
799.350281,499
799.469238,471
799.588257,484
799.707153,473
799.826111,497
799.945129,490
800.064087,488
800.183044,482
800.302063,483
800.421021,469
800.539978,461
800.658936,472
800.777893,502
800.896912,467
801.015747,492
801.134705,489
801.253723,488
801.37262,491
801.491638,494
801.610535,493
801.729492,471
801.84845,473
801.967407,506
802.086243,479
802.205261,494
802.324158,480
802.443115,476
802.562073,478
802.680969,468
802.799927,489
802.918762,494
803.037659,471
803.156677,472
803.275574,474
803.39447,492
803.513428,490
803.632263,479
803.751221,511
803.870117,488
803.989014,485
804.107971,486
804.226746,470
804.345642,474
804.4646,492
804.583496,469
804.702393,469
804.821228,488
804.940125,468
805.059021,491
805.177917,504
805.296814,470
805.415649,490
805.534546,475
805.653442,473
805.772278,491
805.891113,476
806.01001,489
806.128906,464
806.247742,478
806.366577,489
806.485413,498
806.604309,484
806.723145,485
806.84198,474
806.960876,497
807.079712,482
807.198486,488
807.317383,486
807.436218,489
807.554993,477
807.673889,488
807.792725,492
807.91156,498
808.030396,484
808.14917,495
808.268005,478
808.386841,480
808.505676,483
808.624451,470
808.743286,496
808.862122,468
808.980896,471
809.099731,466
809.218506,483
809.337341,468
809.456116,492
809.57489,471
809.693726,464
809.8125,496
809.931274,469
810.050049,478
810.168884,478
810.287659,508
810.406372,483
810.525269,484
810.643982,472
810.762756,494
810.881531,472
811.000305,493
811.11908,480
811.237854,480
811.356567,471
811.475403,492
811.594116,465
811.71283,493
811.831604,468
811.950378,493
812.069153,472
812.187927,482
812.30658,493
812.425415,480
812.544128,478
812.662781,468
812.781616,480
812.900269,513
813.019043,480
813.137756,476
813.256531,489
813.375244,484
813.493896,474
813.612671,499
813.731384,461
813.850037,492
813.96875,458
814.087524,493
814.206238,474
814.324951,497
814.443604,478
814.562256,469
814.68103,460
814.799683,500
814.918335,469
815.037109,476
815.155762,476
815.274475,479
815.393188,480
815.511841,473
815.630554,473
815.749146,482
815.867859,468
815.986572,478
816.105164,467
816.223877,475
816.342529,466
816.461182,491
816.579895,490
816.698486,483
816.817139,475
816.935791,487
817.054504,474
817.173096,481
817.291748,450
817.4104,461
817.529053,472
817.647644,477
817.766235,504
817.884949,469
818.00354,477
818.122192,457
818.240845,466
818.359436,494
818.478088,470
818.59668,479
818.715271,470
818.833923,468
818.952515,449
819.071106,446
819.189758,472
819.30835,464
819.426941,464
819.545532,456
819.664124,456
819.782715,470
819.901306,450
820.019897,471
820.138489,478
820.25708,458
820.375671,450
820.494202,443
820.612732,451
820.731384,452
820.849915,444
820.968506,458
821.087097,439
821.205627,465
821.324158,471
821.442749,448
821.561279,465
821.679871,468
821.798401,448
821.916931,452
822.035461,433
822.154053,453
822.272583,449
822.391174,461
822.509583,460
822.628174,467
822.746704,448
822.865234,456
822.983765,482
823.102295,466
823.220825,450
823.339294,438
823.457825,450
823.576355,459
823.694824,452
823.813354,458
823.931885,454
824.050354,464
824.168884,447
824.287354,436
824.405823,472
824.524353,456
824.642822,457
824.761353,466
824.879822,465
824.998291,459
825.116699,449
825.235291,450
825.353699,475
825.472168,463
825.590637,465
825.709106,455
825.827576,465
825.946045,468
826.064453,452
826.182983,455
826.301392,438
826.4198,452
826.53833,449
826.656738,469
826.775208,452
826.893677,452
827.012024,457
827.130493,468
827.248962,448
827.36731,453
827.485779,458
827.604248,467
827.722595,452
827.841064,453
827.959412,444
828.077942,459
828.196289,444
828.314636,462
828.433105,443
828.551514,448
828.669861,443
828.78833,450
828.906677,456
829.025085,459
829.143433,443
829.261841,456
829.38031,427
829.498657,440
829.617004,455
829.735413,447
829.85376,447
829.972107,441
830.090515,453
830.208862,456
830.327209,435
830.445557,448
830.563904,457
830.682312,447
830.800659,448
830.919006,462
831.037354,433
831.155701,439
831.274048,461
831.392395,444
831.51062,460
831.629028,452
831.747314,460
831.865662,464
831.984009,440
832.102356,458
832.220642,427
832.338928,445
832.457275,453
832.575623,470
832.693909,436
832.812134,447
832.930481,441
833.048828,428
833.167114,454
833.2854,444
833.403687,439
833.521973,464
833.640259,436
833.758545,457
833.876831,468
833.995056,439
834.113281,465
834.231628,426
834.349915,445
834.468201,443
834.586426,440
834.704651,453
834.822998,436
834.941162,459
835.059448,446
835.177673,440
835.295959,434
835.414246,458
835.53241,444
835.650635,446
835.768921,436
835.887146,432
836.005371,450
836.123596,461
836.241821,450
836.360046,440
836.478271,457
836.596497,447
836.714722,466
836.832886,464
836.95105,471
837.069336,434
837.1875,468
837.305725,438
837.423889,451
837.542053,459
837.660339,429
837.778503,432
837.896667,456
838.014832,439
838.132996,449
838.25116,447
838.369385,443
838.487488,464
838.605713,428
838.723877,452
838.84198,443
838.960205,453
839.078308,451
839.196472,440
839.314636,468
839.4328,446
839.550964,426
839.669067,471
839.787231,426
839.905396,459
840.023499,448
840.141602,444
840.259766,456
840.377869,433
840.495972,432
840.614136,464
840.732239,466
840.850342,450
840.968445,429
841.086548,465
841.204651,447
841.322754,451
841.440918,419
841.55896,460
841.677002,447
841.795166,440
841.913208,462
842.031311,449
842.149353,448
842.267456,462
842.385498,456
842.503601,445
842.621643,441
842.739746,458
842.857788,449
842.97583,443
843.093933,427
843.211975,451
843.330017,442
843.44812,459
843.566101,446
843.684204,445
843.802246,464
843.920227,444
844.038269,449
844.156311,461
844.274292,437
844.392395,448
844.510376,459
844.628357,438
844.74646,462
844.864441,446
844.982422,459
845.100403,460
845.218384,455
845.336426,440
845.454468,442
845.572449,440
845.69043,427
845.808411,455
845.926453,427
846.044373,447
846.162354,418
846.280396,443
846.398315,437
846.516296,429
846.634216,452
846.752197,449
846.870178,439
846.988098,468
847.106079,419
847.22406,461
847.34198,431
847.4599,451
847.577881,432
847.695801,450
847.813782,434
847.931641,457
848.049561,434
848.167603,469
848.285461,447
848.403381,440
848.521362,426
848.639221,436
848.75708,439
848.875,422
848.99292,452
849.110901,466
849.22876,428
849.34668,446
849.464539,438
849.582458,440
849.700317,436
849.818176,456
849.936096,443
850.053955,448
850.171875,446
850.289673,464
850.407593,445
850.525452,478
850.643311,435
850.761169,449
850.878967,453
850.996887,442
851.114746,452
851.232544,467
851.350403,441
851.468262,454
851.58606,451
851.703979,439
851.821777,438
851.939636,448
852.057434,434
852.175232,439
852.293091,445
852.410889,430
852.528687,456
852.646545,453
852.764343,453
852.88208,460
852.999939,436
853.117676,457
853.235535,440
853.353271,446
853.471069,441
853.588928,450
853.706604,448
853.824402,445
853.9422,439
854.059998,451
854.177734,445
854.295532,452
854.413269,425
854.531006,449
854.648804,425
854.766541,455
854.884277,437
855.002014,453
855.119751,457
855.237549,456
855.355225,437
855.473022,440
855.590698,442
855.708435,448
855.826172,442
855.943848,448
856.061646,443
856.179321,437
856.296997,439
856.414795,444
856.53241,454
856.650085,457
856.767822,436
856.885559,452
857.003174,442
857.120911,439
857.238586,465
857.356201,445
857.473938,442
857.591614,463
857.709351,429
857.826965,451
857.944641,471
858.062317,433
858.179993,433
858.297668,452
858.415283,443
858.532959,460
858.650574,448
858.768188,436
858.885803,456
859.003479,458
859.121094,445
859.23877,462
859.356384,444
859.473999,445
859.591675,444
859.709229,459
859.826843,432
859.944458,452
860.062012,439
860.179626,454
860.297302,452
860.414856,467
860.532471,456
860.650024,462
860.767639,442
860.885193,452
861.002808,445
861.120361,444
861.237976,443
861.35553,449
861.473022,444
861.590698,459
861.708191,455
861.825745,449
861.943298,456
862.060852,470
862.178406,441
862.295959,461
862.413513,420
862.531006,458
862.64856,442
862.766113,452
862.883667,439
863.00116,468
863.118713,435
863.236206,452
863.353699,446
863.471252,440
863.588745,450
863.706177,452
863.82373,457
863.941162,438
864.058716,456
864.176208,444
864.29364,436
864.411194,464
864.528687,441
864.646118,449
864.763611,422
864.881042,460
864.998535,431
865.116028,457
865.233459,444
865.350891,446
865.468384,460
865.585754,452
865.703308,459
865.820679,442
865.938171,450
866.055542,444
866.173035,445
866.290466,439
866.407837,442
866.52533,464
866.6427,448
866.760071,445
866.877563,459
866.994934,456
867.112305,465
867.229736,448
867.347107,466
867.464539,434
867.58197,456
867.699341,456
867.81665,455
867.934082,458
868.051453,453
868.168823,465
868.286194,437
868.403564,460
868.520935,454
868.638306,453
868.755676,453
868.872986,442
868.990295,468
869.107727,448
869.225037,452
869.342346,441
869.459717,443
869.577026,460
869.694336,456
869.811707,444
869.929016,439
870.046326,473
870.163635,456
870.280945,458
870.398254,434
870.515564,443
870.632812,466
870.750183,450
870.867432,447
870.984741,438
871.102051,437
871.219299,464
871.336609,450
871.453918,472
871.571106,444
871.688416,457
871.805664,444
871.922852,466
872.040222,438
872.157471,438
872.274719,444
872.391968,457
872.509155,456
872.626465,451
872.743652,433
872.860962,470
872.978149,453
873.095337,472
873.212646,457
873.329834,457
873.44696,449
873.564209,460
873.681396,438
873.798645,451
873.915894,455
874.03302,454
874.150208,449
874.267456,466
874.384583,448
874.501831,454
874.618958,449
874.736145,463
874.853333,450
874.970459,469
875.087646,453
875.204834,450
875.32196,443
875.439148,433
875.556274,448
875.673401,479
875.790527,439
875.907715,456
876.024841,447
876.141968,459
876.259094,454
876.376282,464
876.493347,451
876.610474,465
876.7276,438
876.844727,462
876.961853,443
877.078918,433
877.195984,465
877.313171,454
877.430237,453
877.547302,451
877.664368,452
877.781433,470
877.898499,460
878.015625,462
878.13269,438
878.249695,450
878.366821,447
878.483887,460
878.600952,440
878.717957,462
878.834961,453
878.952087,455
879.069092,445
879.186157,457
879.303162,455
879.420227,468
879.537231,434
879.654236,457
879.77124,447
879.888306,432
880.005249,446
880.122314,459
880.239319,466
880.356323,442
880.473328,455
880.590271,471
880.707275,460
880.824341,436
880.941284,443
881.058228,474
881.175232,460
881.292236,475
881.40918,462
881.526123,459
881.643066,461
881.760071,453
881.877014,446
881.993958,469
882.11084,464
882.227783,446
882.344727,473
882.46167,469
882.578613,446
882.695618,440
882.812439,439
882.929382,454
883.046326,460
883.163208,462
883.280151,456
883.397034,435
883.513916,446
883.630798,439
883.747742,443
883.864563,454
883.981506,448
884.098389,442
884.21521,445
884.332153,455
884.448975,449
884.565796,446
884.682678,445
884.7995,462
884.916443,472
885.033264,471
885.150085,439
885.266968,465
885.383789,457
885.500671,467
885.617493,447
885.734314,474
885.851196,463
885.967896,461
886.084717,456
886.201599,466
886.318359,475
886.435181,478
886.552002,456
886.668762,465
886.785645,457
886.902344,440
887.019165,435
887.135925,451
887.252747,432
887.369446,457
887.486267,457
887.603027,478
887.719788,451
887.836548,472
887.953247,442
888.070068,456
888.186829,451
888.303528,457
888.420288,449
888.536987,454
888.653687,432
888.770447,454
888.887146,451
889.003967,457
889.120667,447
889.237305,444
889.354065,446
889.470703,447
889.587463,441
889.704163,474
889.820862,455
889.937561,457
890.054199,456
890.170837,442
890.287598,460
890.404236,471
890.520874,441
890.637634,463
890.754211,468
890.87085,459
890.987549,458
891.104187,466
891.220886,462
891.337463,465
891.454102,443
891.57074,474
891.687378,469
891.804077,460
891.920654,466
892.037231,451
892.15387,465
892.270447,466
892.387085,448
892.503723,470
892.6203,469
892.736877,465
892.853516,457
892.970032,483
893.08667,458
893.203186,465
893.319763,460
893.43634,473
893.552917,455
893.669556,481
893.786011,452
893.902588,474
894.019165,466
894.135681,466
894.252197,440
894.368835,466
894.485291,465
894.601868,474
894.718384,470
894.8349,451
894.951355,449
895.067932,450
895.184448,457
895.300964,466
895.417419,456
895.533936,439
895.650452,473
895.766907,452
895.883423,447
895.999878,454
896.116333,458
896.232849,470
896.349304,452
896.465759,480
896.582214,470
896.698669,471
896.815125,456
896.931641,455
897.048035,471
897.164551,466
897.280884,447
897.397339,463
897.513794,465
897.630249,460
897.746582,473
897.863098,465
897.979431,454
898.095886,454
898.212341,465
898.328674,488
898.445129,461
898.561462,463
898.677795,473
898.794312,477
898.910645,478
899.026978,457
899.143433,451
899.259766,462
899.37616,476
899.492493,473
899.608765,455
899.725159,460
899.841553,446
899.957947,491
900.07428,453
900.190552,457
900.306946,482
900.423157,462
900.53949,467
900.655884,475
900.772156,467
900.888489,476
901.004822,456
901.121033,471
901.237366,468
901.353699,462
901.46991,471
901.586304,474
901.702515,464
901.818787,478
901.93512,467
902.051331,466
902.167603,455
902.283875,470
902.400085,461
902.516418,464
902.632629,450
902.74884,459
902.865112,455
902.981384,466
903.097595,470
903.213867,497
903.330017,453
903.446289,464
903.5625,456
903.67865,473
903.794922,470
903.911072,466
904.027344,460
904.143494,470
904.259705,484
904.375916,465
904.492065,436
904.608215,464
904.724426,473
904.840576,460
904.956726,448
905.072876,452
905.189087,456
905.305176,462
905.421387,464
905.537537,457
905.653687,447
905.769775,479
905.885925,454
906.002014,452
906.118164,471
906.234314,465
906.350403,472
906.466492,451
906.582642,466
906.69873,457
906.814758,464
906.930908,474
907.046936,452
907.163086,459
907.279175,471
907.395264,477
907.511353,479
907.62738,454
907.743408,467
907.859497,457
907.975525,458
908.091553,489
908.207703,482
908.32373,470
908.439758,471
908.555786,473
908.671814,463
908.787842,480
908.90387,457
909.019775,472
909.135864,466
909.251892,450
909.367859,467
909.483826,463
909.599854,464
909.715881,484
909.831848,459
909.947815,470
910.063782,472
910.179749,459
910.295776,439
910.411743,476
910.527649,462
910.643616,478
910.759583,463
910.875488,465
910.991455,470
911.107361,463
911.223267,491
911.339294,479
911.4552,470
911.571106,474
911.687073,473
911.802979,470
911.918823,459
912.034729,459
912.150635,475
912.266602,477
912.382446,458
912.498352,457
912.614197,455
912.730103,472
912.846008,484
792.44574,506
792.56488,530
792.68396,537
792.80304,548
792.92218,513
793.041199,486
793.160339,503
793.279419,500
793.398499,497
793.517578,510
793.636658,501
793.755737,519
793.874817,539
793.993896,516
794.112976,493
794.232056,481
794.351074,495
794.470215,507
794.589233,486
794.708313,479
794.827393,495
794.946411,489
795.065552,502
795.18457,498
795.303589,489
795.422668,490
795.541687,494
795.660767,495
795.779846,502
795.898865,496
796.017883,494
796.136963,498
796.255981,493
796.375061,489
796.49408,494
796.613037,491
796.732117,490
796.851135,499
796.970154,483
797.089233,503
797.208191,483
797.327271,482
797.446228,488
797.565186,493
797.684265,509
797.803223,507
797.922241,500
798.04126,471
798.160278,500
798.279297,482
798.398315,482
798.517273,505
798.636292,479
798.75531,483
798.874268,487
798.993286,483
799.112244,496
799.231323,474
799.350281,507
799.469238,466
799.588257,481
799.707153,473
799.826111,491
799.945129,479
800.064087,473
800.183044,478
800.302063,481
800.421021,489
800.539978,488
800.658936,477
800.777893,463
800.896912,483
801.015747,485
801.134705,495
801.253723,471
801.37262,486
801.491638,474
801.610535,491
801.729492,504
801.84845,465
801.967407,483
802.086243,497
802.205261,484
802.324158,467
802.443115,495
802.562073,466
802.680969,455
802.799927,478
802.918762,503
803.037659,505
803.156677,497
803.275574,471
803.39447,484
803.513428,464
803.632263,497
803.751221,482
803.870117,462
803.989014,479
804.107971,501
804.226746,480
804.345642,517
804.4646,472
804.583496,491
804.702393,498
804.821228,479
804.940125,478
805.059021,504
805.177917,485
805.296814,476
805.415649,489
805.534546,487
805.653442,488
805.772278,484
805.891113,475
806.01001,513
806.128906,474
806.247742,502
806.366577,468
806.485413,472
806.604309,483
806.723145,505
806.84198,492
806.960876,468
807.079712,479
807.198486,489
807.317383,495
807.436218,465
807.554993,485
807.673889,479
807.792725,466
807.91156,481
808.030396,493
808.14917,467
808.268005,480
808.386841,477
808.505676,479
808.624451,490
808.743286,465
808.862122,482
808.980896,479
809.099731,492
809.218506,486
809.337341,489
809.456116,493
809.57489,489
809.693726,478
809.8125,473
809.931274,493
810.050049,498
810.168884,488
810.287659,498
810.406372,493
810.525269,474
810.643982,472
810.762756,477
810.881531,486
811.000305,497
811.11908,467
811.237854,502
811.356567,490
811.475403,485
811.594116,483
811.71283,496
811.831604,474
811.950378,484
812.069153,495
812.187927,472
812.30658,472
812.425415,472
812.544128,476
812.662781,489
812.781616,451
812.900269,482
813.019043,485
813.137756,484
813.256531,493
813.375244,480
813.493896,465
813.612671,481
813.731384,460
813.850037,494
813.96875,496
814.087524,481
814.206238,480
814.324951,478
814.443604,454
814.562256,472
814.68103,472
814.799683,510
814.918335,490
815.037109,479
815.155762,483
815.274475,471
815.393188,486
815.511841,488
815.630554,475
815.749146,460
815.867859,470
815.986572,474
816.105164,485
816.223877,482
816.342529,477
816.461182,492
816.579895,468
816.698486,483
816.817139,461
816.935791,482
817.054504,474
817.173096,471
817.291748,464
817.4104,484
817.529053,470
817.647644,474
817.766235,465
817.884949,470
818.00354,477
818.122192,471
818.240845,440
818.359436,471
818.478088,461
818.59668,482
818.715271,465
818.833923,470
818.952515,483
819.071106,478
819.189758,469
819.30835,468
819.426941,456
819.545532,475
819.664124,453
819.782715,460
819.901306,452
820.019897,477
820.138489,473
820.25708,449
820.375671,447
820.494202,466
820.612732,449
820.731384,443
820.849915,452
820.968506,479
821.087097,460
821.205627,481
821.324158,452
821.442749,463
821.561279,464
821.679871,474
821.798401,463
821.916931,465
822.035461,456
822.154053,468
822.272583,438
822.391174,465
822.509583,462
822.628174,474
822.746704,447
822.865234,487
822.983765,448
823.102295,473
823.220825,439
823.339294,447
823.457825,463
823.576355,463
823.694824,451
823.813354,463
823.931885,455
824.050354,463
824.168884,461
824.287354,474
824.405823,450
824.524353,454
824.642822,454
824.761353,457
824.879822,453
824.998291,458
825.116699,464
825.235291,461
825.353699,450
825.472168,459
825.590637,463
825.709106,454
825.827576,474
825.946045,474
826.064453,449
826.182983,455
826.301392,472
826.4198,460
826.53833,459
826.656738,446
826.775208,444
826.893677,441
827.012024,451
827.130493,449
827.248962,448
827.36731,470
827.485779,446
827.604248,456
827.722595,468
827.841064,454
827.959412,457
828.077942,464
828.196289,438
828.314636,474
828.433105,450
828.551514,470
828.669861,460
828.78833,456
828.906677,448
829.025085,459
829.143433,461
829.261841,446
829.38031,436
829.498657,475
829.617004,454
829.735413,460
829.85376,440
829.972107,453
830.090515,462
830.208862,446
830.327209,436
830.445557,452
830.563904,459
830.682312,441
830.800659,444
830.919006,459
831.037354,458
831.155701,438
831.274048,447
831.392395,450
831.51062,456
831.629028,461
831.747314,450
831.865662,437
831.984009,436
832.102356,457
832.220642,459
832.338928,454
832.457275,444
832.575623,435
832.693909,456
832.812134,439
832.930481,446
833.048828,442
833.167114,458
833.2854,444
833.403687,451
833.521973,445
833.640259,439
833.758545,454
833.876831,444
833.995056,468
834.113281,445
834.231628,445
834.349915,434
834.468201,454
834.586426,442
834.704651,456
834.822998,464
834.941162,456
835.059448,435
835.177673,459
835.295959,461
835.414246,465
835.53241,457
835.650635,461
835.768921,477
835.887146,448
836.005371,458
836.123596,469
836.241821,435
836.360046,444
836.478271,457
836.596497,463
836.714722,465
836.832886,464
836.95105,436
837.069336,447
837.1875,418
837.305725,467
837.423889,448
837.542053,435
837.660339,454
837.778503,449
837.896667,456
838.014832,437
838.132996,441
838.25116,453
838.369385,446
838.487488,445
838.605713,440
838.723877,438
838.84198,439
838.960205,439
839.078308,432
839.196472,434
839.314636,462
839.4328,442
839.550964,435
839.669067,452
839.787231,450
839.905396,461
840.023499,451
840.141602,435
840.259766,438
840.377869,450
840.495972,451
840.614136,452
840.732239,461
840.850342,435
840.968445,423
841.086548,459
841.204651,450
841.322754,462
841.440918,445
841.55896,451
841.677002,460
841.795166,428
841.913208,442
842.031311,441
842.149353,434
842.267456,446
842.385498,445
842.503601,455
842.621643,458
842.739746,443
842.857788,451
842.97583,434
843.093933,444
843.211975,454
843.330017,433
843.44812,465
843.566101,454
843.684204,454
843.802246,448
843.920227,456
844.038269,450
844.156311,433
844.274292,442
844.392395,444
844.510376,453
844.628357,451
844.74646,457
844.864441,452
844.982422,442
845.100403,451
845.218384,445
845.336426,453
845.454468,448
845.572449,452
845.69043,451
845.808411,448
845.926453,448
846.044373,454
846.162354,446
846.280396,473
846.398315,450
846.516296,460
846.634216,447
846.752197,461
846.870178,445
846.988098,456
847.106079,446
847.22406,437
847.34198,431
847.4599,461
847.577881,434
847.695801,457
847.813782,447
847.931641,467
848.049561,449
848.167603,437
848.285461,452
848.403381,452
848.521362,466
848.639221,448
848.75708,434
848.875,453
848.99292,442
849.110901,464
849.22876,449
849.34668,445
849.464539,455
849.582458,440
849.700317,444
849.818176,444
849.936096,452
850.053955,437
850.171875,432
850.289673,451
850.407593,442
850.525452,448
850.643311,432
850.761169,442
850.878967,461
850.996887,465
851.114746,442
851.232544,465
851.350403,425
851.468262,421
851.58606,443
851.703979,439
851.821777,436
851.939636,445
852.057434,442
852.175232,461
852.293091,444
852.410889,446
852.528687,421
852.646545,464
852.764343,434
852.88208,460
852.999939,436
853.117676,442
853.235535,430
853.353271,465
853.471069,452
853.588928,435
853.706604,422
853.824402,463
853.9422,453
854.059998,437
854.177734,457
854.295532,454
854.413269,426
854.531006,442
854.648804,445
854.766541,457
854.884277,440
855.002014,432
855.119751,431
855.237549,464
855.355225,446
855.473022,454
855.590698,451
855.708435,439
855.826172,455
855.943848,460
856.061646,450
856.179321,448
856.296997,453
856.414795,456
856.53241,460
856.650085,436
856.767822,434
856.885559,464
857.003174,427
857.120911,453
857.238586,452
857.356201,459
857.473938,448
857.591614,451
857.709351,447
857.826965,459
857.944641,443
858.062317,442
858.179993,441
858.297668,439
858.415283,441
858.532959,439
858.650574,464
858.768188,446
858.885803,434
859.003479,450
859.121094,465
859.23877,456
859.356384,442
859.473999,446
859.591675,422
859.709229,444
859.826843,437
859.944458,451
860.062012,436
860.179626,433
860.297302,441
860.414856,446
860.532471,446
860.650024,446
860.767639,451
860.885193,446
861.002808,443
861.120361,442
861.237976,446
861.35553,438
861.473022,453
861.590698,446
861.708191,468
861.825745,454
861.943298,471
862.060852,453
862.178406,441
862.295959,472
862.413513,444
862.531006,436
862.64856,460
862.766113,433
862.883667,436
863.00116,464
863.118713,434
863.236206,444
863.353699,463
863.471252,446
863.588745,446
863.706177,440
863.82373,440
863.941162,452
864.058716,444
864.176208,462
864.29364,460
864.411194,456
864.528687,441
864.646118,447
864.763611,456
864.881042,442
864.998535,466
865.116028,420
865.233459,463
865.350891,449
865.468384,456
865.585754,447
865.703308,450
865.820679,448
865.938171,448
866.055542,445
866.173035,454
866.290466,445
866.407837,457
866.52533,459
866.6427,445
866.760071,448
866.877563,437
866.994934,434
867.112305,456
867.229736,462
867.347107,449
867.464539,454
867.58197,433
867.699341,469
867.81665,460
867.934082,468
868.051453,435
868.168823,460
868.286194,453
868.403564,455
868.520935,426
868.638306,462
868.755676,456
868.872986,474
868.990295,448
869.107727,464
869.225037,459
869.342346,464
869.459717,433
869.577026,435
869.694336,436
869.811707,440
869.929016,446
870.046326,426
870.163635,446
870.280945,467
870.398254,441
870.515564,447
870.632812,447
870.750183,454
870.867432,444
870.984741,462
871.102051,461
871.219299,453
871.336609,456
871.453918,447
871.571106,445
871.688416,447
871.805664,447
871.922852,437
872.040222,450
872.157471,457
872.274719,438
872.391968,455
872.509155,479
872.626465,470
872.743652,440
872.860962,459
872.978149,442
873.095337,456
873.212646,451
873.329834,454
873.44696,453
873.564209,436
873.681396,445
873.798645,455
873.915894,452
874.03302,463
874.150208,465
874.267456,443
874.384583,451
874.501831,453
874.618958,440
874.736145,464
874.853333,445
874.970459,473
875.087646,443
875.204834,473
875.32196,443
875.439148,429
875.556274,462
875.673401,447
875.790527,457
875.907715,471
876.024841,453
876.141968,459
876.259094,451
876.376282,459
876.493347,454
876.610474,452
876.7276,452
876.844727,472
876.961853,470
877.078918,487
877.195984,440
877.313171,440
877.430237,459
877.547302,474
877.664368,451
877.781433,453
877.898499,449
878.015625,463
878.13269,469
878.249695,456
878.366821,449
878.483887,452
878.600952,460
878.717957,455
878.834961,441
878.952087,457
879.069092,442
879.186157,463
879.303162,436
879.420227,460
879.537231,433
879.654236,449
879.77124,441
879.888306,450
880.005249,450
880.122314,456
880.239319,450
880.356323,458
880.473328,431
880.590271,446
880.707275,439
880.824341,454
880.941284,452
881.058228,460
881.175232,436
881.292236,456
881.40918,451
881.526123,431
881.643066,467
881.760071,471
881.877014,454
881.993958,448
882.11084,452
882.227783,450
882.344727,448
882.46167,451
882.578613,471
882.695618,446
882.812439,460
882.929382,468
883.046326,440
883.163208,456
883.280151,442
883.397034,471
883.513916,462
883.630798,459
883.747742,450
883.864563,458
883.981506,458
884.098389,457
884.21521,448
884.332153,446
884.448975,463
884.565796,477
884.682678,439
884.7995,465
884.916443,450
885.033264,479
885.150085,455
885.266968,465
885.383789,465
885.500671,465
885.617493,460
885.734314,455
885.851196,474
885.967896,467
886.084717,476
886.201599,460
886.318359,462
886.435181,457
886.552002,459
886.668762,460
886.785645,463
886.902344,456
887.019165,455
887.135925,469
887.252747,461
887.369446,467
887.486267,461
887.603027,452
887.719788,456
887.836548,457
887.953247,443
888.070068,453
888.186829,456
888.303528,464
888.420288,449
888.536987,466
888.653687,454
888.770447,463
888.887146,461
889.003967,473
889.120667,470
889.237305,475
889.354065,443
889.470703,454
889.587463,470
889.704163,455
889.820862,459
889.937561,458
890.054199,465
890.170837,469
890.287598,464
890.404236,447
890.520874,457
890.637634,460
890.754211,458
890.87085,470
890.987549,467
891.104187,483
891.220886,440
891.337463,457
891.454102,468
891.57074,478
891.687378,464
891.804077,463
891.920654,442
892.037231,444
892.15387,458
892.270447,464
892.387085,444
892.503723,476
892.6203,452
892.736877,480
892.853516,471
892.970032,448
893.08667,460
893.203186,451
893.319763,454
893.43634,464
893.552917,471
893.669556,457
893.786011,444
893.902588,467
894.019165,475
894.135681,439
894.252197,454
894.368835,459
894.485291,465
894.601868,468
894.718384,485
894.8349,483
894.951355,460
895.067932,459
895.184448,469
895.300964,453
895.417419,468
895.533936,475
895.650452,469
895.766907,468
895.883423,467
895.999878,457
896.116333,471
896.232849,476
896.349304,467
896.465759,468
896.582214,458
896.698669,479
896.815125,463
896.931641,473
897.048035,464
897.164551,460
897.280884,472
897.397339,486
897.513794,469
897.630249,465
897.746582,462
897.863098,470
897.979431,463
898.095886,490
898.212341,465
898.328674,471
898.445129,468
898.561462,451
898.677795,451
898.794312,460
898.910645,459
899.026978,463
899.143433,480
899.259766,464
899.37616,466
899.492493,472
899.608765,466
899.725159,478
899.841553,455
899.957947,466
900.07428,452
900.190552,449
900.306946,480
900.423157,438
900.53949,474
900.655884,458
900.772156,456
900.888489,468
901.004822,450
901.121033,485
901.237366,463
901.353699,447
901.46991,462
901.586304,465
901.702515,467
901.818787,451
901.93512,466
902.051331,474
902.167603,472
902.283875,450
902.400085,468
902.516418,487
902.632629,474
902.74884,482
902.865112,467
902.981384,456
903.097595,469
903.213867,452
903.330017,475
903.446289,470
903.5625,445
903.67865,459
903.794922,463
903.911072,477
904.027344,477
904.143494,493
904.259705,470
904.375916,469
904.492065,482
904.608215,476
904.724426,473
904.840576,461
904.956726,461
905.072876,483
905.189087,456
905.305176,478
905.421387,470
905.537537,486
905.653687,463
905.769775,467
905.885925,459
906.002014,464
906.118164,461
906.234314,473
906.350403,466
906.466492,490
906.582642,459
906.69873,476
906.814758,468
906.930908,474
907.046936,464
907.163086,464
907.279175,481
907.395264,484
907.511353,457
907.62738,469
907.743408,479
907.859497,462
907.975525,472
908.091553,488
908.207703,467
908.32373,466
908.439758,487
908.555786,474
908.671814,477
908.787842,472
908.90387,472
909.019775,473
909.135864,459
909.251892,469
909.367859,452
909.483826,484
909.599854,479
909.715881,467
909.831848,475
909.947815,485
910.063782,467
910.179749,459
910.295776,472
910.411743,470
910.527649,475
910.643616,462
910.759583,470
910.875488,473
910.991455,451
911.107361,475
911.223267,471
911.339294,474
911.4552,450
911.571106,463
911.687073,469
911.802979,495
911.918823,470
912.034729,470
912.150635,471
912.266602,459
912.382446,460
912.498352,458
912.614197,469
912.730103,479
912.846008,450
