792.44574,555
792.56488,544
792.68396,620
792.80304,595
792.92218,541
793.041199,529
793.160339,524
793.279419,545
793.398499,515
793.517578,507
793.636658,519
793.755737,532
793.874817,537
793.993896,537
794.112976,514
794.232056,518
794.351074,527
794.470215,521
794.589233,538
794.708313,517
794.827393,525
794.946411,518
795.065552,522
795.18457,487
795.303589,529
795.422668,505
795.541687,507
795.660767,519
795.779846,506
795.898865,513
796.017883,499
796.136963,485
796.255981,510
796.375061,491
796.49408,499
796.613037,503
796.732117,482
796.851135,516
796.970154,504
797.089233,499
797.208191,504
797.327271,489
797.446228,481
797.565186,500
797.684265,492
797.803223,502
797.922241,483
798.04126,497
798.160278,479
798.279297,488
798.398315,509
798.517273,500
798.636292,497
798.75531,480
798.874268,496
798.993286,494
799.112244,482
799.231323,487
799.350281,483
799.469238,483
799.588257,504
799.707153,465
799.826111,477
799.945129,487
800.064087,498
800.183044,500
800.302063,485
800.421021,485
800.539978,481
800.658936,498
800.777893,508
800.896912,483
801.015747,481
801.134705,487
801.253723,490
801.37262,482
801.491638,494
801.610535,470
801.729492,505
801.84845,460
801.967407,502
802.086243,495
802.205261,486
802.324158,475
802.443115,486
802.562073,507
802.680969,476
802.799927,496
802.918762,504
803.037659,486
803.156677,492
803.275574,478
803.39447,482
803.513428,476
803.632263,469
803.751221,477
803.870117,486
803.989014,472
804.107971,473
804.226746,492
804.345642,494
804.4646,488
804.583496,495
804.702393,481
804.821228,490
804.940125,475
805.059021,478
805.177917,481
805.296814,467
805.415649,488
805.534546,484
805.653442,483
805.772278,484
805.891113,482
806.01001,489
806.128906,486
806.247742,482
806.366577,480
806.485413,479
806.604309,503
806.723145,474
806.84198,480
806.960876,497
807.079712,473
807.198486,472
807.317383,471
807.436218,496
807.554993,485
807.673889,498
807.792725,473
807.91156,492
808.030396,478
808.14917,489
808.268005,493
808.386841,466
808.505676,488
808.624451,484
808.743286,479
808.862122,502
808.980896,471
809.099731,481
809.218506,484
809.337341,484
809.456116,480
809.57489,507
809.693726,480
809.8125,482
809.931274,480
810.050049,507
810.168884,479
810.287659,483
810.406372,498
810.525269,483
810.643982,491
810.762756,480
810.881531,494
811.000305,464
811.11908,505
811.237854,483
811.356567,502
811.475403,516
811.594116,472
811.71283,496
811.831604,486
811.950378,497
812.069153,501
812.187927,479
812.30658,459
812.425415,459
812.544128,493
812.662781,480
812.781616,475
812.900269,489
813.019043,492
813.137756,482
813.256531,478
813.375244,482
813.493896,468
813.612671,487
813.731384,482
813.850037,496
813.96875,481
814.087524,500
814.206238,480
814.324951,486
814.443604,469
814.562256,491
814.68103,492
814.799683,478
814.918335,484
815.037109,476
815.155762,499
815.274475,504
815.393188,496
815.511841,469
815.630554,481
815.749146,455
815.867859,494
815.986572,471
816.105164,480
816.223877,489
816.342529,442
816.461182,473
816.579895,474
816.698486,487
816.817139,481
816.935791,459
817.054504,466
817.173096,466
817.291748,467
817.4104,486
817.529053,468
817.647644,483
817.766235,475
817.884949,475
818.00354,478
818.122192,495
818.240845,458
818.359436,453
818.478088,471
818.59668,471
818.715271,473
818.833923,471
818.952515,469
819.071106,470
819.189758,464
819.30835,462
819.426941,450
819.545532,485
819.664124,443
819.782715,472
819.901306,462
820.019897,459
820.138489,452
820.25708,462
820.375671,474
820.494202,454
820.612732,483
820.731384,480
820.849915,461
820.968506,475
821.087097,442
821.205627,456
821.324158,450
821.442749,484
821.561279,461
821.679871,466
821.798401,464
821.916931,464
822.035461,462
822.154053,468
822.272583,446
822.391174,466
822.509583,441
822.628174,448
822.746704,442
822.865234,447
822.983765,466
823.102295,460
823.220825,434
823.339294,480
823.457825,452
823.576355,452
823.694824,458
823.813354,478
823.931885,441
824.050354,472
824.168884,462
824.287354,461
824.405823,464
824.524353,435
824.642822,448
824.761353,464
824.879822,442
824.998291,460
825.116699,453
825.235291,455
825.353699,458
825.472168,440
825.590637,445
825.709106,472
825.827576,438
825.946045,451
826.064453,443
826.182983,449
826.301392,446
826.4198,456
826.53833,445
826.656738,467
826.775208,461
826.893677,455
827.012024,469
827.130493,447
827.248962,468
827.36731,455
827.485779,444
827.604248,480
827.722595,429
827.841064,461
827.959412,449
828.077942,455
828.196289,458
828.314636,458
828.433105,438
828.551514,463
828.669861,442
828.78833,443
828.906677,457
829.025085,453
829.143433,459
829.261841,464
829.38031,448
829.498657,448
829.617004,458
829.735413,450
829.85376,456
829.972107,455
830.090515,452
830.208862,451
830.327209,454
830.445557,450
830.563904,457
830.682312,448
830.800659,455
830.919006,435
831.037354,445
831.155701,445
831.274048,459
831.392395,451
831.51062,449
831.629028,437
831.747314,449
831.865662,437
831.984009,455
832.102356,464
832.220642,461
832.338928,441
832.457275,445
832.575623,464
832.693909,442
832.812134,468
832.930481,450
833.048828,461
833.167114,442
833.2854,457
833.403687,457
833.521973,471
833.640259,440
833.758545,445
833.876831,421
833.995056,451
834.113281,453
834.231628,440
834.349915,445
834.468201,433
834.586426,445
834.704651,449
834.822998,451
834.941162,452
835.059448,452
835.177673,472
835.295959,445
835.414246,447
835.53241,458
835.650635,446
835.768921,457
835.887146,448
836.005371,428
836.123596,441
836.241821,447
836.360046,447
836.478271,440
836.596497,473
836.714722,437
836.832886,458
836.95105,466
837.069336,457
837.1875,455
837.305725,450
837.423889,457
837.542053,453
837.660339,436
837.778503,451
837.896667,438
838.014832,434
838.132996,456
838.25116,467
838.369385,427
838.487488,439
838.605713,449
838.723877,454
838.84198,457
838.960205,458
839.078308,463
839.196472,454
839.314636,452
839.4328,455
839.550964,456
839.669067,451
839.787231,441
839.905396,458
840.023499,460
840.141602,450
840.259766,432
840.377869,469
840.495972,444
840.614136,452
840.732239,440
840.850342,433
840.968445,438
841.086548,444
841.204651,449
841.322754,464
841.440918,429
841.55896,444
841.677002,473
841.795166,435
841.913208,455
842.031311,456
842.149353,459
842.267456,453
842.385498,442
842.503601,438
842.621643,455
842.739746,439
842.857788,453
842.97583,442
843.093933,433
843.211975,434
843.330017,440
843.44812,443
843.566101,448
843.684204,459
843.802246,446
843.920227,467
844.038269,438
844.156311,437
844.274292,449
844.392395,460
844.510376,444
844.628357,455
844.74646,455
844.864441,463
844.982422,443
845.100403,462
845.218384,449
845.336426,462
845.454468,448
845.572449,449
845.69043,446
845.808411,444
845.926453,450
846.044373,450
846.162354,449
846.280396,454
846.398315,443
846.516296,457
846.634216,445
846.752197,444
846.870178,448
846.988098,446
847.106079,422
847.22406,441
847.34198,446
847.4599,453
847.577881,451
847.695801,459
847.813782,463
847.931641,456
848.049561,451
848.167603,458
848.285461,439
848.403381,463
848.521362,447
848.639221,452
848.75708,461
848.875,455
848.99292,444
849.110901,476
849.22876,458
849.34668,473
849.464539,456
849.582458,452
849.700317,470
849.818176,457
849.936096,444
850.053955,452
850.171875,459
850.289673,455
850.407593,448
850.525452,467
850.643311,434
850.761169,458
850.878967,451
850.996887,459
851.114746,445
851.232544,467
851.350403,445
851.468262,466
851.58606,447
851.703979,458
851.821777,461
851.939636,450
852.057434,434
852.175232,472
852.293091,451
852.410889,453
852.528687,447
852.646545,464
852.764343,428
852.88208,458
852.999939,436
853.117676,436
853.235535,461
853.353271,441
853.471069,452
853.588928,429
853.706604,462
853.824402,458
853.9422,440
854.059998,474
854.177734,461
854.295532,448
854.413269,433
854.531006,451
854.648804,451
854.766541,461
854.884277,446
855.002014,461
855.119751,418
855.237549,465
855.355225,445
855.473022,445
855.590698,444
855.708435,446
855.826172,467
855.943848,478
856.061646,458
856.179321,447
856.296997,461
856.414795,464
856.53241,451
856.650085,439
856.767822,442
856.885559,450
857.003174,423
857.120911,455
857.238586,451
857.356201,452
857.473938,447
857.591614,456
857.709351,451
857.826965,474
857.944641,434
858.062317,452
858.179993,462
858.297668,450
858.415283,446
858.532959,449
858.650574,455
858.768188,457
858.885803,443
859.003479,445
859.121094,456
859.23877,460
859.356384,445
859.473999,454
859.591675,436
859.709229,470
859.826843,435
859.944458,431
860.062012,439
860.179626,448
860.297302,460
860.414856,444
860.532471,428
860.650024,455
860.767639,426
860.885193,453
861.002808,441
861.120361,456
861.237976,425
861.35553,456
861.473022,450
861.590698,440
861.708191,478
861.825745,466
861.943298,437
862.060852,444
862.178406,426
862.295959,446
862.413513,456
862.531006,453
862.64856,432
862.766113,448
862.883667,463
863.00116,447
863.118713,452
863.236206,449
863.353699,455
863.471252,458
863.588745,440
863.706177,446
863.82373,448
863.941162,464
864.058716,443
864.176208,446
864.29364,420
864.411194,450
864.528687,460
864.646118,453
864.763611,426
864.881042,431
864.998535,441
865.116028,446
865.233459,433
865.350891,458
865.468384,444
865.585754,451
865.703308,437
865.820679,456
865.938171,477
866.055542,426
866.173035,439
866.290466,459
866.407837,448
866.52533,450
866.6427,462
866.760071,468
866.877563,455
866.994934,462
867.112305,445
867.229736,466
867.347107,450
867.464539,451
867.58197,443
867.699341,450
867.81665,444
867.934082,445
868.051453,437
868.168823,457
868.286194,465
868.403564,457
868.520935,459
868.638306,448
868.755676,448
868.872986,452
868.990295,441
869.107727,452
869.225037,459
869.342346,464
869.459717,450
869.577026,462
869.694336,449
869.811707,470
869.929016,444
870.046326,450
870.163635,433
870.280945,464
870.398254,466
870.515564,467
870.632812,464
870.750183,461
870.867432,455
870.984741,454
871.102051,462
871.219299,456
871.336609,449
871.453918,445
871.571106,459
871.688416,466
871.805664,458
871.922852,458
872.040222,448
872.157471,457
872.274719,461
872.391968,461
872.509155,466
872.626465,461
872.743652,463
872.860962,440
872.978149,445
873.095337,449
873.212646,456
873.329834,447
873.44696,452
873.564209,456
873.681396,483
873.798645,460
873.915894,442
874.03302,440
874.150208,450
874.267456,461
874.384583,442
874.501831,470
874.618958,466
874.736145,465
874.853333,447
874.970459,466
875.087646,435
875.204834,456
875.32196,461
875.439148,453
875.556274,457
875.673401,472
875.790527,473
875.907715,444
876.024841,456
876.141968,473
876.259094,457
876.376282,448
876.493347,467
876.610474,447
876.7276,452
876.844727,453
876.961853,455
877.078918,476
877.195984,457
877.313171,466
877.430237,427
877.547302,469
877.664368,453
877.781433,472
877.898499,462
878.015625,454
878.13269,443
878.249695,459
878.366821,453
878.483887,449
878.600952,435
878.717957,449
878.834961,454
878.952087,441
879.069092,455
879.186157,461
879.303162,449
879.420227,467
879.537231,446
879.654236,441
879.77124,460
879.888306,445
880.005249,447
880.122314,463
880.239319,463
880.356323,462
880.473328,437
880.590271,456
880.707275,457
880.824341,458
880.941284,450
881.058228,469
881.175232,442
881.292236,458
881.40918,452
881.526123,462
881.643066,458
881.760071,463
881.877014,445
881.993958,461
882.11084,462
882.227783,468
882.344727,437
882.46167,447
882.578613,457
882.695618,481
882.812439,456
882.929382,462
883.046326,446
883.163208,459
883.280151,453
883.397034,452
883.513916,444
883.630798,457
883.747742,445
883.864563,455
883.981506,464
884.098389,445
884.21521,448
884.332153,440
884.448975,435
884.565796,470
884.682678,475
884.7995,440
884.916443,448
885.033264,465
885.150085,456
885.266968,464
885.383789,481
885.500671,452
885.617493,473
885.734314,493
885.851196,442
885.967896,469
886.084717,464
886.201599,466
886.318359,455
886.435181,458
886.552002,488
886.668762,466
886.785645,447
886.902344,462
887.019165,469
887.135925,470
887.252747,460
887.369446,469
887.486267,471
887.603027,483
887.719788,454
887.836548,458
887.953247,454
888.070068,471
888.186829,457
888.303528,445
888.420288,447
888.536987,466
888.653687,437
888.770447,464
888.887146,446
889.003967,461
889.120667,438
889.237305,451
889.354065,453
889.470703,467
889.587463,457
889.704163,455
889.820862,466
889.937561,472
890.054199,445
890.170837,450
890.287598,452
890.404236,454
890.520874,454
890.637634,452
890.754211,462
890.87085,471
890.987549,470
891.104187,462
891.220886,460
891.337463,455
891.454102,459
891.57074,458
891.687378,432
891.804077,459
891.920654,438
892.037231,456
892.15387,446
892.270447,476
892.387085,449
892.503723,465
892.6203,448
892.736877,425
892.853516,454
892.970032,448
893.08667,464
893.203186,452
893.319763,457
893.43634,446
893.552917,460
893.669556,448
893.786011,461
893.902588,472
894.019165,473
894.135681,463
894.252197,465
894.368835,464
894.485291,448
894.601868,464
894.718384,452
894.8349,443
894.951355,443
895.067932,449
895.184448,437
895.300964,465
895.417419,485
895.533936,449
895.650452,465
895.766907,457
895.883423,442
895.999878,458
896.116333,454
896.232849,461
896.349304,446
896.465759,479
896.582214,448
896.698669,459
896.815125,458
896.931641,454
897.048035,446
897.164551,452
897.280884,435
897.397339,476
897.513794,456
897.630249,452
897.746582,471
897.863098,466
897.979431,449
898.095886,483
898.212341,456
898.328674,473
898.445129,467
898.561462,472
898.677795,463
898.794312,476
898.910645,456
899.026978,463
899.143433,468
899.259766,473
899.37616,463
899.492493,461
899.608765,465
899.725159,459
899.841553,463
899.957947,475
900.07428,464
900.190552,480
900.306946,441
900.423157,466
900.53949,438
900.655884,488
900.772156,468
900.888489,465
901.004822,462
901.121033,469
901.237366,466
901.353699,461
901.46991,485
901.586304,465
901.702515,448
901.818787,477
901.93512,471
902.051331,465
902.167603,467
902.283875,461
902.400085,452
902.516418,470
902.632629,452
902.74884,461
902.865112,474
902.981384,464
903.097595,473
903.213867,482
903.330017,464
903.446289,487
903.5625,441
903.67865,479
903.794922,460
903.911072,473
904.027344,447
904.143494,472
904.259705,458
904.375916,485
904.492065,465
904.608215,459
904.724426,460
904.840576,483
904.956726,474
905.072876,462
905.189087,462
905.305176,468
905.421387,443
905.537537,479
905.653687,457
905.769775,441
905.885925,478
906.002014,448
906.118164,471
906.234314,479
906.350403,476
906.466492,449
906.582642,470
906.69873,454
906.814758,473
906.930908,463
907.046936,460
907.163086,467
907.279175,460
907.395264,467
907.511353,469
907.62738,472
907.743408,462
907.859497,461
907.975525,449
908.091553,469
908.207703,465
908.32373,461
908.439758,466
908.555786,464
908.671814,470
908.787842,498
908.90387,464
909.019775,473
909.135864,455
909.251892,465
909.367859,462
909.483826,459
909.599854,456
909.715881,463
909.831848,452
909.947815,477
910.063782,436
910.179749,461
910.295776,447
910.411743,460
910.527649,475
910.643616,457
910.759583,465
910.875488,485
910.991455,456
911.107361,471
911.223267,461
911.339294,483
911.4552,451
911.571106,452
911.687073,466
911.802979,460
911.918823,466
912.034729,484
912.150635,444
912.266602,488
912.382446,461
912.498352,453
912.614197,453
912.730103,459
912.846008,441
792.44574,533
792.56488,589
792.68396,619
792.80304,623
792.92218,560
793.041199,503
793.160339,524
793.279419,534
793.398499,539
793.517578,525
793.636658,522
793.755737,517
793.874817,535
793.993896,570
794.112976,527
794.232056,524
794.351074,528
794.470215,512
794.589233,526
794.708313,522
794.827393,518
794.946411,512
795.065552,529
795.18457,538
795.303589,515
795.422668,505
795.541687,510
795.660767,497
795.779846,505
795.898865,524
796.017883,532
796.136963,537
796.255981,514
796.375061,523
796.49408,506
796.613037,503
796.732117,524
796.851135,508
796.970154,532
797.089233,513
797.208191,512
797.327271,517
797.446228,488
797.565186,512
797.684265,524
797.803223,487
797.922241,500
798.04126,487
798.160278,492
798.279297,503
798.398315,520
798.517273,510
798.636292,498
798.75531,502
798.874268,484
798.993286,474
799.112244,493
799.231323,476
799.350281,521
799.469238,502
799.588257,501
799.707153,504
799.826111,495
799.945129,507
800.064087,510
800.183044,501
800.302063,506
800.421021,490
800.539978,493
800.658936,490
800.777893,509
800.896912,507
801.015747,500
801.134705,496
801.253723,490
801.37262,476
801.491638,492
801.610535,477
801.729492,512
801.84845,483
801.967407,502
802.086243,465
802.205261,500
802.324158,474
802.443115,488
802.562073,486
802.680969,493
802.799927,495
802.918762,493
803.037659,495
803.156677,515
803.275574,501
803.39447,484
803.513428,489
803.632263,491
803.751221,499
803.870117,510
803.989014,507
804.107971,497
804.226746,466
804.345642,492
804.4646,483
804.583496,475
804.702393,502
804.821228,493
804.940125,475
805.059021,484
805.177917,496
805.296814,486
805.415649,515
805.534546,491
805.653442,496
805.772278,498
805.891113,474
806.01001,478
806.128906,488
806.247742,506
806.366577,484
806.485413,489
806.604309,487
806.723145,467
806.84198,488
806.960876,480
807.079712,510
807.198486,489
807.317383,485
807.436218,498
807.554993,487
807.673889,498
807.792725,491
807.91156,494
808.030396,499
808.14917,509
808.268005,491
808.386841,494
808.505676,489
808.624451,488
808.743286,500
808.862122,486
808.980896,492
809.099731,503
809.218506,497
809.337341,484
809.456116,501
809.57489,477
809.693726,490
809.8125,501
809.931274,486
810.050049,482
810.168884,493
810.287659,488
810.406372,504
810.525269,488
810.643982,474
810.762756,487
810.881531,480
811.000305,497
811.11908,479
811.237854,507
811.356567,495
811.475403,474
811.594116,496
811.71283,498
811.831604,503
811.950378,471
812.069153,494
812.187927,495
812.30658,468
812.425415,498
812.544128,456
812.662781,484
812.781616,470
812.900269,484
813.019043,476
813.137756,473
813.256531,488
813.375244,482
813.493896,473
813.612671,491
813.731384,457
813.850037,488
813.96875,470
814.087524,463
814.206238,490
814.324951,488
814.443604,493
814.562256,491
814.68103,472
814.799683,499
814.918335,471
815.037109,485
815.155762,499
815.274475,487
815.393188,473
815.511841,482
815.630554,477
815.749146,480
815.867859,480
815.986572,486
816.105164,485
816.223877,486
816.342529,493
816.461182,485
816.579895,478
816.698486,489
816.817139,477
816.935791,468
817.054504,466
817.173096,489
817.291748,480
817.4104,470
817.529053,486
817.647644,477
817.766235,464
817.884949,478
818.00354,474
818.122192,483
818.240845,470
818.359436,462
818.478088,475
818.59668,465
818.715271,473
818.833923,491
818.952515,479
819.071106,482
819.189758,448
819.30835,472
819.426941,464
819.545532,468
819.664124,456
819.782715,456
819.901306,479
820.019897,471
820.138489,485
820.25708,473
820.375671,492
820.494202,466
820.612732,466
820.731384,467
820.849915,465
820.968506,485
821.087097,483
821.205627,474
821.324158,484
821.442749,482
821.561279,438
821.679871,468
821.798401,484
821.916931,483
822.035461,451
822.154053,462
822.272583,467
822.391174,460
822.509583,472
822.628174,455
822.746704,456
822.865234,448
822.983765,449
823.102295,480
823.220825,451
823.339294,450
823.457825,465
823.576355,452
823.694824,456
823.813354,445
823.931885,455
824.050354,478
824.168884,450
824.287354,459
824.405823,467
824.524353,441
824.642822,464
824.761353,466
824.879822,475
824.998291,451
825.116699,467
825.235291,452
825.353699,468
825.472168,450
825.590637,455
825.709106,458
825.827576,439
825.946045,457
826.064453,456
826.182983,447
826.301392,450
826.4198,446
826.53833,451
826.656738,467
826.775208,457
826.893677,468
827.012024,446
827.130493,459
827.248962,455
827.36731,455
827.485779,451
827.604248,472
827.722595,449
827.841064,468
827.959412,434
828.077942,448
828.196289,460
828.314636,463
828.433105,461
828.551514,451
828.669861,456
828.78833,461
828.906677,445
829.025085,460
829.143433,474
829.261841,454
829.38031,446
829.498657,464
829.617004,445
829.735413,453
829.85376,466
829.972107,455
830.090515,458
830.208862,465
830.327209,452
830.445557,455
830.563904,443
830.682312,447
830.800659,445
830.919006,452
831.037354,439
831.155701,446
831.274048,438
831.392395,468
831.51062,457
831.629028,471
831.747314,457
831.865662,451
831.984009,444
832.102356,455
832.220642,433
832.338928,439
832.457275,451
832.575623,453
832.693909,429
832.812134,446
832.930481,455
833.048828,459
833.167114,454
833.2854,468
833.403687,467
833.521973,450
833.640259,462
833.758545,468
833.876831,461
833.995056,456
834.113281,449
834.231628,447
834.349915,466
834.468201,469
834.586426,455
834.704651,447
834.822998,456
834.941162,459
835.059448,465
835.177673,461
835.295959,448
835.414246,446
835.53241,452
835.650635,454
835.768921,433
835.887146,456
836.005371,433
836.123596,448
836.241821,453
836.360046,454
836.478271,463
836.596497,464
836.714722,447
836.832886,448
836.95105,457
837.069336,440
837.1875,456
837.305725,452
837.423889,425
837.542053,453
837.660339,470
837.778503,461
837.896667,437
838.014832,440
838.132996,464
838.25116,460
838.369385,438
838.487488,458
838.605713,465
838.723877,446
838.84198,440
838.960205,444
839.078308,462
839.196472,451
839.314636,459
839.4328,480
839.550964,447
839.669067,459
839.787231,445
839.905396,443
840.023499,451
840.141602,443
840.259766,454
840.377869,461
840.495972,456
840.614136,463
840.732239,445
840.850342,459
840.968445,462
841.086548,464
841.204651,448
841.322754,448
841.440918,466
841.55896,429
841.677002,443
841.795166,453
841.913208,441
842.031311,447
842.149353,440
842.267456,453
842.385498,456
842.503601,455
842.621643,463
842.739746,451
842.857788,443
842.97583,453
843.093933,442
843.211975,451
843.330017,455
843.44812,477
843.566101,443
843.684204,456
843.802246,468
843.920227,453
844.038269,457
844.156311,446
844.274292,450
844.392395,451
844.510376,450
844.628357,462
844.74646,448
844.864441,462
844.982422,458
845.100403,422
845.218384,460
845.336426,455
845.454468,453
845.572449,474
845.69043,434
845.808411,462
845.926453,447
846.044373,443
846.162354,428
846.280396,446
846.398315,425
846.516296,468
846.634216,427
846.752197,444
846.870178,457
846.988098,451
847.106079,446
847.22406,459
847.34198,456
847.4599,473
847.577881,446
847.695801,467
847.813782,449
847.931641,463
848.049561,475
848.167603,461
848.285461,457
848.403381,447
848.521362,478
848.639221,466
848.75708,454
848.875,472
848.99292,454
849.110901,456
849.22876,470
849.34668,453
849.464539,474
849.582458,474
849.700317,448
849.818176,469
849.936096,446
850.053955,457
850.171875,459
850.289673,474
850.407593,439
850.525452,455
850.643311,457
850.761169,464
850.878967,447
850.996887,456
851.114746,457
851.232544,462
851.350403,447
851.468262,478
851.58606,456
851.703979,429
851.821777,456
851.939636,455
852.057434,452
852.175232,450
852.293091,461
852.410889,450
852.528687,457
852.646545,473
852.764343,454
852.88208,456
852.999939,459
853.117676,463
853.235535,460
853.353271,454
853.471069,447
853.588928,456
853.706604,451
853.824402,484
853.9422,448
854.059998,429
854.177734,445
854.295532,463
854.413269,444
854.531006,456
854.648804,441
854.766541,443
854.884277,446
855.002014,449
855.119751,433
855.237549,450
855.355225,455
855.473022,447
855.590698,447
855.708435,450
855.826172,464
855.943848,449
856.061646,469
856.179321,458
856.296997,444
856.414795,459
856.53241,444
856.650085,467
856.767822,468
856.885559,447
857.003174,456
857.120911,463
857.238586,463
857.356201,455
857.473938,432
857.591614,455
857.709351,455
857.826965,462
857.944641,445
858.062317,454
858.179993,458
858.297668,453
858.415283,446
858.532959,454
858.650574,465
858.768188,448
858.885803,454
859.003479,477
859.121094,460
859.23877,462
859.356384,432
859.473999,467
859.591675,445
859.709229,460
859.826843,434
859.944458,459
860.062012,441
860.179626,450
860.297302,448
860.414856,445
860.532471,448
860.650024,451
860.767639,443
860.885193,462
861.002808,454
861.120361,464
861.237976,431
861.35553,431
861.473022,469
861.590698,468
861.708191,448
861.825745,457
861.943298,455
862.060852,453
862.178406,437
862.295959,455
862.413513,454
862.531006,458
862.64856,440
862.766113,442
862.883667,444
863.00116,460
863.118713,447
863.236206,443
863.353699,450
863.471252,453
863.588745,448
863.706177,454
863.82373,455
863.941162,452
864.058716,450
864.176208,459
864.29364,454
864.411194,452
864.528687,443
864.646118,445
864.763611,453
864.881042,475
864.998535,442
865.116028,464
865.233459,455
865.350891,445
865.468384,472
865.585754,459
865.703308,441
865.820679,450
865.938171,444
866.055542,458
866.173035,440
866.290466,436
866.407837,445
866.52533,447
866.6427,449
866.760071,475
866.877563,460
866.994934,457
867.112305,467
867.229736,468
867.347107,457
867.464539,448
867.58197,443
867.699341,456
867.81665,474
867.934082,462
868.051453,453
868.168823,467
868.286194,454
868.403564,455
868.520935,442
868.638306,470
868.755676,432
868.872986,446
868.990295,471
869.107727,445
869.225037,451
869.342346,459
869.459717,467
869.577026,450
869.694336,441
869.811707,455
869.929016,461
870.046326,455
870.163635,462
870.280945,473
870.398254,443
870.515564,463
870.632812,458
870.750183,450
870.867432,436
870.984741,457
871.102051,451
871.219299,457
871.336609,461
871.453918,450
871.571106,444
871.688416,477
871.805664,459
871.922852,454
872.040222,459
872.157471,458
872.274719,471
872.391968,448
872.509155,457
872.626465,469
872.743652,467
872.860962,450
872.978149,457
873.095337,449
873.212646,447
873.329834,467
873.44696,444
873.564209,483
873.681396,461
873.798645,463
873.915894,452
874.03302,468
874.150208,472
874.267456,462
874.384583,457
874.501831,448
874.618958,464
874.736145,463
874.853333,449
874.970459,462
875.087646,457
875.204834,464
875.32196,429
875.439148,453
875.556274,462
875.673401,464
875.790527,426
875.907715,453
876.024841,463
876.141968,456
876.259094,464
876.376282,462
876.493347,471
876.610474,467
876.7276,442
876.844727,453
876.961853,457
877.078918,456
877.195984,468
877.313171,460
877.430237,454
877.547302,447
877.664368,458
877.781433,456
877.898499,458
878.015625,457
878.13269,448
878.249695,458
878.366821,440
878.483887,482
878.600952,457
878.717957,450
878.834961,449
878.952087,468
879.069092,436
879.186157,452
879.303162,454
879.420227,480
879.537231,459
879.654236,442
879.77124,448
879.888306,458
880.005249,451
880.122314,470
880.239319,462
880.356323,469
880.473328,454
880.590271,449
880.707275,451
880.824341,455
880.941284,456
881.058228,452
881.175232,449
881.292236,464
881.40918,470
881.526123,443
881.643066,473
881.760071,464
881.877014,459
881.993958,454
882.11084,465
882.227783,440
882.344727,473
882.46167,462
882.578613,463
882.695618,472
882.812439,443
882.929382,454
883.046326,469
883.163208,470
883.280151,455
883.397034,469
883.513916,454
883.630798,447
883.747742,468
883.864563,447
883.981506,439
884.098389,483
884.21521,433
884.332153,455
884.448975,476
884.565796,457
884.682678,468
884.7995,461
884.916443,467
885.033264,491
885.150085,437
885.266968,459
885.383789,479
885.500671,463
885.617493,467
885.734314,472
885.851196,459
885.967896,456
886.084717,457
886.201599,480
886.318359,468
886.435181,490
886.552002,453
886.668762,466
886.785645,480
886.902344,469
887.019165,457
887.135925,466
887.252747,465
887.369446,474
887.486267,457
887.603027,456
887.719788,462
887.836548,465
887.953247,477
888.070068,477
888.186829,445
888.303528,466
888.420288,458
888.536987,448
888.653687,446
888.770447,477
888.887146,450
889.003967,464
889.120667,462
889.237305,455
889.354065,463
889.470703,454
889.587463,442
889.704163,467
889.820862,461
889.937561,451
890.054199,474
890.170837,444
890.287598,438
890.404236,470
890.520874,435
890.637634,463
890.754211,470
890.87085,460
890.987549,440
891.104187,452
891.220886,443
891.337463,436
891.454102,473
891.57074,465
891.687378,464
891.804077,463
891.920654,478
892.037231,458
892.15387,446
892.270447,473
892.387085,434
892.503723,456
892.6203,461
892.736877,458
892.853516,453
892.970032,481
893.08667,467
893.203186,465
893.319763,449
893.43634,462
893.552917,459
893.669556,472
893.786011,470
893.902588,461
894.019165,471
894.135681,462
894.252197,468
894.368835,465
894.485291,481
894.601868,482
894.718384,456
894.8349,467
894.951355,445
895.067932,453
895.184448,449
895.300964,468
895.417419,475
895.533936,469
895.650452,439
895.766907,470
895.883423,449
895.999878,460
896.116333,456
896.232849,464
896.349304,460
896.465759,473
896.582214,464
896.698669,463
896.815125,460
896.931641,470
897.048035,480
897.164551,457
897.280884,447
897.397339,462
897.513794,455
897.630249,449
897.746582,472
897.863098,456
897.979431,459
898.095886,474
898.212341,439
898.328674,464
898.445129,459
898.561462,461
898.677795,462
898.794312,478
898.910645,472
899.026978,457
899.143433,477
899.259766,456
899.37616,449
899.492493,458
899.608765,454
899.725159,474
899.841553,465
899.957947,473
900.07428,454
900.190552,454
900.306946,478
900.423157,496
900.53949,462
900.655884,475
900.772156,437
900.888489,472
901.004822,442
901.121033,487
901.237366,473
901.353699,465
901.46991,469
901.586304,482
901.702515,469
901.818787,473
901.93512,480
902.051331,473
902.167603,454
902.283875,483
902.400085,466
902.516418,471
902.632629,485
902.74884,500
902.865112,478
902.981384,471
903.097595,450
903.213867,457
903.330017,489
903.446289,466
903.5625,473
903.67865,479
903.794922,460
903.911072,460
904.027344,463
904.143494,470
904.259705,471
904.375916,483
904.492065,456
904.608215,479
904.724426,461
904.840576,468
904.956726,463
905.072876,467
905.189087,468
905.305176,493
905.421387,459
905.537537,467
905.653687,465
905.769775,468
905.885925,478
906.002014,467
906.118164,452
906.234314,456
906.350403,466
906.466492,456
906.582642,448
906.69873,460
906.814758,476
906.930908,474
907.046936,470
907.163086,473
907.279175,434
907.395264,483
907.511353,480
907.62738,474
907.743408,449
907.859497,457
907.975525,456
908.091553,479
908.207703,467
908.32373,494
908.439758,458
908.555786,468
908.671814,455
908.787842,477
908.90387,483
909.019775,454
909.135864,472
909.251892,465
909.367859,458
909.483826,483
909.599854,483
909.715881,456
909.831848,462
909.947815,470
910.063782,484
910.179749,479
910.295776,480
910.411743,484
910.527649,453
910.643616,494
910.759583,462
910.875488,468
910.991455,493
911.107361,486
911.223267,457
911.339294,492
911.4552,469
911.571106,471
911.687073,476
911.802979,472
911.918823,465
912.034729,499
912.150635,461
912.266602,473
912.382446,480
912.498352,454
912.614197,473
912.730103,453
912.846008,458
792.44574,570
792.56488,547
792.68396,613
792.80304,603
792.92218,570
793.041199,534
793.160339,527
793.279419,550
793.398499,551
793.517578,534
793.636658,532
793.755737,525
793.874817,539
793.993896,522
794.112976,548
794.232056,511
794.351074,534
794.470215,528
794.589233,519
794.708313,508
794.827393,530
794.946411,510
795.065552,530
795.18457,523
795.303589,531
795.422668,527
795.541687,523
795.660767,525
795.779846,512
795.898865,518
796.017883,528
796.136963,514
796.255981,505
796.375061,502
796.49408,505
796.613037,504
796.732117,518
796.851135,496
796.970154,524
797.089233,499
797.208191,528
797.327271,495
797.446228,503
797.565186,526
797.684265,494
797.803223,515
797.922241,515
798.04126,499
798.160278,511
798.279297,522
798.398315,508
798.517273,491
798.636292,497
798.75531,515
798.874268,510
798.993286,496
799.112244,504
799.231323,496
799.350281,510
799.469238,505
799.588257,478
799.707153,477
799.826111,485
799.945129,496
800.064087,513
800.183044,499
800.302063,499
800.421021,481
800.539978,521
800.658936,498
800.777893,493
800.896912,504
801.015747,503
801.134705,506
801.253723,501
801.37262,494
801.491638,496
801.610535,485
801.729492,498
801.84845,491
801.967407,524
802.086243,494
802.205261,516
802.324158,491
802.443115,496
802.562073,479
802.680969,498
802.799927,483
802.918762,486
803.037659,488
803.156677,478
803.275574,505
803.39447,496
803.513428,499
803.632263,504
803.751221,481
803.870117,495
803.989014,499
804.107971,490
804.226746,493
804.345642,495
804.4646,485
804.583496,489
804.702393,487
804.821228,497
804.940125,486
805.059021,482
805.177917,495
805.296814,494
805.415649,487
805.534546,501
805.653442,485
805.772278,520
805.891113,480
806.01001,504
806.128906,502
806.247742,484
806.366577,503
806.485413,486
806.604309,497
806.723145,487
806.84198,494
806.960876,509
807.079712,484
807.198486,505
807.317383,503
807.436218,506
807.554993,501
807.673889,489
807.792725,489
807.91156,494
808.030396,474
808.14917,501
808.268005,498
808.386841,507
808.505676,494
808.624451,505
808.743286,492
808.862122,488
808.980896,474
809.099731,497
809.218506,475
809.337341,492
809.456116,516
809.57489,507
809.693726,473
809.8125,510
809.931274,491
810.050049,514
810.168884,503
810.287659,497
810.406372,505
810.525269,502
810.643982,486
810.762756,495
810.881531,485
811.000305,486
811.11908,487
811.237854,489
811.356567,480
811.475403,487
811.594116,487
811.71283,495
811.831604,489
811.950378,489
812.069153,510
812.187927,475
812.30658,480
812.425415,482
812.544128,484
812.662781,489
812.781616,485
812.900269,509
813.019043,486
813.137756,486
813.256531,485
813.375244,471
813.493896,488
813.612671,494
813.731384,489
813.850037,487
813.96875,485
814.087524,468
814.206238,505
814.324951,461
814.443604,471
814.562256,468
814.68103,511
814.799683,489
814.918335,491
815.037109,493
815.155762,490
815.274475,503
815.393188,490
815.511841,482
815.630554,486
815.749146,476
815.867859,491
815.986572,503
816.105164,478
816.223877,470
816.342529,471
816.461182,489
816.579895,485
816.698486,480
816.817139,472
816.935791,490
817.054504,483
817.173096,472
817.291748,480
817.4104,455
817.529053,478
817.647644,491
817.766235,457
817.884949,483
818.00354,464
818.122192,464
818.240845,475
818.359436,492
818.478088,484
818.59668,477
818.715271,475
818.833923,458
818.952515,467
819.071106,480
819.189758,460
819.30835,463
819.426941,476
819.545532,470
819.664124,481
819.782715,472
819.901306,470
820.019897,484
820.138489,473
820.25708,465
820.375671,476
820.494202,462
820.612732,477
820.731384,479
820.849915,465
820.968506,477
821.087097,461
821.205627,463
821.324158,481
821.442749,477
821.561279,472
821.679871,453
821.798401,473
821.916931,467
822.035461,467
822.154053,475
822.272583,460
822.391174,473
822.509583,456
822.628174,460
822.746704,480
822.865234,472
822.983765,450
823.102295,452
823.220825,447
823.339294,477
823.457825,484
823.576355,458
823.694824,467
823.813354,465
823.931885,453
824.050354,468
824.168884,460
824.287354,471
824.405823,461
824.524353,472
824.642822,459
824.761353,477
824.879822,456
824.998291,460
825.116699,453
825.235291,451
825.353699,464
825.472168,467
825.590637,446
825.709106,459
825.827576,433
825.946045,447
826.064453,475
826.182983,470
826.301392,455
826.4198,462
826.53833,462
826.656738,457
826.775208,475
826.893677,452
827.012024,461
827.130493,454
827.248962,465
827.36731,472
827.485779,488
827.604248,469
827.722595,431
827.841064,470
827.959412,447
828.077942,453
828.196289,462
828.314636,451
828.433105,459
828.551514,438
828.669861,457
828.78833,463
828.906677,453
829.025085,464
829.143433,449
829.261841,447
829.38031,450
829.498657,466
829.617004,458
829.735413,454
829.85376,446
829.972107,459
830.090515,446
830.208862,450
830.327209,450
830.445557,447
830.563904,458
830.682312,458
830.800659,448
830.919006,470
831.037354,440
831.155701,481
831.274048,450
831.392395,448
831.51062,458
831.629028,448
831.747314,454
831.865662,460
831.984009,461
832.102356,451
832.220642,454
832.338928,470
832.457275,451
832.575623,471
832.693909,462
832.812134,471
832.930481,462
833.048828,459
833.167114,458
833.2854,456
833.403687,464
833.521973,471
833.640259,467
833.758545,473
833.876831,436
833.995056,446
834.113281,473
834.231628,455
834.349915,451
834.468201,472
834.586426,440
834.704651,466
834.822998,457
834.941162,461
835.059448,452
835.177673,442
835.295959,452
835.414246,457
835.53241,447
835.650635,468
835.768921,451
835.887146,450
836.005371,440
836.123596,469
836.241821,454
836.360046,457
836.478271,436
836.596497,444
836.714722,445
836.832886,472
836.95105,466
837.069336,449
837.1875,449
837.305725,462
837.423889,441
837.542053,451
837.660339,455
837.778503,453
837.896667,442
838.014832,457
838.132996,462
838.25116,433
838.369385,450
838.487488,465
838.605713,435
838.723877,452
838.84198,450
838.960205,450
839.078308,440
839.196472,461
839.314636,465
839.4328,446
839.550964,442
839.669067,466
839.787231,450
839.905396,466
840.023499,455
840.141602,453
840.259766,448
840.377869,452
840.495972,454
840.614136,445
840.732239,472
840.850342,462
840.968445,446
841.086548,452
841.204651,443
841.322754,457
841.440918,447
841.55896,450
841.677002,452
841.795166,460
841.913208,450
842.031311,442
842.149353,436
842.267456,440
842.385498,456
842.503601,453
842.621643,443
842.739746,465
842.857788,466
842.97583,447
843.093933,442
843.211975,482
843.330017,462
843.44812,480
843.566101,452
843.684204,460
843.802246,433
843.920227,439
844.038269,449
844.156311,472
844.274292,446
844.392395,466
844.510376,453
844.628357,475
844.74646,458
844.864441,449
844.982422,466
845.100403,455
845.218384,464
845.336426,444
845.454468,461
845.572449,471
845.69043,470
845.808411,452
845.926453,452
846.044373,469
846.162354,454
846.280396,489
846.398315,445
846.516296,446
846.634216,439
846.752197,468
846.870178,455
846.988098,428
847.106079,461
847.22406,467
847.34198,462
847.4599,467
847.577881,444
847.695801,447
847.813782,457
847.931641,477
848.049561,433
848.167603,465
848.285461,452
848.403381,479
848.521362,453
848.639221,468
848.75708,466
848.875,460
848.99292,457
849.110901,453
849.22876,456
849.34668,438
849.464539,457
849.582458,453
849.700317,453
849.818176,473
849.936096,459
850.053955,472
850.171875,461
850.289673,462
850.407593,448
850.525452,453
850.643311,467
850.761169,459
850.878967,476
850.996887,463
851.114746,454
851.232544,447
851.350403,448
851.468262,458
851.58606,457
851.703979,473
851.821777,453
851.939636,468
852.057434,470
852.175232,452
852.293091,452
852.410889,469
852.528687,441
852.646545,441
852.764343,462
852.88208,453
852.999939,468
853.117676,471
853.235535,450
853.353271,445
853.471069,465
853.588928,442
853.706604,441
853.824402,485
853.9422,448
854.059998,477
854.177734,453
854.295532,435
854.413269,471
854.531006,454
854.648804,459
854.766541,453
854.884277,446
855.002014,452
855.119751,453
855.237549,447
855.355225,461
855.473022,470
855.590698,456
855.708435,462
855.826172,448
855.943848,440
856.061646,437
856.179321,464
856.296997,461
856.414795,475
856.53241,461
856.650085,453
856.767822,456
856.885559,472
857.003174,447
857.120911,449
857.238586,439
857.356201,459
857.473938,464
857.591614,431
857.709351,475
857.826965,453
857.944641,464
858.062317,449
858.179993,451
858.297668,449
858.415283,452
858.532959,471
858.650574,458
858.768188,452
858.885803,452
859.003479,450
859.121094,467
859.23877,461
859.356384,453
859.473999,449
859.591675,454
859.709229,451
859.826843,451
859.944458,450
860.062012,439
860.179626,460
860.297302,456
860.414856,460
860.532471,450
860.650024,455
860.767639,460
860.885193,454
861.002808,462
861.120361,452
861.237976,452
861.35553,475
861.473022,437
861.590698,456
861.708191,457
861.825745,460
861.943298,459
862.060852,477
862.178406,456
862.295959,472
862.413513,441
862.531006,454
862.64856,460
862.766113,461
862.883667,450
863.00116,463
863.118713,462
863.236206,468
863.353699,450
863.471252,473
863.588745,457
863.706177,442
863.82373,447
863.941162,459
864.058716,456
864.176208,465
864.29364,450
864.411194,463
864.528687,456
864.646118,446
864.763611,447
864.881042,461
864.998535,463
865.116028,458
865.233459,450
865.350891,447
865.468384,452
865.585754,459
865.703308,458
865.820679,452
865.938171,465
866.055542,475
866.173035,467
866.290466,465
866.407837,441
866.52533,453
866.6427,465
866.760071,453
866.877563,460
866.994934,456
867.112305,437
867.229736,470
867.347107,446
867.464539,448
867.58197,461
867.699341,457
867.81665,463
867.934082,461
868.051453,463
868.168823,443
868.286194,457
868.403564,437
868.520935,454
868.638306,460
868.755676,439
868.872986,456
868.990295,456
869.107727,461
869.225037,455
869.342346,465
869.459717,487
869.577026,467
869.694336,456
869.811707,465
869.929016,453
870.046326,466
870.163635,459
870.280945,462
870.398254,457
870.515564,453
870.632812,454
870.750183,452
870.867432,455
870.984741,463
871.102051,443
871.219299,461
871.336609,451
871.453918,478
871.571106,444
871.688416,457
871.805664,463
871.922852,463
872.040222,467
872.157471,452
872.274719,449
872.391968,460
872.509155,442
872.626465,460
872.743652,463
872.860962,472
872.978149,436
873.095337,459
873.212646,459
873.329834,452
873.44696,442
873.564209,463
873.681396,464
873.798645,471
873.915894,464
874.03302,453
874.150208,444
874.267456,452
874.384583,457
874.501831,459
874.618958,455
874.736145,463
874.853333,450
874.970459,461
875.087646,454
875.204834,468
875.32196,451
875.439148,452
875.556274,451
875.673401,463
875.790527,435
875.907715,455
876.024841,467
876.141968,467
876.259094,454
876.376282,463
876.493347,448
876.610474,463
876.7276,465
876.844727,471
876.961853,459
877.078918,460
877.195984,459
877.313171,438
877.430237,461
877.547302,469
877.664368,447
877.781433,462
877.898499,441
878.015625,459
878.13269,453
878.249695,460
878.366821,450
878.483887,468
878.600952,465
878.717957,464
878.834961,460
878.952087,448
879.069092,440
879.186157,460
879.303162,473
879.420227,447
879.537231,446
879.654236,435
879.77124,469
879.888306,464
880.005249,459
880.122314,447
880.239319,452
880.356323,452
880.473328,457
880.590271,470
880.707275,465
880.824341,466
880.941284,474
881.058228,455
881.175232,462
881.292236,461
881.40918,472
881.526123,463
881.643066,460
881.760071,451
881.877014,457
881.993958,467
882.11084,477
882.227783,461
882.344727,472
882.46167,464
882.578613,458
882.695618,464
882.812439,472
882.929382,452
883.046326,461
883.163208,473
883.280151,456
883.397034,473
883.513916,465
883.630798,453
883.747742,452
883.864563,466
883.981506,452
884.098389,464
884.21521,449
884.332153,470
884.448975,456
884.565796,481
884.682678,457
884.7995,452
884.916443,461
885.033264,471
885.150085,465
885.266968,493
885.383789,456
885.500671,467
885.617493,455
885.734314,469
885.851196,463
885.967896,479
886.084717,469
886.201599,457
886.318359,477
886.435181,460
886.552002,477
886.668762,466
886.785645,472
886.902344,451
887.019165,455
887.135925,451
887.252747,459
887.369446,466
887.486267,448
887.603027,474
887.719788,458
887.836548,467
887.953247,454
888.070068,461
888.186829,441
888.303528,457
888.420288,461
888.536987,470
888.653687,452
888.770447,461
888.887146,459
889.003967,464
889.120667,447
889.237305,457
889.354065,461
889.470703,480
889.587463,449
889.704163,476
889.820862,448
889.937561,468
890.054199,445
890.170837,465
890.287598,441
890.404236,466
890.520874,465
890.637634,476
890.754211,456
890.87085,454
890.987549,470
891.104187,462
891.220886,461
891.337463,467
891.454102,448
891.57074,471
891.687378,465
891.804077,465
891.920654,464
892.037231,441
892.15387,464
892.270447,467
892.387085,454
892.503723,480
892.6203,460
892.736877,457
892.853516,459
892.970032,482
893.08667,469
893.203186,470
893.319763,453
893.43634,471
893.552917,468
893.669556,456
893.786011,452
893.902588,468
894.019165,461
894.135681,465
894.252197,464
894.368835,476
894.485291,478
894.601868,451
894.718384,456
894.8349,482
894.951355,474
895.067932,476
895.184448,451
895.300964,471
895.417419,455
895.533936,462
895.650452,472
895.766907,460
895.883423,444
895.999878,470
896.116333,452
896.232849,468
896.349304,456
896.465759,472
896.582214,472
896.698669,482
896.815125,479
896.931641,462
897.048035,452
897.164551,481
897.280884,471
897.397339,453
897.513794,461
897.630249,487
897.746582,454
897.863098,462
897.979431,470
898.095886,473
898.212341,470
898.328674,484
898.445129,466
898.561462,457
898.677795,467
898.794312,468
898.910645,469
899.026978,444
899.143433,436
899.259766,479
899.37616,458
899.492493,492
899.608765,459
899.725159,451
899.841553,456
899.957947,474
900.07428,463
900.190552,468
900.306946,466
900.423157,451
900.53949,464
900.655884,478
900.772156,470
900.888489,454
901.004822,433
901.121033,479
901.237366,450
901.353699,485
901.46991,465
901.586304,492
901.702515,465
901.818787,459
901.93512,440
902.051331,469
902.167603,451
902.283875,458
902.400085,477
902.516418,470
902.632629,486
902.74884,469
902.865112,466
902.981384,466
903.097595,472
903.213867,476
903.330017,472
903.446289,483
903.5625,475
903.67865,465
903.794922,471
903.911072,485
904.027344,489
904.143494,481
904.259705,451
904.375916,473
904.492065,456
904.608215,477
904.724426,480
904.840576,471
904.956726,465
905.072876,477
905.189087,487
905.305176,496
905.421387,481
905.537537,473
905.653687,482
905.769775,448
905.885925,461
906.002014,472
906.118164,483
906.234314,460
906.350403,483
906.466492,469
906.582642,472
906.69873,474
906.814758,486
906.930908,481
907.046936,477
907.163086,469
907.279175,483
907.395264,454
907.511353,458
907.62738,485
907.743408,487
907.859497,473
907.975525,455
908.091553,474
908.207703,464
908.32373,466
908.439758,465
908.555786,463
908.671814,485
908.787842,462
908.90387,461
909.019775,475
909.135864,454
909.251892,472
909.367859,492
909.483826,483
909.599854,477
909.715881,476
909.831848,455
909.947815,469
910.063782,473
910.179749,481
910.295776,471
910.411743,466
910.527649,478
910.643616,475
910.759583,450
910.875488,480
910.991455,461
911.107361,486
911.223267,469
911.339294,473
911.4552,484
911.571106,484
911.687073,462
911.802979,505
911.918823,453
912.034729,488
912.150635,476
912.266602,479
912.382446,483
912.498352,477
912.614197,444
912.730103,463
912.846008,470
