792.44574,600
792.56488,626
792.68396,673
792.80304,667
792.92218,606
793.041199,607
793.160339,577
793.279419,596
793.398499,609
793.517578,587
793.636658,607
793.755737,606
793.874817,590
793.993896,599
794.112976,618
794.232056,579
794.351074,596
794.470215,594
794.589233,558
794.708313,589
794.827393,565
794.946411,546
795.065552,576
795.18457,594
795.303589,596
795.422668,559
795.541687,585
795.660767,580
795.779846,589
795.898865,565
796.017883,576
796.136963,560
796.255981,557
796.375061,528
796.49408,577
796.613037,592
796.732117,566
796.851135,566
796.970154,570
797.089233,560
797.208191,572
797.327271,568
797.446228,581
797.565186,578
797.684265,575
797.803223,564
797.922241,575
798.04126,548
798.160278,569
798.279297,546
798.398315,562
798.517273,569
798.636292,588
798.75531,566
798.874268,559
798.993286,554
799.112244,562
799.231323,556
799.350281,569
799.469238,592
799.588257,560
799.707153,555
799.826111,569
799.945129,573
800.064087,554
800.183044,573
800.302063,575
800.421021,565
800.539978,555
800.658936,574
800.777893,565
800.896912,539
801.015747,559
801.134705,579
801.253723,583
801.37262,558
801.491638,553
801.610535,589
801.729492,583
801.84845,572
801.967407,565
802.086243,566
802.205261,569
802.324158,574
802.443115,553
802.562073,590
802.680969,594
802.799927,568
802.918762,594
803.037659,564
803.156677,568
803.275574,584
803.39447,570
803.513428,571
803.632263,578
803.751221,579
803.870117,591
803.989014,571
804.107971,573
804.226746,576
804.345642,573
804.4646,575
804.583496,596
804.702393,596
804.821228,581
804.940125,591
805.059021,605
805.177917,563
805.296814,622
805.415649,570
805.534546,602
805.653442,582
805.772278,584
805.891113,605
806.01001,606
806.128906,584
806.247742,600
806.366577,605
806.485413,602
806.604309,612
806.723145,607
806.84198,584
806.960876,604
807.079712,626
807.198486,586
807.317383,636
807.436218,588
807.554993,601
807.673889,596
807.792725,590
807.91156,604
808.030396,624
808.14917,613
808.268005,592
808.386841,622
808.505676,613
808.624451,607
808.743286,609
808.862122,608
808.980896,591
809.099731,596
809.218506,608
809.337341,591
809.456116,593
809.57489,597
809.693726,622
809.8125,629
809.931274,605
810.050049,624
810.168884,588
810.287659,626
810.406372,607
810.525269,609
810.643982,613
810.762756,611
810.881531,615
811.000305,613
811.11908,605
811.237854,627
811.356567,643
811.475403,613
811.594116,617
811.71283,599
811.831604,604
811.950378,611
812.069153,608
812.187927,619
812.30658,615
812.425415,618
812.544128,624
812.662781,629
812.781616,619
812.900269,613
813.019043,617
813.137756,598
813.256531,613
813.375244,620
813.493896,636
813.612671,607
813.731384,599
813.850037,603
813.96875,604
814.087524,626
814.206238,577
814.324951,611
814.443604,603
814.562256,598
814.68103,619
814.799683,598
814.918335,571
815.037109,600
815.155762,583
815.274475,618
815.393188,595
815.511841,611
815.630554,577
815.749146,587
815.867859,616
815.986572,608
816.105164,599
816.223877,606
816.342529,588
816.461182,580
816.579895,561
816.698486,602
816.817139,603
816.935791,606
817.054504,573
817.173096,612
817.291748,593
817.4104,587
817.529053,596
817.647644,572
817.766235,562
817.884949,589
818.00354,565
818.122192,574
818.240845,569
818.359436,550
818.478088,526
818.59668,559
818.715271,509
818.833923,539
818.952515,507
819.071106,518
819.189758,506
819.30835,502
819.426941,489
819.545532,509
819.664124,482
819.782715,524
819.901306,502
820.019897,516
820.138489,505
820.25708,495
820.375671,496
820.494202,499
820.612732,500
820.731384,480
820.849915,494
820.968506,490
821.087097,479
821.205627,494
821.324158,492
821.442749,486
821.561279,485
821.679871,499
821.798401,481
821.916931,493
822.035461,502
822.154053,497
822.272583,483
822.391174,463
822.509583,485
822.628174,481
822.746704,487
822.865234,464
822.983765,444
823.102295,477
823.220825,486
823.339294,509
823.457825,473
823.576355,474
823.694824,478
823.813354,489
823.931885,477
824.050354,477
824.168884,495
824.287354,498
824.405823,474
824.524353,471
824.642822,506
824.761353,459
824.879822,483
824.998291,492
825.116699,477
825.235291,484
825.353699,482
825.472168,479
825.590637,478
825.709106,476
825.827576,474
825.946045,455
826.064453,490
826.182983,467
826.301392,460
826.4198,452
826.53833,473
826.656738,481
826.775208,482
826.893677,490
827.012024,457
827.130493,457
827.248962,453
827.36731,454
827.485779,476
827.604248,477
827.722595,463
827.841064,453
827.959412,459
828.077942,482
828.196289,467
828.314636,449
828.433105,449
828.551514,475
828.669861,459
828.78833,449
828.906677,444
829.025085,453
829.143433,463
829.261841,461
829.38031,443
829.498657,468
829.617004,463
829.735413,468
829.85376,453
829.972107,458
830.090515,457
830.208862,459
830.327209,458
830.445557,443
830.563904,456
830.682312,451
830.800659,456
830.919006,458
831.037354,441
831.155701,471
831.274048,460
831.392395,457
831.51062,462
831.629028,462
831.747314,443
831.865662,452
831.984009,462
832.102356,461
832.220642,452
832.338928,443
832.457275,446
832.575623,447
832.693909,466
832.812134,456
832.930481,464
833.048828,443
833.167114,448
833.2854,465
833.403687,453
833.521973,462
833.640259,458
833.758545,444
833.876831,462
833.995056,466
834.113281,441
834.231628,460
834.349915,449
834.468201,469
834.586426,464
834.704651,463
834.822998,434
834.941162,449
835.059448,443
835.177673,455
835.295959,444
835.414246,452
835.53241,457
835.650635,436
835.768921,449
835.887146,469
836.005371,473
836.123596,474
836.241821,463
836.360046,491
836.478271,466
836.596497,444
836.714722,457
836.832886,469
836.95105,491
837.069336,463
837.1875,465
837.305725,467
837.423889,477
837.542053,454
837.660339,468
837.778503,485
837.896667,474
838.014832,487
838.132996,470
838.25116,462
838.369385,468
838.487488,474
838.605713,469
838.723877,486
838.84198,465
838.960205,470
839.078308,460
839.196472,463
839.314636,474
839.4328,468
839.550964,464
839.669067,463
839.787231,453
839.905396,486
840.023499,477
840.141602,469
840.259766,476
840.377869,474
840.495972,465
840.614136,471
840.732239,479
840.850342,470
840.968445,451
841.086548,476
841.204651,466
841.322754,448
841.440918,460
841.55896,470
841.677002,478
841.795166,459
841.913208,447
842.031311,464
842.149353,452
842.267456,452
842.385498,449
842.503601,448
842.621643,439
842.739746,453
842.857788,446
842.97583,451
843.093933,426
843.211975,459
843.330017,447
843.44812,466
843.566101,458
843.684204,449
843.802246,461
843.920227,457
844.038269,451
844.156311,445
844.274292,449
844.392395,438
844.510376,473
844.628357,432
844.74646,463
844.864441,443
844.982422,455
845.100403,436
845.218384,463
845.336426,461
845.454468,451
845.572449,428
845.69043,445
845.808411,452
845.926453,450
846.044373,450
846.162354,450
846.280396,472
846.398315,463
846.516296,442
846.634216,470
846.752197,458
846.870178,444
846.988098,447
847.106079,452
847.22406,449
847.34198,455
847.4599,473
847.577881,456
847.695801,455
847.813782,445
847.931641,449
848.049561,444
848.167603,458
848.285461,460
848.403381,439
848.521362,436
848.639221,453
848.75708,437
848.875,445
848.99292,454
849.110901,477
849.22876,435
849.34668,454
849.464539,454
849.582458,454
849.700317,444
849.818176,448
849.936096,432
850.053955,476
850.171875,451
850.289673,469
850.407593,453
850.525452,468
850.643311,459
850.761169,462
850.878967,436
850.996887,440
851.114746,438
851.232544,465
851.350403,460
851.468262,464
851.58606,445
851.703979,451
851.821777,458
851.939636,450
852.057434,466
852.175232,451
852.293091,454
852.410889,450
852.528687,458
852.646545,471
852.764343,432
852.88208,454
852.999939,469
853.117676,447
853.235535,450
853.353271,463
853.471069,450
853.588928,455
853.706604,441
853.824402,441
853.9422,456
854.059998,465
854.177734,460
854.295532,436
854.413269,447
854.531006,444
854.648804,443
854.766541,461
854.884277,450
855.002014,455
855.119751,457
855.237549,473
855.355225,446
855.473022,450
855.590698,456
855.708435,465
855.826172,463
855.943848,460
856.061646,450
856.179321,448
856.296997,446
856.414795,463
856.53241,463
856.650085,456
856.767822,478
856.885559,445
857.003174,457
857.120911,459
857.238586,448
857.356201,450
857.473938,455
857.591614,449
857.709351,453
857.826965,474
857.944641,474
858.062317,454
858.179993,451
858.297668,456
858.415283,438
858.532959,459
858.650574,450
858.768188,466
858.885803,467
859.003479,435
859.121094,447
859.23877,444
859.356384,439
859.473999,465
859.591675,460
859.709229,456
859.826843,452
859.944458,460
860.062012,448
860.179626,442
860.297302,443
860.414856,469
860.532471,461
860.650024,458
860.767639,440
860.885193,460
861.002808,447
861.120361,453
861.237976,471
861.35553,441
861.473022,459
861.590698,457
861.708191,448
861.825745,459
861.943298,451
862.060852,461
862.178406,466
862.295959,455
862.413513,444
862.531006,462
862.64856,456
862.766113,446
862.883667,453
863.00116,473
863.118713,448
863.236206,451
863.353699,437
863.471252,442
863.588745,441
863.706177,460
863.82373,444
863.941162,461
864.058716,450
864.176208,461
864.29364,463
864.411194,445
864.528687,455
864.646118,459
864.763611,467
864.881042,475
864.998535,441
865.116028,458
865.233459,470
865.350891,444
865.468384,454
865.585754,469
865.703308,445
865.820679,466
865.938171,466
866.055542,461
866.173035,484
866.290466,460
866.407837,463
866.52533,455
866.6427,442
866.760071,468
866.877563,453
866.994934,467
867.112305,446
867.229736,450
867.347107,452
867.464539,452
867.58197,441
867.699341,459
867.81665,464
867.934082,432
868.051453,444
868.168823,456
868.286194,465
868.403564,462
868.520935,450
868.638306,442
868.755676,451
868.872986,455
868.990295,453
869.107727,463
869.225037,469
869.342346,439
869.459717,455
869.577026,462
869.694336,459
869.811707,450
869.929016,461
870.046326,458
870.163635,454
870.280945,458
870.398254,446
870.515564,455
870.632812,440
870.750183,464
870.867432,464
870.984741,446
871.102051,479
871.219299,452
871.336609,471
871.453918,472
871.571106,439
871.688416,458
871.805664,455
871.922852,456
872.040222,424
872.157471,459
872.274719,454
872.391968,478
872.509155,469
872.626465,450
872.743652,462
872.860962,476
872.978149,467
873.095337,472
873.212646,464
873.329834,460
873.44696,433
873.564209,460
873.681396,437
873.798645,450
873.915894,469
874.03302,464
874.150208,446
874.267456,475
874.384583,454
874.501831,453
874.618958,456
874.736145,464
874.853333,449
874.970459,461
875.087646,448
875.204834,454
875.32196,464
875.439148,453
875.556274,462
875.673401,466
875.790527,465
875.907715,458
876.024841,437
876.141968,458
876.259094,444
876.376282,478
876.493347,452
876.610474,467
876.7276,448
876.844727,454
876.961853,456
877.078918,450
877.195984,463
877.313171,478
877.430237,443
877.547302,482
877.664368,453
877.781433,463
877.898499,456
878.015625,447
878.13269,447
878.249695,461
878.366821,447
878.483887,469
878.600952,456
878.717957,457
878.834961,467
878.952087,473
879.069092,473
879.186157,455
879.303162,476
879.420227,446
879.537231,436
879.654236,457
879.77124,470
879.888306,461
880.005249,465
880.122314,474
880.239319,453
880.356323,470
880.473328,449
880.590271,468
880.707275,459
880.824341,450
880.941284,447
881.058228,448
881.175232,455
881.292236,462
881.40918,449
881.526123,455
881.643066,472
881.760071,433
881.877014,458
881.993958,464
882.11084,464
882.227783,460
882.344727,454
882.46167,451
882.578613,453
882.695618,440
882.812439,477
882.929382,457
883.046326,446
883.163208,466
883.280151,464
883.397034,478
883.513916,454
883.630798,470
883.747742,451
883.864563,455
883.981506,456
884.098389,470
884.21521,475
884.332153,473
884.448975,471
884.565796,482
884.682678,465
884.7995,464
884.916443,473
885.033264,461
885.150085,440
885.266968,484
885.383789,473
885.500671,479
885.617493,474
885.734314,456
885.851196,467
885.967896,471
886.084717,452
886.201599,478
886.318359,465
886.435181,497
886.552002,454
886.668762,465
886.785645,475
886.902344,466
887.019165,458
887.135925,448
887.252747,443
887.369446,475
887.486267,458
887.603027,467
887.719788,444
887.836548,463
887.953247,434
888.070068,484
888.186829,454
888.303528,478
888.420288,484
888.536987,460
888.653687,457
888.770447,460
888.887146,444
889.003967,466
889.120667,462
889.237305,462
889.354065,469
889.470703,466
889.587463,461
889.704163,459
889.820862,473
889.937561,458
890.054199,457
890.170837,477
890.287598,463
890.404236,461
890.520874,436
890.637634,457
890.754211,475
890.87085,482
890.987549,475
891.104187,464
891.220886,463
891.337463,477
891.454102,461
891.57074,458
891.687378,462
891.804077,473
891.920654,459
892.037231,471
892.15387,458
892.270447,477
892.387085,464
892.503723,481
892.6203,462
892.736877,458
892.853516,463
892.970032,469
893.08667,474
893.203186,463
893.319763,463
893.43634,474
893.552917,455
893.669556,461
893.786011,466
893.902588,462
894.019165,448
894.135681,456
894.252197,476
894.368835,467
894.485291,461
894.601868,469
894.718384,472
894.8349,463
894.951355,484
895.067932,483
895.184448,458
895.300964,473
895.417419,469
895.533936,475
895.650452,459
895.766907,474
895.883423,463
895.999878,474
896.116333,456
896.232849,484
896.349304,477
896.465759,468
896.582214,471
896.698669,487
896.815125,475
896.931641,460
897.048035,470
897.164551,465
897.280884,457
897.397339,462
897.513794,481
897.630249,485
897.746582,463
897.863098,477
897.979431,453
898.095886,491
898.212341,473
898.328674,468
898.445129,469
898.561462,476
898.677795,487
898.794312,467
898.910645,471
899.026978,470
899.143433,480
899.259766,463
899.37616,453
899.492493,473
899.608765,474
899.725159,480
899.841553,468
899.957947,488
900.07428,470
900.190552,484
900.306946,487
900.423157,487
900.53949,473
900.655884,502
900.772156,460
900.888489,465
901.004822,463
901.121033,484
901.237366,446
901.353699,479
901.46991,471
901.586304,470
901.702515,456
901.818787,487
901.93512,447
902.051331,501
902.167603,456
902.283875,475
902.400085,480
902.516418,452
902.632629,477
902.74884,497
902.865112,458
902.981384,471
903.097595,474
903.213867,476
903.330017,489
903.446289,459
903.5625,460
903.67865,480
903.794922,471
903.911072,471
904.027344,468
904.143494,485
904.259705,476
904.375916,485
904.492065,489
904.608215,460
904.724426,459
904.840576,489
904.956726,469
905.072876,479
905.189087,464
905.305176,487
905.421387,455
905.537537,481
905.653687,454
905.769775,467
905.885925,456
906.002014,465
906.118164,477
906.234314,484
906.350403,470
906.466492,471
906.582642,469
906.69873,485
906.814758,476
906.930908,489
907.046936,472
907.163086,470
907.279175,475
907.395264,482
907.511353,475
907.62738,475
907.743408,501
907.859497,477
907.975525,455
908.091553,475
908.207703,476
908.32373,483
908.439758,485
908.555786,468
908.671814,452
908.787842,483
908.90387,470
909.019775,465
909.135864,460
909.251892,476
909.367859,494
909.483826,483
909.599854,461
909.715881,501
909.831848,458
909.947815,472
910.063782,471
910.179749,487
910.295776,481
910.411743,494
910.527649,491
910.643616,466
910.759583,460
910.875488,478
910.991455,480
911.107361,477
911.223267,468
911.339294,476
911.4552,485
911.571106,482
911.687073,499
911.802979,485
911.918823,469
912.034729,488
912.150635,486
912.266602,496
912.382446,469
912.498352,493
912.614197,476
912.730103,462
912.846008,465
792.44574,602
792.56488,614
792.68396,690
792.80304,657
792.92218,628
793.041199,590
793.160339,602
793.279419,600
793.398499,579
793.517578,604
793.636658,595
793.755737,599
793.874817,629
793.993896,577
794.112976,595
794.232056,589
794.351074,599
794.470215,584
794.589233,608
794.708313,582
794.827393,608
794.946411,574
795.065552,602
795.18457,586
795.303589,565
795.422668,586
795.541687,609
795.660767,593
795.779846,589
795.898865,573
796.017883,587
796.136963,584
796.255981,568
796.375061,571
796.49408,578
796.613037,561
796.732117,569
796.851135,547
796.970154,565
797.089233,587
797.208191,545
797.327271,553
797.446228,572
797.565186,567
797.684265,593
797.803223,561
797.922241,584
798.04126,548
798.160278,564
798.279297,577
798.398315,558
798.517273,554
798.636292,548
798.75531,574
798.874268,573
798.993286,573
799.112244,549
799.231323,552
799.350281,563
799.469238,545
799.588257,582
799.707153,560
799.826111,573
799.945129,559
800.064087,557
800.183044,574
800.302063,545
800.421021,580
800.539978,549
800.658936,572
800.777893,586
800.896912,592
801.015747,562
801.134705,581
801.253723,567
801.37262,557
801.491638,588
801.610535,565
801.729492,566
801.84845,592
801.967407,582
802.086243,547
802.205261,597
802.324158,577
802.443115,595
802.562073,571
802.680969,593
802.799927,602
802.918762,573
803.037659,592
803.156677,577
803.275574,578
803.39447,592
803.513428,571
803.632263,594
803.751221,608
803.870117,590
803.989014,563
804.107971,607
804.226746,589
804.345642,600
804.4646,588
804.583496,565
804.702393,584
804.821228,596
804.940125,602
805.059021,597
805.177917,566
805.296814,591
805.415649,575
805.534546,591
805.653442,566
805.772278,605
805.891113,622
806.01001,601
806.128906,612
806.247742,562
806.366577,591
806.485413,614
806.604309,624
806.723145,582
806.84198,594
806.960876,613
807.079712,588
807.198486,591
807.317383,584
807.436218,583
807.554993,612
807.673889,596
807.792725,614
807.91156,603
808.030396,609
808.14917,589
808.268005,588
808.386841,587
808.505676,601
808.624451,613
808.743286,599
808.862122,604
808.980896,608
809.099731,606
809.218506,615
809.337341,603
809.456116,614
809.57489,631
809.693726,617
809.8125,622
809.931274,620
810.050049,628
810.168884,623
810.287659,613
810.406372,597
810.525269,592
810.643982,592
810.762756,598
810.881531,622
811.000305,634
811.11908,615
811.237854,592
811.356567,607
811.475403,592
811.594116,616
811.71283,618
811.831604,620
811.950378,620
812.069153,611
812.187927,618
812.30658,601
812.425415,618
812.544128,620
812.662781,634
812.781616,628
812.900269,601
813.019043,620
813.137756,635
813.256531,605
813.375244,608
813.493896,625
813.612671,602
813.731384,625
813.850037,635
813.96875,632
814.087524,633
814.206238,596
814.324951,606
814.443604,592
814.562256,622
814.68103,631
814.799683,619
814.918335,609
815.037109,615
815.155762,593
815.274475,600
815.393188,583
815.511841,615
815.630554,587
815.749146,603
815.867859,587
815.986572,592
816.105164,593
816.223877,613
816.342529,606
816.461182,627
816.579895,586
816.698486,623
816.817139,600
816.935791,623
817.054504,619
817.173096,598
817.291748,599
817.4104,603
817.529053,571
817.647644,599
817.766235,574
817.884949,573
818.00354,564
818.122192,560
818.240845,543
818.359436,562
818.478088,541
818.59668,537
818.715271,508
818.833923,533
818.952515,522
819.071106,503
819.189758,513
819.30835,496
819.426941,509
819.545532,496
819.664124,500
819.782715,513
819.901306,486
820.019897,498
820.138489,484
820.25708,505
820.375671,503
820.494202,504
820.612732,482
820.731384,490
820.849915,483
820.968506,505
821.087097,494
821.205627,482
821.324158,483
821.442749,512
821.561279,467
821.679871,479
821.798401,484
821.916931,492
822.035461,483
822.154053,504
822.272583,496
822.391174,480
822.509583,486
822.628174,510
822.746704,466
822.865234,488
822.983765,479
823.102295,460
823.220825,495
823.339294,479
823.457825,478
823.576355,482
823.694824,474
823.813354,469
823.931885,497
824.050354,465
824.168884,484
824.287354,490
824.405823,494
824.524353,477
824.642822,475
824.761353,493
824.879822,479
824.998291,476
825.116699,490
825.235291,466
825.353699,501
825.472168,477
825.590637,474
825.709106,488
825.827576,478
825.946045,471
826.064453,466
826.182983,469
826.301392,482
826.4198,463
826.53833,454
826.656738,474
826.775208,477
826.893677,486
827.012024,458
827.130493,460
827.248962,470
827.36731,465
827.485779,455
827.604248,484
827.722595,460
827.841064,463
827.959412,480
828.077942,445
828.196289,450
828.314636,452
828.433105,458
828.551514,462
828.669861,463
828.78833,450
828.906677,454
829.025085,467
829.143433,467
829.261841,457
829.38031,450
829.498657,456
829.617004,474
829.735413,468
829.85376,473
829.972107,466
830.090515,450
830.208862,468
830.327209,468
830.445557,458
830.563904,456
830.682312,455
830.800659,447
830.919006,449
831.037354,419
831.155701,473
831.274048,445
831.392395,449
831.51062,448
831.629028,474
831.747314,451
831.865662,467
831.984009,454
832.102356,467
832.220642,470
832.338928,472
832.457275,449
832.575623,469
832.693909,443
832.812134,447
832.930481,466
833.048828,465
833.167114,458
833.2854,478
833.403687,467
833.521973,470
833.640259,455
833.758545,453
833.876831,481
833.995056,452
834.113281,456
834.231628,453
834.349915,442
834.468201,473
834.586426,449
834.704651,460
834.822998,457
834.941162,462
835.059448,447
835.177673,465
835.295959,468
835.414246,455
835.53241,460
835.650635,454
835.768921,466
835.887146,466
836.005371,465
836.123596,473
836.241821,454
836.360046,447
836.478271,468
836.596497,456
836.714722,476
836.832886,471
836.95105,477
837.069336,469
837.1875,487
837.305725,477
837.423889,473
837.542053,465
837.660339,486
837.778503,492
837.896667,490
838.014832,484
838.132996,466
838.25116,455
838.369385,476
838.487488,486
838.605713,462
838.723877,460
838.84198,467
838.960205,479
839.078308,489
839.196472,468
839.314636,478
839.4328,478
839.550964,454
839.669067,465
839.787231,471
839.905396,464
840.023499,495
840.141602,493
840.259766,455
840.377869,475
840.495972,479
840.614136,485
840.732239,477
840.850342,472
840.968445,471
841.086548,495
841.204651,451
841.322754,442
841.440918,453
841.55896,470
841.677002,463
841.795166,458
841.913208,440
842.031311,456
842.149353,463
842.267456,456
842.385498,454
842.503601,445
842.621643,440
842.739746,466
842.857788,459
842.97583,459
843.093933,471
843.211975,443
843.330017,441
843.44812,467
843.566101,450
843.684204,451
843.802246,457
843.920227,445
844.038269,449
844.156311,445
844.274292,451
844.392395,467
844.510376,456
844.628357,444
844.74646,444
844.864441,461
844.982422,439
845.100403,462
845.218384,454
845.336426,452
845.454468,444
845.572449,450
845.69043,459
845.808411,449
845.926453,450
846.044373,463
846.162354,476
846.280396,439
846.398315,442
846.516296,451
846.634216,454
846.752197,443
846.870178,451
846.988098,449
847.106079,446
847.22406,466
847.34198,438
847.4599,464
847.577881,444
847.695801,455
847.813782,457
847.931641,465
848.049561,455
848.167603,454
848.285461,444
848.403381,455
848.521362,444
848.639221,438
848.75708,458
848.875,439
848.99292,451
849.110901,457
849.22876,464
849.34668,447
849.464539,450
849.582458,475
849.700317,430
849.818176,452
849.936096,454
850.053955,451
850.171875,470
850.289673,462
850.407593,465
850.525452,455
850.643311,442
850.761169,465
850.878967,439
850.996887,448
851.114746,452
851.232544,457
851.350403,448
851.468262,438
851.58606,458
851.703979,456
851.821777,447
851.939636,463
852.057434,439
852.175232,450
852.293091,453
852.410889,461
852.528687,442
852.646545,471
852.764343,447
852.88208,479
852.999939,455
853.117676,453
853.235535,450
853.353271,445
853.471069,452
853.588928,476
853.706604,453
853.824402,470
853.9422,435
854.059998,453
854.177734,432
854.295532,443
854.413269,446
854.531006,464
854.648804,460
854.766541,460
854.884277,465
855.002014,452
855.119751,463
855.237549,476
855.355225,466
855.473022,452
855.590698,451
855.708435,457
855.826172,458
855.943848,455
856.061646,467
856.179321,462
856.296997,474
856.414795,457
856.53241,442
856.650085,465
856.767822,477
856.885559,469
857.003174,455
857.120911,444
857.238586,462
857.356201,463
857.473938,456
857.591614,472
857.709351,461
857.826965,474
857.944641,449
858.062317,486
858.179993,467
858.297668,463
858.415283,456
858.532959,450
858.650574,455
858.768188,475
858.885803,464
859.003479,456
859.121094,458
859.23877,480
859.356384,448
859.473999,457
859.591675,469
859.709229,483
859.826843,451
859.944458,460
860.062012,428
860.179626,459
860.297302,473
860.414856,463
860.532471,456
860.650024,458
860.767639,448
860.885193,449
861.002808,461
861.120361,454
861.237976,444
861.35553,457
861.473022,456
861.590698,469
861.708191,449
861.825745,467
861.943298,461
862.060852,461
862.178406,468
862.295959,453
862.413513,451
862.531006,462
862.64856,447
862.766113,458
862.883667,452
863.00116,444
863.118713,476
863.236206,459
863.353699,449
863.471252,468
863.588745,483
863.706177,477
863.82373,449
863.941162,442
864.058716,452
864.176208,449
864.29364,453
864.411194,456
864.528687,458
864.646118,471
864.763611,445
864.881042,464
864.998535,462
865.116028,455
865.233459,439
865.350891,466
865.468384,445
865.585754,471
865.703308,477
865.820679,442
865.938171,468
866.055542,481
866.173035,461
866.290466,441
866.407837,467
866.52533,475
866.6427,465
866.760071,460
866.877563,456
866.994934,468
867.112305,464
867.229736,459
867.347107,455
867.464539,475
867.58197,460
867.699341,448
867.81665,462
867.934082,479
868.051453,462
868.168823,464
868.286194,461
868.403564,478
868.520935,467
868.638306,483
868.755676,461
868.872986,477
868.990295,462
869.107727,462
869.225037,464
869.342346,439
869.459717,450
869.577026,452
869.694336,473
869.811707,466
869.929016,446
870.046326,465
870.163635,465
870.280945,462
870.398254,444
870.515564,476
870.632812,447
870.750183,467
870.867432,444
870.984741,456
871.102051,438
871.219299,461
871.336609,468
871.453918,446
871.571106,438
871.688416,464
871.805664,450
871.922852,450
872.040222,443
872.157471,472
872.274719,460
872.391968,472
872.509155,434
872.626465,465
872.743652,438
872.860962,459
872.978149,450
873.095337,452
873.212646,456
873.329834,448
873.44696,470
873.564209,466
873.681396,458
873.798645,461
873.915894,444
874.03302,458
874.150208,448
874.267456,456
874.384583,447
874.501831,448
874.618958,459
874.736145,462
874.853333,457
874.970459,465
875.087646,474
875.204834,459
875.32196,459
875.439148,448
875.556274,441
875.673401,454
875.790527,470
875.907715,460
876.024841,443
876.141968,468
876.259094,466
876.376282,473
876.493347,456
876.610474,455
876.7276,476
876.844727,445
876.961853,471
877.078918,448
877.195984,463
877.313171,478
877.430237,473
877.547302,459
877.664368,465
877.781433,449
877.898499,453
878.015625,450
878.13269,450
878.249695,468
878.366821,454
878.483887,462
878.600952,451
878.717957,468
878.834961,452
878.952087,464
879.069092,464
879.186157,459
879.303162,464
879.420227,462
879.537231,464
879.654236,473
879.77124,442
879.888306,463
880.005249,468
880.122314,467
880.239319,455
880.356323,470
880.473328,452
880.590271,465
880.707275,460
880.824341,458
880.941284,452
881.058228,460
881.175232,448
881.292236,459
881.40918,445
881.526123,449
881.643066,437
881.760071,466
881.877014,468
881.993958,465
882.11084,479
882.227783,457
882.344727,465
882.46167,460
882.578613,465
882.695618,471
882.812439,430
882.929382,437
883.046326,495
883.163208,446
883.280151,462
883.397034,462
883.513916,461
883.630798,471
883.747742,463
883.864563,465
883.981506,474
884.098389,456
884.21521,457
884.332153,462
884.448975,483
884.565796,463
884.682678,462
884.7995,471
884.916443,449
885.033264,466
885.150085,453
885.266968,475
885.383789,464
885.500671,471
885.617493,468
885.734314,443
885.851196,458
885.967896,462
886.084717,474
886.201599,479
886.318359,480
886.435181,473
886.552002,464
886.668762,479
886.785645,458
886.902344,459
887.019165,469
887.135925,489
887.252747,472
887.369446,475
887.486267,474
887.603027,483
887.719788,462
887.836548,451
887.953247,462
888.070068,458
888.186829,468
888.303528,467
888.420288,466
888.536987,460
888.653687,456
888.770447,465
888.887146,465
889.003967,461
889.120667,481
889.237305,474
889.354065,458
889.470703,476
889.587463,483
889.704163,480
889.820862,469
889.937561,471
890.054199,462
890.170837,490
890.287598,473
890.404236,465
890.520874,448
890.637634,483
890.754211,455
890.87085,476
890.987549,461
891.104187,460
891.220886,465
891.337463,488
891.454102,485
891.57074,471
891.687378,452
891.804077,461
891.920654,460
892.037231,472
892.15387,475
892.270447,466
892.387085,453
892.503723,463
892.6203,483
892.736877,478
892.853516,467
892.970032,458
893.08667,459
893.203186,465
893.319763,470
893.43634,483
893.552917,459
893.669556,496
893.786011,462
893.902588,477
894.019165,488
894.135681,478
894.252197,474
894.368835,483
894.485291,458
894.601868,474
894.718384,468
894.8349,472
894.951355,469
895.067932,473
895.184448,437
895.300964,488
895.417419,458
895.533936,485
895.650452,459
895.766907,469
895.883423,473
895.999878,485
896.116333,488
896.232849,450
896.349304,462
896.465759,480
896.582214,482
896.698669,473
896.815125,492
896.931641,474
897.048035,475
897.164551,462
897.280884,469
897.397339,468
897.513794,465
897.630249,483
897.746582,471
897.863098,469
897.979431,465
898.095886,485
898.212341,455
898.328674,468
898.445129,463
898.561462,476
898.677795,466
898.794312,482
898.910645,466
899.026978,472
899.143433,480
899.259766,475
899.37616,487
899.492493,476
899.608765,495
899.725159,478
899.841553,455
899.957947,487
900.07428,474
900.190552,460
900.306946,488
900.423157,492
900.53949,471
900.655884,481
900.772156,470
900.888489,473
901.004822,476
901.121033,479
901.237366,463
901.353699,488
901.46991,466
901.586304,469
901.702515,467
901.818787,496
901.93512,483
902.051331,469
902.167603,471
902.283875,483
902.400085,458
902.516418,485
902.632629,476
902.74884,470
902.865112,463
902.981384,467
903.097595,486
903.213867,480
903.330017,483
903.446289,464
903.5625,471
903.67865,486
903.794922,480
903.911072,482
904.027344,509
904.143494,467
904.259705,463
904.375916,469
904.492065,479
904.608215,477
904.724426,469
904.840576,477
904.956726,472
905.072876,471
905.189087,467
905.305176,485
905.421387,484
905.537537,486
905.653687,475
905.769775,505
905.885925,458
906.002014,507
906.118164,487
906.234314,474
906.350403,478
906.466492,493
906.582642,463
906.69873,480
906.814758,462
906.930908,476
907.046936,470
907.163086,486
907.279175,483
907.395264,482
907.511353,484
907.62738,477
907.743408,486
907.859497,484
907.975525,490
908.091553,483
908.207703,475
908.32373,481
908.439758,497
908.555786,485
908.671814,463
908.787842,487
908.90387,468
909.019775,474
909.135864,495
909.251892,496
909.367859,471
909.483826,491
909.599854,476
909.715881,484
909.831848,509
909.947815,481
910.063782,464
910.179749,486
910.295776,490
910.411743,466
910.527649,474
910.643616,490
910.759583,482
910.875488,488
910.991455,472
911.107361,462
911.223267,496
911.339294,491
911.4552,469
911.571106,483
911.687073,481
911.802979,487
911.918823,471
912.034729,489
912.150635,473
912.266602,484
912.382446,453
912.498352,479
912.614197,466
912.730103,492
912.846008,465
792.44574,613
792.56488,667
792.68396,659
792.80304,668
792.92218,622
793.041199,606
793.160339,575
793.279419,589
793.398499,604
793.517578,588
793.636658,581
793.755737,611
793.874817,612
793.993896,600
794.112976,589
794.232056,571
794.351074,572
794.470215,597
794.589233,597
794.708313,581
794.827393,581
794.946411,582
795.065552,584
795.18457,598
795.303589,584
795.422668,601
795.541687,605
795.660767,589
795.779846,578
795.898865,598
796.017883,592
796.136963,575
796.255981,583
796.375061,563
796.49408,591
796.613037,596
796.732117,577
796.851135,565
796.970154,574
797.089233,572
797.208191,560
797.327271,573
797.446228,571
797.565186,565
797.684265,556
797.803223,573
797.922241,585
798.04126,570
798.160278,564
798.279297,555
798.398315,569
798.517273,568
798.636292,546
798.75531,557
798.874268,573
798.993286,570
799.112244,549
799.231323,556
799.350281,545
799.469238,555
799.588257,550
799.707153,557
799.826111,570
799.945129,576
800.064087,583
800.183044,574
800.302063,553
800.421021,575
800.539978,565
800.658936,570
800.777893,558
800.896912,558
801.015747,557
801.134705,555
801.253723,558
801.37262,567
801.491638,567
801.610535,585
801.729492,558
801.84845,581
801.967407,584
802.086243,575
802.205261,577
802.324158,575
802.443115,597
802.562073,605
802.680969,566
802.799927,610
802.918762,554
803.037659,574
803.156677,563
803.275574,571
803.39447,607
803.513428,597
803.632263,578
803.751221,593
803.870117,578
803.989014,567
804.107971,596
804.226746,596
804.345642,606
804.4646,599
804.583496,576
804.702393,574
804.821228,575
804.940125,583
805.059021,600
805.177917,594
805.296814,609
805.415649,598
805.534546,579
805.653442,582
805.772278,632
805.891113,615
806.01001,577
806.128906,593
806.247742,581
806.366577,590
806.485413,614
806.604309,575
806.723145,580
806.84198,581
806.960876,605
807.079712,606
807.198486,627
807.317383,594
807.436218,597
807.554993,598
807.673889,621
807.792725,581
807.91156,618
808.030396,620
808.14917,596
808.268005,608
808.386841,607
808.505676,612
808.624451,614
808.743286,620
808.862122,609
808.980896,615
809.099731,597
809.218506,620
809.337341,615
809.456116,606
809.57489,590
809.693726,597
809.8125,599
809.931274,608
810.050049,621
810.168884,605
810.287659,607
810.406372,615
810.525269,632
810.643982,639
810.762756,619
810.881531,612
811.000305,623
811.11908,616
811.237854,618
811.356567,626
811.475403,632
811.594116,607
811.71283,624
811.831604,570
811.950378,591
812.069153,612
812.187927,594
812.30658,623
812.425415,626
812.544128,595
812.662781,634
812.781616,627
812.900269,616
813.019043,605
813.137756,616
813.256531,617
813.375244,603
813.493896,592
813.612671,616
813.731384,607
813.850037,624
813.96875,616
814.087524,626
814.206238,628
814.324951,602
814.443604,632
814.562256,625
814.68103,609
814.799683,604
814.918335,577
815.037109,615
815.155762,610
815.274475,603
815.393188,603
815.511841,613
815.630554,638
815.749146,581
815.867859,576
815.986572,596
816.105164,611
816.223877,581
816.342529,570
816.461182,603
816.579895,606
816.698486,594
816.817139,604
816.935791,606
817.054504,580
817.173096,608
817.291748,609
817.4104,595
817.529053,586
817.647644,591
817.766235,575
817.884949,576
818.00354,561
818.122192,569
818.240845,526
818.359436,554
818.478088,533
818.59668,532
818.715271,510
818.833923,532
818.952515,526
819.071106,506
819.189758,521
819.30835,506
819.426941,518
819.545532,512
819.664124,506
819.782715,499
819.901306,502
820.019897,507
820.138489,500
820.25708,489
820.375671,484
820.494202,477
820.612732,485
820.731384,501
820.849915,484
820.968506,484
821.087097,493
821.205627,504
821.324158,484
821.442749,484
821.561279,473
821.679871,479
821.798401,471
821.916931,494
822.035461,473
822.154053,467
822.272583,488
822.391174,501
822.509583,475
822.628174,469
822.746704,461
822.865234,502
822.983765,480
823.102295,476
823.220825,491
823.339294,492
823.457825,484
823.576355,495
823.694824,477
823.813354,485
823.931885,480
824.050354,489
824.168884,495
824.287354,487
824.405823,477
824.524353,478
824.642822,480
824.761353,487
824.879822,497
824.998291,508
825.116699,477
825.235291,481
825.353699,492
825.472168,481
825.590637,470
825.709106,486
825.827576,478
825.946045,471
826.064453,479
826.182983,478
826.301392,488
826.4198,466
826.53833,473
826.656738,460
826.775208,469
826.893677,477
827.012024,479
827.130493,457
827.248962,459
827.36731,471
827.485779,489
827.604248,478
827.722595,451
827.841064,477
827.959412,447
828.077942,461
828.196289,471
828.314636,453
828.433105,469
828.551514,456
828.669861,474
828.78833,446
828.906677,453
829.025085,477
829.143433,464
829.261841,470
829.38031,466
829.498657,447
829.617004,457
829.735413,458
829.85376,455
829.972107,454
830.090515,453
830.208862,466
830.327209,470
830.445557,479
830.563904,462
830.682312,457
830.800659,451
830.919006,464
831.037354,471
831.155701,455
831.274048,457
831.392395,445
831.51062,447
831.629028,465
831.747314,458
831.865662,466
831.984009,456
832.102356,455
832.220642,475
832.338928,443
832.457275,459
832.575623,471
832.693909,462
832.812134,448
832.930481,445
833.048828,457
833.167114,466
833.2854,452
833.403687,465
833.521973,452
833.640259,470
833.758545,476
833.876831,437
833.995056,468
834.113281,453
834.231628,459
834.349915,462
834.468201,478
834.586426,486
834.704651,459
834.822998,444
834.941162,457
835.059448,460
835.177673,471
835.295959,462
835.414246,470
835.53241,479
835.650635,460
835.768921,470
835.887146,467
836.005371,468
836.123596,454
836.241821,469
836.360046,471
836.478271,474
836.596497,459
836.714722,480
836.832886,475
836.95105,491
837.069336,497
837.1875,477
837.305725,475
837.423889,476
837.542053,487
837.660339,482
837.778503,467
837.896667,476
838.014832,456
838.132996,469
838.25116,462
838.369385,483
838.487488,464
838.605713,479
838.723877,490
838.84198,490
838.960205,473
839.078308,471
839.196472,477
839.314636,482
839.4328,480
839.550964,478
839.669067,489
839.787231,474
839.905396,467
840.023499,459
840.141602,482
840.259766,459
840.377869,448
840.495972,451
840.614136,474
840.732239,465
840.850342,487
840.968445,490
841.086548,462
841.204651,477
841.322754,467
841.440918,473
841.55896,449
841.677002,472
841.795166,479
841.913208,467
842.031311,457
842.149353,477
842.267456,465
842.385498,450
842.503601,462
842.621643,455
842.739746,473
842.857788,467
842.97583,455
843.093933,476
843.211975,450
843.330017,472
843.44812,478
843.566101,438
843.684204,470
843.802246,462
843.920227,454
844.038269,458
844.156311,446
844.274292,451
844.392395,428
844.510376,449
844.628357,435
844.74646,466
844.864441,430
844.982422,459
845.100403,439
845.218384,465
845.336426,445
845.454468,441
845.572449,461
845.69043,451
845.808411,431
845.926453,447
846.044373,441
846.162354,448
846.280396,475
846.398315,459
846.516296,450
846.634216,449
846.752197,455
846.870178,434
846.988098,453
847.106079,454
847.22406,457
847.34198,442
847.4599,442
847.577881,442
847.695801,448
847.813782,476
847.931641,477
848.049561,434
848.167603,452
848.285461,469
848.403381,444
848.521362,447
848.639221,451
848.75708,451
848.875,447
848.99292,467
849.110901,454
849.22876,443
849.34668,457
849.464539,436
849.582458,444
849.700317,449
849.818176,441
849.936096,443
850.053955,431
850.171875,470
850.289673,457
850.407593,469
850.525452,455
850.643311,459
850.761169,453
850.878967,484
850.996887,461
851.114746,465
851.232544,453
851.350403,447
851.468262,452
851.58606,458
851.703979,447
851.821777,457
851.939636,437
852.057434,466
852.175232,447
852.293091,457
852.410889,445
852.528687,450
852.646545,448
852.764343,459
852.88208,481
852.999939,456
853.117676,452
853.235535,450
853.353271,456
853.471069,463
853.588928,456
853.706604,451
853.824402,469
853.9422,450
854.059998,447
854.177734,460
854.295532,443
854.413269,443
854.531006,455
854.648804,442
854.766541,462
854.884277,458
855.002014,454
855.119751,442
855.237549,455
855.355225,465
855.473022,452
855.590698,453
855.708435,471
855.826172,447
855.943848,466
856.061646,456
856.179321,465
856.296997,461
856.414795,463
856.53241,458
856.650085,466
856.767822,458
856.885559,460
857.003174,455
857.120911,451
857.238586,450
857.356201,465
857.473938,462
857.591614,457
857.709351,475
857.826965,465
857.944641,446
858.062317,461
858.179993,474
858.297668,469
858.415283,469
858.532959,465
858.650574,477
858.768188,483
858.885803,463
859.003479,447
859.121094,465
859.23877,450
859.356384,468
859.473999,460
859.591675,464
859.709229,452
859.826843,449
859.944458,452
860.062012,454
860.179626,455
860.297302,454
860.414856,453
860.532471,437
860.650024,445
860.767639,439
860.885193,461
861.002808,472
861.120361,446
861.237976,468
861.35553,465
861.473022,466
861.590698,447
861.708191,452
861.825745,458
861.943298,447
862.060852,459
862.178406,448
862.295959,455
862.413513,476
862.531006,459
862.64856,463
862.766113,476
862.883667,455
863.00116,444
863.118713,467
863.236206,481
863.353699,455
863.471252,460
863.588745,450
863.706177,460
863.82373,462
863.941162,457
864.058716,480
864.176208,455
864.29364,459
864.411194,459
864.528687,449
864.646118,461
864.763611,462
864.881042,467
864.998535,454
865.116028,463
865.233459,466
865.350891,459
865.468384,459
865.585754,451
865.703308,484
865.820679,476
865.938171,437
866.055542,465
866.173035,459
866.290466,448
866.407837,440
866.52533,451
866.6427,458
866.760071,478
866.877563,456
866.994934,455
867.112305,472
867.229736,462
867.347107,447
867.464539,453
867.58197,450
867.699341,443
867.81665,452
867.934082,456
868.051453,463
868.168823,450
868.286194,467
868.403564,487
868.520935,456
868.638306,465
868.755676,475
868.872986,458
868.990295,466
869.107727,457
869.225037,465
869.342346,469
869.459717,447
869.577026,459
869.694336,456
869.811707,472
869.929016,453
870.046326,473
870.163635,489
870.280945,458
870.398254,459
870.515564,467
870.632812,465
870.750183,464
870.867432,465
870.984741,462
871.102051,461
871.219299,445
871.336609,463
871.453918,454
871.571106,455
871.688416,460
871.805664,477
871.922852,454
872.040222,455
872.157471,461
872.274719,464
872.391968,450
872.509155,482
872.626465,471
872.743652,453
872.860962,454
872.978149,461
873.095337,467
873.212646,448
873.329834,440
873.44696,450
873.564209,456
873.681396,467
873.798645,464
873.915894,454
874.03302,461
874.150208,461
874.267456,473
874.384583,443
874.501831,453
874.618958,455
874.736145,464
874.853333,460
874.970459,467
875.087646,464
875.204834,466
875.32196,484
875.439148,447
875.556274,469
875.673401,454
875.790527,459
875.907715,459
876.024841,453
876.141968,469
876.259094,443
876.376282,483
876.493347,435
876.610474,476
876.7276,459
876.844727,447
876.961853,440
877.078918,466
877.195984,470
877.313171,466
877.430237,462
877.547302,476
877.664368,466
877.781433,458
877.898499,455
878.015625,466
878.13269,475
878.249695,465
878.366821,473
878.483887,443
878.600952,474
878.717957,454
878.834961,465
878.952087,455
879.069092,472
879.186157,458
879.303162,472
879.420227,442
879.537231,445
879.654236,459
879.77124,467
879.888306,466
880.005249,465
880.122314,470
880.239319,454
880.356323,466
880.473328,459
880.590271,452
880.707275,449
880.824341,444
880.941284,479
881.058228,457
881.175232,454
881.292236,441
881.40918,463
881.526123,462
881.643066,457
881.760071,446
881.877014,464
881.993958,459
882.11084,459
882.227783,455
882.344727,472
882.46167,469
882.578613,456
882.695618,448
882.812439,459
882.929382,456
883.046326,460
883.163208,455
883.280151,441
883.397034,470
883.513916,464
883.630798,436
883.747742,467
883.864563,443
883.981506,478
884.098389,483
884.21521,475
884.332153,462
884.448975,460
884.565796,473
884.682678,480
884.7995,468
884.916443,479
885.033264,454
885.150085,466
885.266968,477
885.383789,474
885.500671,479
885.617493,466
885.734314,474
885.851196,479
885.967896,468
886.084717,479
886.201599,489
886.318359,478
886.435181,473
886.552002,469
886.668762,449
886.785645,461
886.902344,474
887.019165,453
887.135925,476
887.252747,463
887.369446,478
887.486267,470
887.603027,469
887.719788,481
887.836548,476
887.953247,466
888.070068,473
888.186829,467
888.303528,466
888.420288,475
888.536987,459
888.653687,478
888.770447,483
888.887146,477
889.003967,468
889.120667,471
889.237305,477
889.354065,467
889.470703,458
889.587463,473
889.704163,457
889.820862,471
889.937561,454
890.054199,456
890.170837,449
890.287598,471
890.404236,462
890.520874,463
890.637634,477
890.754211,475
890.87085,483
890.987549,457
891.104187,467
891.220886,456
891.337463,477
891.454102,470
891.57074,469
891.687378,479
891.804077,465
891.920654,464
892.037231,467
892.15387,457
892.270447,472
892.387085,468
892.503723,486
892.6203,489
892.736877,473
892.853516,458
892.970032,469
893.08667,480
893.203186,467
893.319763,460
893.43634,444
893.552917,472
893.669556,458
893.786011,460
893.902588,466
894.019165,475
894.135681,473
894.252197,456
894.368835,493
894.485291,465
894.601868,489
894.718384,468
894.8349,483
894.951355,483
895.067932,475
895.184448,476
895.300964,476
895.417419,473
895.533936,471
895.650452,475
895.766907,442
895.883423,486
895.999878,471
896.116333,470
896.232849,474
896.349304,472
896.465759,468
896.582214,469
896.698669,467
896.815125,454
896.931641,481
897.048035,461
897.164551,477
897.280884,489
897.397339,461
897.513794,457
897.630249,474
897.746582,478
897.863098,470
897.979431,470
898.095886,472
898.212341,484
898.328674,491
898.445129,468
898.561462,477
898.677795,481
898.794312,460
898.910645,485
899.026978,477
899.143433,501
899.259766,452
899.37616,470
899.492493,490
899.608765,469
899.725159,462
899.841553,488
899.957947,473
900.07428,482
900.190552,465
900.306946,477
900.423157,459
900.53949,467
900.655884,475
900.772156,489
900.888489,449
901.004822,471
901.121033,469
901.237366,461
901.353699,468
901.46991,467
901.586304,473
901.702515,464
901.818787,484
901.93512,492
902.051331,479
902.167603,483
902.283875,490
902.400085,472
902.516418,467
902.632629,471
902.74884,483
902.865112,489
902.981384,469
903.097595,491
903.213867,474
903.330017,487
903.446289,486
903.5625,493
903.67865,465
903.794922,479
903.911072,484
904.027344,481
904.143494,480
904.259705,465
904.375916,500
904.492065,482
904.608215,481
904.724426,477
904.840576,466
904.956726,481
905.072876,469
905.189087,494
905.305176,485
905.421387,477
905.537537,479
905.653687,475
905.769775,467
905.885925,472
906.002014,481
906.118164,486
906.234314,464
906.350403,480
906.466492,484
906.582642,464
906.69873,489
906.814758,475
906.930908,480
907.046936,493
907.163086,478
907.279175,476
907.395264,450
907.511353,477
907.62738,462
907.743408,461
907.859497,469
907.975525,480
908.091553,469
908.207703,491
908.32373,481
908.439758,484
908.555786,465
908.671814,470
908.787842,469
908.90387,493
909.019775,478
909.135864,489
909.251892,477
909.367859,477
909.483826,466
909.599854,482
909.715881,471
909.831848,482
909.947815,475
910.063782,504
910.179749,478
910.295776,494
910.411743,464
910.527649,500
910.643616,481
910.759583,498
910.875488,472
910.991455,483
911.107361,481
911.223267,484
911.339294,481
911.4552,465
911.571106,494
911.687073,482
911.802979,472
911.918823,481
912.034729,480
912.150635,482
912.266602,473
912.382446,468
912.498352,455
912.614197,480
912.730103,473
912.846008,479
