792.44574,649
792.56488,673
792.68396,699
792.80304,671
792.92218,655
793.041199,595
793.160339,612
793.279419,632
793.398499,630
793.517578,585
793.636658,615
793.755737,614
793.874817,610
793.993896,602
794.112976,586
794.232056,614
794.351074,607
794.470215,560
794.589233,589
794.708313,594
794.827393,575
794.946411,583
795.065552,602
795.18457,595
795.303589,596
795.422668,579
795.541687,563
795.660767,546
795.779846,576
795.898865,561
796.017883,584
796.136963,575
796.255981,556
796.375061,574
796.49408,576
796.613037,564
796.732117,563
796.851135,556
796.970154,560
797.089233,569
797.208191,574
797.327271,544
797.446228,558
797.565186,560
797.684265,570
797.803223,578
797.922241,555
798.04126,560
798.160278,551
798.279297,548
798.398315,560
798.517273,527
798.636292,534
798.75531,536
798.874268,545
798.993286,539
799.112244,555
799.231323,564
799.350281,553
799.469238,541
799.588257,537
799.707153,583
799.826111,555
799.945129,535
800.064087,548
800.183044,545
800.302063,560
800.421021,544
800.539978,535
800.658936,534
800.777893,550
800.896912,541
801.015747,526
801.134705,543
801.253723,533
801.37262,539
801.491638,538
801.610535,549
801.729492,528
801.84845,550
801.967407,547
802.086243,539
802.205261,546
802.324158,551
802.443115,546
802.562073,542
802.680969,543
802.799927,550
802.918762,542
803.037659,551
803.156677,552
803.275574,547
803.39447,523
803.513428,550
803.632263,541
803.751221,563
803.870117,539
803.989014,525
804.107971,529
804.226746,542
804.345642,538
804.4646,548
804.583496,528
804.702393,569
804.821228,543
804.940125,555
805.059021,557
805.177917,550
805.296814,532
805.415649,536
805.534546,550
805.653442,554
805.772278,547
805.891113,541
806.01001,550
806.128906,549
806.247742,538
806.366577,530
806.485413,546
806.604309,540
806.723145,550
806.84198,555
806.960876,550
807.079712,546
807.198486,521
807.317383,558
807.436218,532
807.554993,554
807.673889,549
807.792725,558
807.91156,582
808.030396,542
808.14917,545
808.268005,542
808.386841,561
808.505676,541
808.624451,536
808.743286,539
808.862122,551
808.980896,528
809.099731,543
809.218506,550
809.337341,551
809.456116,545
809.57489,571
809.693726,535
809.8125,538
809.931274,573
810.050049,539
810.168884,532
810.287659,563
810.406372,551
810.525269,553
810.643982,548
810.762756,553
810.881531,545
811.000305,538
811.11908,540
811.237854,574
811.356567,571
811.475403,565
811.594116,559
811.71283,558
811.831604,562
811.950378,556
812.069153,570
812.187927,564
812.30658,533
812.425415,563
812.544128,544
812.662781,570
812.781616,547
812.900269,533
813.019043,557
813.137756,556
813.256531,540
813.375244,539
813.493896,547
813.612671,542
813.731384,545
813.850037,541
813.96875,546
814.087524,554
814.206238,537
814.324951,534
814.443604,526
814.562256,548
814.68103,566
814.799683,546
814.918335,542
815.037109,553
815.155762,563
815.274475,543
815.393188,534
815.511841,542
815.630554,546
815.749146,534
815.867859,532
815.986572,524
816.105164,545
816.223877,543
816.342529,548
816.461182,548
816.579895,530
816.698486,541
816.817139,535
816.935791,547
817.054504,568
817.173096,529
817.291748,519
817.4104,554
817.529053,537
817.647644,534
817.766235,540
817.884949,521
818.00354,529
818.122192,520
818.240845,512
818.359436,490
818.478088,513
818.59668,499
818.715271,485
818.833923,493
818.952515,503
819.071106,480
819.189758,496
819.30835,501
819.426941,486
819.545532,495
819.664124,483
819.782715,489
819.901306,499
820.019897,489
820.138489,496
820.25708,492
820.375671,493
820.494202,489
820.612732,480
820.731384,485
820.849915,487
820.968506,467
821.087097,482
821.205627,486
821.324158,465
821.442749,478
821.561279,469
821.679871,470
821.798401,474
821.916931,485
822.035461,470
822.154053,467
822.272583,489
822.391174,483
822.509583,482
822.628174,481
822.746704,471
822.865234,494
822.983765,471
823.102295,465
823.220825,463
823.339294,489
823.457825,466
823.576355,472
823.694824,459
823.813354,481
823.931885,499
824.050354,457
824.168884,459
824.287354,481
824.405823,464
824.524353,487
824.642822,462
824.761353,477
824.879822,458
824.998291,479
825.116699,484
825.235291,479
825.353699,475
825.472168,461
825.590637,464
825.709106,464
825.827576,490
825.946045,461
826.064453,461
826.182983,467
826.301392,467
826.4198,465
826.53833,458
826.656738,468
826.775208,448
826.893677,473
827.012024,451
827.130493,460
827.248962,453
827.36731,470
827.485779,470
827.604248,474
827.722595,464
827.841064,456
827.959412,432
828.077942,455
828.196289,453
828.314636,463
828.433105,469
828.551514,458
828.669861,465
828.78833,494
828.906677,436
829.025085,465
829.143433,457
829.261841,470
829.38031,454
829.498657,451
829.617004,461
829.735413,463
829.85376,449
829.972107,477
830.090515,450
830.208862,447
830.327209,442
830.445557,470
830.563904,440
830.682312,442
830.800659,444
830.919006,436
831.037354,457
831.155701,454
831.274048,462
831.392395,492
831.51062,444
831.629028,478
831.747314,469
831.865662,465
831.984009,446
832.102356,466
832.220642,450
832.338928,441
832.457275,455
832.575623,461
832.693909,459
832.812134,451
832.930481,444
833.048828,471
833.167114,472
833.2854,462
833.403687,427
833.521973,465
833.640259,450
833.758545,479
833.876831,456
833.995056,481
834.113281,458
834.231628,458
834.349915,455
834.468201,480
834.586426,444
834.704651,450
834.822998,448
834.941162,457
835.059448,453
835.177673,456
835.295959,445
835.414246,463
835.53241,463
835.650635,463
835.768921,464
835.887146,455
836.005371,477
836.123596,488
836.241821,487
836.360046,467
836.478271,479
836.596497,445
836.714722,448
836.832886,471
836.95105,455
837.069336,474
837.1875,457
837.305725,454
837.423889,479
837.542053,454
837.660339,458
837.778503,455
837.896667,469
838.014832,441
838.132996,471
838.25116,469
838.369385,461
838.487488,465
838.605713,465
838.723877,471
838.84198,463
838.960205,471
839.078308,472
839.196472,463
839.314636,471
839.4328,459
839.550964,458
839.669067,465
839.787231,456
839.905396,465
840.023499,456
840.141602,469
840.259766,460
840.377869,452
840.495972,457
840.614136,455
840.732239,454
840.850342,485
840.968445,478
841.086548,476
841.204651,469
841.322754,479
841.440918,460
841.55896,470
841.677002,460
841.795166,465
841.913208,471
842.031311,478
842.149353,463
842.267456,483
842.385498,449
842.503601,475
842.621643,466
842.739746,456
842.857788,483
842.97583,455
843.093933,467
843.211975,465
843.330017,465
843.44812,466
843.566101,477
843.684204,470
843.802246,469
843.920227,453
844.038269,462
844.156311,466
844.274292,439
844.392395,472
844.510376,459
844.628357,469
844.74646,459
844.864441,459
844.982422,451
845.100403,459
845.218384,455
845.336426,468
845.454468,483
845.572449,468
845.69043,460
845.808411,470
845.926453,471
846.044373,445
846.162354,458
846.280396,474
846.398315,451
846.516296,462
846.634216,445
846.752197,465
846.870178,439
846.988098,486
847.106079,447
847.22406,444
847.34198,455
847.4599,474
847.577881,468
847.695801,441
847.813782,459
847.931641,450
848.049561,480
848.167603,467
848.285461,450
848.403381,459
848.521362,469
848.639221,455
848.75708,461
848.875,478
848.99292,469
849.110901,484
849.22876,447
849.34668,467
849.464539,483
849.582458,467
849.700317,471
849.818176,451
849.936096,457
850.053955,477
850.171875,463
850.289673,478
850.407593,475
850.525452,467
850.643311,469
850.761169,457
850.878967,460
850.996887,471
851.114746,445
851.232544,473
851.350403,454
851.468262,468
851.58606,472
851.703979,455
851.821777,440
851.939636,471
852.057434,466
852.175232,466
852.293091,469
852.410889,450
852.528687,456
852.646545,469
852.764343,461
852.88208,466
852.999939,473
853.117676,457
853.235535,453
853.353271,483
853.471069,455
853.588928,459
853.706604,457
853.824402,450
853.9422,442
854.059998,471
854.177734,472
854.295532,450
854.413269,461
854.531006,462
854.648804,467
854.766541,469
854.884277,459
855.002014,484
855.119751,451
855.237549,459
855.355225,454
855.473022,460
855.590698,447
855.708435,473
855.826172,449
855.943848,463
856.061646,439
856.179321,469
856.296997,449
856.414795,468
856.53241,468
856.650085,461
856.767822,454
856.885559,481
857.003174,473
857.120911,468
857.238586,444
857.356201,464
857.473938,471
857.591614,483
857.709351,482
857.826965,479
857.944641,466
858.062317,483
858.179993,461
858.297668,468
858.415283,463
858.532959,465
858.650574,456
858.768188,478
858.885803,466
859.003479,455
859.121094,467
859.23877,482
859.356384,446
859.473999,471
859.591675,462
859.709229,457
859.826843,474
859.944458,447
860.062012,473
860.179626,461
860.297302,462
860.414856,468
860.532471,448
860.650024,464
860.767639,460
860.885193,474
861.002808,455
861.120361,452
861.237976,477
861.35553,459
861.473022,462
861.590698,464
861.708191,449
861.825745,444
861.943298,435
862.060852,465
862.178406,439
862.295959,453
862.413513,465
862.531006,454
862.64856,462
862.766113,465
862.883667,456
863.00116,462
863.118713,464
863.236206,477
863.353699,448
863.471252,467
863.588745,461
863.706177,468
863.82373,455
863.941162,456
864.058716,478
864.176208,438
864.29364,441
864.411194,477
864.528687,465
864.646118,484
864.763611,453
864.881042,470
864.998535,468
865.116028,435
865.233459,466
865.350891,468
865.468384,453
865.585754,474
865.703308,469
865.820679,462
865.938171,447
866.055542,470
866.173035,460
866.290466,461
866.407837,449
866.52533,468
866.6427,473
866.760071,471
866.877563,459
866.994934,469
867.112305,459
867.229736,448
867.347107,450
867.464539,451
867.58197,454
867.699341,465
867.81665,457
867.934082,480
868.051453,464
868.168823,453
868.286194,455
868.403564,470
868.520935,458
868.638306,460
868.755676,476
868.872986,474
868.990295,452
869.107727,474
869.225037,456
869.342346,450
869.459717,476
869.577026,452
869.694336,453
869.811707,484
869.929016,455
870.046326,469
870.163635,473
870.280945,461
870.398254,454
870.515564,462
870.632812,465
870.750183,465
870.867432,472
870.984741,465
871.102051,466
871.219299,490
871.336609,475
871.453918,471
871.571106,467
871.688416,467
871.805664,467
871.922852,473
872.040222,474
872.157471,481
872.274719,473
872.391968,489
872.509155,481
872.626465,463
872.743652,455
872.860962,478
872.978149,472
873.095337,483
873.212646,476
873.329834,452
873.44696,469
873.564209,476
873.681396,473
873.798645,476
873.915894,463
874.03302,476
874.150208,468
874.267456,454
874.384583,464
874.501831,484
874.618958,445
874.736145,462
874.853333,457
874.970459,465
875.087646,465
875.204834,462
875.32196,465
875.439148,466
875.556274,464
875.673401,488
875.790527,471
875.907715,468
876.024841,462
876.141968,458
876.259094,464
876.376282,470
876.493347,473
876.610474,456
876.7276,460
876.844727,480
876.961853,455
877.078918,476
877.195984,467
877.313171,472
877.430237,475
877.547302,462
877.664368,454
877.781433,486
877.898499,469
878.015625,465
878.13269,468
878.249695,461
878.366821,445
878.483887,472
878.600952,460
878.717957,479
878.834961,470
878.952087,470
879.069092,461
879.186157,459
879.303162,466
879.420227,454
879.537231,478
879.654236,474
879.77124,464
879.888306,469
880.005249,458
880.122314,465
880.239319,477
880.356323,457
880.473328,464
880.590271,456
880.707275,472
880.824341,465
880.941284,463
881.058228,450
881.175232,473
881.292236,459
881.40918,447
881.526123,453
881.643066,452
881.760071,466
881.877014,458
881.993958,493
882.11084,457
882.227783,456
882.344727,451
882.46167,487
882.578613,462
882.695618,463
882.812439,461
882.929382,463
883.046326,453
883.163208,463
883.280151,466
883.397034,460
883.513916,469
883.630798,452
883.747742,472
883.864563,488
883.981506,460
884.098389,474
884.21521,455
884.332153,476
884.448975,467
884.565796,474
884.682678,453
884.7995,465
884.916443,468
885.033264,472
885.150085,490
885.266968,497
885.383789,469
885.500671,495
885.617493,482
885.734314,496
885.851196,472
885.967896,482
886.084717,488
886.201599,463
886.318359,464
886.435181,494
886.552002,495
886.668762,469
886.785645,488
886.902344,478
887.019165,488
887.135925,472
887.252747,476
887.369446,490
887.486267,462
887.603027,469
887.719788,474
887.836548,453
887.953247,455
888.070068,478
888.186829,462
888.303528,454
888.420288,466
888.536987,447
888.653687,469
888.770447,455
888.887146,467
889.003967,463
889.120667,470
889.237305,469
889.354065,463
889.470703,483
889.587463,454
889.704163,465
889.820862,441
889.937561,470
890.054199,462
890.170837,478
890.287598,493
890.404236,473
890.520874,460
890.637634,483
890.754211,441
890.87085,472
890.987549,463
891.104187,481
891.220886,481
891.337463,471
891.454102,469
891.57074,483
891.687378,462
891.804077,454
891.920654,475
892.037231,485
892.15387,450
892.270447,448
892.387085,456
892.503723,471
892.6203,449
892.736877,474
892.853516,466
892.970032,470
893.08667,482
893.203186,467
893.319763,458
893.43634,492
893.552917,471
893.669556,484
893.786011,456
893.902588,465
894.019165,461
894.135681,473
894.252197,464
894.368835,493
894.485291,482
894.601868,473
894.718384,465
894.8349,467
894.951355,461
895.067932,456
895.184448,443
895.300964,478
895.417419,486
895.533936,470
895.650452,474
895.766907,467
895.883423,454
895.999878,459
896.116333,494
896.232849,470
896.349304,476
896.465759,490
896.582214,467
896.698669,469
896.815125,455
896.931641,456
897.048035,462
897.164551,484
897.280884,462
897.397339,479
897.513794,477
897.630249,472
897.746582,464
897.863098,477
897.979431,458
898.095886,461
898.212341,453
898.328674,461
898.445129,469
898.561462,490
898.677795,468
898.794312,470
898.910645,465
899.026978,478
899.143433,454
899.259766,478
899.37616,469
899.492493,465
899.608765,469
899.725159,473
899.841553,477
899.957947,461
900.07428,485
900.190552,469
900.306946,477
900.423157,471
900.53949,470
900.655884,480
900.772156,466
900.888489,483
901.004822,474
901.121033,483
901.237366,486
901.353699,474
901.46991,492
901.586304,473
901.702515,476
901.818787,452
901.93512,474
902.051331,480
902.167603,458
902.283875,480
902.400085,475
902.516418,481
902.632629,482
902.74884,503
902.865112,487
902.981384,493
903.097595,476
903.213867,471
903.330017,479
903.446289,486
903.5625,485
903.67865,461
903.794922,486
903.911072,485
904.027344,473
904.143494,489
904.259705,467
904.375916,477
904.492065,479
904.608215,483
904.724426,483
904.840576,467
904.956726,480
905.072876,487
905.189087,478
905.305176,478
905.421387,481
905.537537,468
905.653687,472
905.769775,468
905.885925,476
906.002014,482
906.118164,454
906.234314,481
906.350403,461
906.466492,489
906.582642,482
906.69873,481
906.814758,468
906.930908,481
907.046936,476
907.163086,494
907.279175,465
907.395264,479
907.511353,490
907.62738,480
907.743408,478
907.859497,487
907.975525,489
908.091553,496
908.207703,461
908.32373,474
908.439758,486
908.555786,462
908.671814,493
908.787842,471
908.90387,471
909.019775,459
909.135864,474
909.251892,481
909.367859,468
909.483826,474
909.599854,469
909.715881,482
909.831848,480
909.947815,461
910.063782,453
910.179749,496
910.295776,467
910.411743,467
910.527649,478
910.643616,472
910.759583,465
910.875488,468
910.991455,481
911.107361,461
911.223267,488
911.339294,481
911.4552,469
911.571106,451
911.687073,494
911.802979,476
911.918823,472
912.034729,475
912.150635,473
912.266602,483
912.382446,464
912.498352,474
912.614197,482
912.730103,471
912.846008,462
792.44574,667
792.56488,672
792.68396,728
792.80304,690
792.92218,632
793.041199,630
793.160339,621
793.279419,620
793.398499,645
793.517578,589
793.636658,612
793.755737,630
793.874817,650
793.993896,630
794.112976,595
794.232056,593
794.351074,598
794.470215,589
794.589233,575
794.708313,593
794.827393,571
794.946411,584
795.065552,573
795.18457,598
795.303589,586
795.422668,597
795.541687,583
795.660767,578
795.779846,571
795.898865,566
796.017883,596
796.136963,579
796.255981,574
796.375061,583
796.49408,568
796.613037,572
796.732117,572
796.851135,553
796.970154,565
797.089233,573
797.208191,555
797.327271,558
797.446228,553
797.565186,570
797.684265,569
797.803223,555
797.922241,550
798.04126,558
798.160278,561
798.279297,559
798.398315,572
798.517273,556
798.636292,558
798.75531,559
798.874268,556
798.993286,572
799.112244,559
799.231323,565
799.350281,561
799.469238,545
799.588257,558
799.707153,566
799.826111,554
799.945129,534
800.064087,544
800.183044,554
800.302063,551
800.421021,561
800.539978,531
800.658936,537
800.777893,555
800.896912,562
801.015747,545
801.134705,556
801.253723,566
801.37262,557
801.491638,541
801.610535,541
801.729492,532
801.84845,539
801.967407,556
802.086243,562
802.205261,534
802.324158,543
802.443115,549
802.562073,539
802.680969,539
802.799927,558
802.918762,546
803.037659,525
803.156677,569
803.275574,557
803.39447,539
803.513428,538
803.632263,538
803.751221,551
803.870117,548
803.989014,541
804.107971,544
804.226746,542
804.345642,553
804.4646,537
804.583496,537
804.702393,533
804.821228,558
804.940125,554
805.059021,554
805.177917,537
805.296814,547
805.415649,577
805.534546,545
805.653442,561
805.772278,559
805.891113,537
806.01001,560
806.128906,565
806.247742,553
806.366577,537
806.485413,557
806.604309,568
806.723145,548
806.84198,542
806.960876,553
807.079712,544
807.198486,568
807.317383,546
807.436218,528
807.554993,545
807.673889,535
807.792725,556
807.91156,566
808.030396,554
808.14917,547
808.268005,549
808.386841,559
808.505676,539
808.624451,572
808.743286,561
808.862122,554
808.980896,546
809.099731,542
809.218506,550
809.337341,559
809.456116,559
809.57489,535
809.693726,560
809.8125,540
809.931274,567
810.050049,561
810.168884,537
810.287659,559
810.406372,548
810.525269,565
810.643982,553
810.762756,544
810.881531,568
811.000305,551
811.11908,565
811.237854,546
811.356567,566
811.475403,540
811.594116,540
811.71283,563
811.831604,567
811.950378,563
812.069153,577
812.187927,565
812.30658,567
812.425415,557
812.544128,556
812.662781,554
812.781616,551
812.900269,555
813.019043,550
813.137756,571
813.256531,524
813.375244,551
813.493896,571
813.612671,566
813.731384,548
813.850037,538
813.96875,546
814.087524,543
814.206238,536
814.324951,541
814.443604,551
814.562256,536
814.68103,524
814.799683,536
814.918335,552
815.037109,531
815.155762,538
815.274475,551
815.393188,555
815.511841,513
815.630554,525
815.749146,530
815.867859,544
815.986572,524
816.105164,533
816.223877,536
816.342529,526
816.461182,545
816.579895,560
816.698486,548
816.817139,548
816.935791,529
817.054504,535
817.173096,547
817.291748,566
817.4104,544
817.529053,542
817.647644,528
817.766235,540
817.884949,528
818.00354,549
818.122192,511
818.240845,527
818.359436,501
818.478088,521
818.59668,512
818.715271,502
818.833923,483
818.952515,488
819.071106,509
819.189758,491
819.30835,488
819.426941,482
819.545532,477
819.664124,490
819.782715,493
819.901306,490
820.019897,484
820.138489,475
820.25708,475
820.375671,487
820.494202,485
820.612732,483
820.731384,492
820.849915,484
820.968506,485
821.087097,489
821.205627,490
821.324158,487
821.442749,474
821.561279,487
821.679871,457
821.798401,482
821.916931,487
822.035461,494
822.154053,490
822.272583,479
822.391174,460
822.509583,476
822.628174,480
822.746704,471
822.865234,471
822.983765,498
823.102295,466
823.220825,474
823.339294,478
823.457825,469
823.576355,474
823.694824,461
823.813354,480
823.931885,466
824.050354,480
824.168884,491
824.287354,448
824.405823,476
824.524353,474
824.642822,477
824.761353,478
824.879822,494
824.998291,480
825.116699,479
825.235291,493
825.353699,466
825.472168,469
825.590637,476
825.709106,459
825.827576,481
825.946045,483
826.064453,466
826.182983,475
826.301392,456
826.4198,483
826.53833,475
826.656738,467
826.775208,462
826.893677,480
827.012024,455
827.130493,455
827.248962,466
827.36731,476
827.485779,458
827.604248,468
827.722595,484
827.841064,445
827.959412,463
828.077942,466
828.196289,469
828.314636,473
828.433105,458
828.551514,452
828.669861,452
828.78833,471
828.906677,450
829.025085,481
829.143433,468
829.261841,445
829.38031,479
829.498657,474
829.617004,444
829.735413,478
829.85376,471
829.972107,454
830.090515,473
830.208862,464
830.327209,451
830.445557,457
830.563904,453
830.682312,480
830.800659,457
830.919006,448
831.037354,454
831.155701,457
831.274048,465
831.392395,470
831.51062,471
831.629028,469
831.747314,482
831.865662,458
831.984009,455
832.102356,443
832.220642,449
832.338928,465
832.457275,470
832.575623,466
832.693909,470
832.812134,464
832.930481,459
833.048828,481
833.167114,464
833.2854,447
833.403687,480
833.521973,472
833.640259,452
833.758545,466
833.876831,468
833.995056,455
834.113281,463
834.231628,454
834.349915,468
834.468201,468
834.586426,461
834.704651,470
834.822998,496
834.941162,477
835.059448,465
835.177673,471
835.295959,470
835.414246,452
835.53241,454
835.650635,455
835.768921,470
835.887146,434
836.005371,477
836.123596,454
836.241821,453
836.360046,466
836.478271,471
836.596497,469
836.714722,470
836.832886,441
836.95105,475
837.069336,475
837.1875,471
837.305725,470
837.423889,457
837.542053,455
837.660339,486
837.778503,472
837.896667,462
838.014832,447
838.132996,481
838.25116,490
838.369385,478
838.487488,476
838.605713,476
838.723877,453
838.84198,474
838.960205,451
839.078308,462
839.196472,472
839.314636,487
839.4328,477
839.550964,462
839.669067,457
839.787231,461
839.905396,492
840.023499,465
840.141602,471
840.259766,475
840.377869,461
840.495972,479
840.614136,477
840.732239,461
840.850342,462
840.968445,452
841.086548,466
841.204651,479
841.322754,453
841.440918,466
841.55896,453
841.677002,489
841.795166,447
841.913208,482
842.031311,456
842.149353,477
842.267456,460
842.385498,483
842.503601,473
842.621643,472
842.739746,454
842.857788,461
842.97583,460
843.093933,476
843.211975,463
843.330017,467
843.44812,466
843.566101,469
843.684204,481
843.802246,472
843.920227,474
844.038269,464
844.156311,461
844.274292,467
844.392395,460
844.510376,477
844.628357,481
844.74646,476
844.864441,455
844.982422,489
845.100403,464
845.218384,460
845.336426,454
845.454468,468
845.572449,481
845.69043,454
845.808411,460
845.926453,462
846.044373,453
846.162354,461
846.280396,481
846.398315,464
846.516296,457
846.634216,453
846.752197,469
846.870178,485
846.988098,476
847.106079,439
847.22406,446
847.34198,469
847.4599,454
847.577881,481
847.695801,457
847.813782,446
847.931641,470
848.049561,460
848.167603,467
848.285461,452
848.403381,468
848.521362,475
848.639221,464
848.75708,475
848.875,456
848.99292,475
849.110901,466
849.22876,477
849.34668,466
849.464539,475
849.582458,462
849.700317,472
849.818176,468
849.936096,461
850.053955,481
850.171875,448
850.289673,473
850.407593,467
850.525452,483
850.643311,476
850.761169,460
850.878967,493
850.996887,467
851.114746,477
851.232544,453
851.350403,461
851.468262,462
851.58606,473
851.703979,449
851.821777,452
851.939636,466
852.057434,471
852.175232,466
852.293091,475
852.410889,462
852.528687,464
852.646545,465
852.764343,464
852.88208,472
852.999939,457
853.117676,455
853.235535,463
853.353271,474
853.471069,442
853.588928,478
853.706604,465
853.824402,460
853.9422,463
854.059998,440
854.177734,466
854.295532,461
854.413269,466
854.531006,461
854.648804,454
854.766541,485
854.884277,471
855.002014,475
855.119751,451
855.237549,480
855.355225,475
855.473022,442
855.590698,481
855.708435,466
855.826172,469
855.943848,459
856.061646,465
856.179321,476
856.296997,463
856.414795,467
856.53241,477
856.650085,455
856.767822,475
856.885559,469
857.003174,474
857.120911,460
857.238586,478
857.356201,457
857.473938,470
857.591614,476
857.709351,502
857.826965,487
857.944641,498
858.062317,462
858.179993,486
858.297668,488
858.415283,464
858.532959,464
858.650574,476
858.768188,472
858.885803,471
859.003479,479
859.121094,451
859.23877,461
859.356384,466
859.473999,474
859.591675,458
859.709229,443
859.826843,470
859.944458,439
860.062012,453
860.179626,474
860.297302,485
860.414856,474
860.532471,484
860.650024,448
860.767639,461
860.885193,464
861.002808,477
861.120361,465
861.237976,458
861.35553,455
861.473022,475
861.590698,467
861.708191,466
861.825745,475
861.943298,474
862.060852,451
862.178406,466
862.295959,465
862.413513,463
862.531006,468
862.64856,450
862.766113,454
862.883667,453
863.00116,453
863.118713,459
863.236206,459
863.353699,452
863.471252,476
863.588745,460
863.706177,470
863.82373,472
863.941162,466
864.058716,474
864.176208,471
864.29364,480
864.411194,460
864.528687,473
864.646118,472
864.763611,447
864.881042,454
864.998535,455
865.116028,464
865.233459,452
865.350891,448
865.468384,456
865.585754,437
865.703308,454
865.820679,467
865.938171,476
866.055542,461
866.173035,452
866.290466,465
866.407837,462
866.52533,462
866.6427,479
866.760071,490
866.877563,479
866.994934,486
867.112305,478
867.229736,462
867.347107,463
867.464539,465
867.58197,482
867.699341,455
867.81665,463
867.934082,471
868.051453,469
868.168823,478
868.286194,447
868.403564,461
868.520935,468
868.638306,466
868.755676,482
868.872986,463
868.990295,460
869.107727,474
869.225037,453
869.342346,473
869.459717,457
869.577026,447
869.694336,467
869.811707,444
869.929016,478
870.046326,464
870.163635,481
870.280945,463
870.398254,453
870.515564,473
870.632812,468
870.750183,462
870.867432,482
870.984741,468
871.102051,477
871.219299,485
871.336609,464
871.453918,468
871.571106,474
871.688416,474
871.805664,476
871.922852,474
872.040222,462
872.157471,477
872.274719,470
872.391968,487
872.509155,470
872.626465,460
872.743652,470
872.860962,477
872.978149,486
873.095337,457
873.212646,483
873.329834,468
873.44696,480
873.564209,469
873.681396,467
873.798645,469
873.915894,481
874.03302,474
874.150208,490
874.267456,449
874.384583,475
874.501831,464
874.618958,475
874.736145,485
874.853333,476
874.970459,506
875.087646,483
875.204834,495
875.32196,462
875.439148,462
875.556274,468
875.673401,476
875.790527,463
875.907715,459
876.024841,467
876.141968,480
876.259094,464
876.376282,483
876.493347,471
876.610474,468
876.7276,480
876.844727,462
876.961853,471
877.078918,465
877.195984,468
877.313171,455
877.430237,465
877.547302,480
877.664368,464
877.781433,441
877.898499,467
878.015625,484
878.13269,484
878.249695,462
878.366821,454
878.483887,459
878.600952,490
878.717957,473
878.834961,467
878.952087,464
879.069092,479
879.186157,480
879.303162,460
879.420227,479
879.537231,473
879.654236,465
879.77124,449
879.888306,464
880.005249,460
880.122314,470
880.239319,443
880.356323,467
880.473328,469
880.590271,457
880.707275,461
880.824341,467
880.941284,486
881.058228,455
881.175232,472
881.292236,457
881.40918,466
881.526123,461
881.643066,471
881.760071,457
881.877014,471
881.993958,457
882.11084,443
882.227783,470
882.344727,471
882.46167,438
882.578613,439
882.695618,453
882.812439,487
882.929382,458
883.046326,481
883.163208,458
883.280151,482
883.397034,482
883.513916,466
883.630798,476
883.747742,467
883.864563,471
883.981506,465
884.098389,463
884.21521,476
884.332153,479
884.448975,481
884.565796,471
884.682678,476
884.7995,488
884.916443,491
885.033264,482
885.150085,488
885.266968,473
885.383789,489
885.500671,494
885.617493,487
885.734314,493
885.851196,479
885.967896,487
886.084717,492
886.201599,496
886.318359,475
886.435181,486
886.552002,497
886.668762,484
886.785645,487
886.902344,473
887.019165,482
887.135925,468
887.252747,471
887.369446,472
887.486267,500
887.603027,466
887.719788,486
887.836548,464
887.953247,481
888.070068,484
888.186829,468
888.303528,456
888.420288,487
888.536987,477
888.653687,484
888.770447,470
888.887146,461
889.003967,475
889.120667,474
889.237305,482
889.354065,487
889.470703,464
889.587463,458
889.704163,470
889.820862,484
889.937561,471
890.054199,469
890.170837,469
890.287598,475
890.404236,471
890.520874,467
890.637634,448
890.754211,465
890.87085,475
890.987549,474
891.104187,463
891.220886,487
891.337463,475
891.454102,471
891.57074,488
891.687378,478
891.804077,467
891.920654,463
892.037231,459
892.15387,446
892.270447,467
892.387085,473
892.503723,478
892.6203,490
892.736877,466
892.853516,474
892.970032,471
893.08667,489
893.203186,472
893.319763,457
893.43634,461
893.552917,473
893.669556,480
893.786011,453
893.902588,464
894.019165,473
894.135681,456
894.252197,447
894.368835,489
894.485291,454
894.601868,491
894.718384,448
894.8349,469
894.951355,459
895.067932,478
895.184448,474
895.300964,470
895.417419,468
895.533936,464
895.650452,485
895.766907,466
895.883423,489
895.999878,473
896.116333,480
896.232849,474
896.349304,457
896.465759,478
896.582214,449
896.698669,473
896.815125,470
896.931641,469
897.048035,458
897.164551,474
897.280884,462
897.397339,464
897.513794,465
897.630249,456
897.746582,492
897.863098,464
897.979431,471
898.095886,466
898.212341,457
898.328674,483
898.445129,468
898.561462,483
898.677795,478
898.794312,457
898.910645,461
899.026978,480
899.143433,474
899.259766,450
899.37616,499
899.492493,471
899.608765,477
899.725159,489
899.841553,454
899.957947,457
900.07428,483
900.190552,492
900.306946,475
900.423157,466
900.53949,486
900.655884,471
900.772156,470
900.888489,489
901.004822,476
901.121033,476
901.237366,486
901.353699,472
901.46991,476
901.586304,485
901.702515,483
901.818787,476
901.93512,474
902.051331,486
902.167603,498
902.283875,487
902.400085,479
902.516418,457
902.632629,487
902.74884,512
902.865112,497
902.981384,490
903.097595,491
903.213867,483
903.330017,495
903.446289,490
903.5625,500
903.67865,491
903.794922,502
903.911072,470
904.027344,476
904.143494,487
904.259705,493
904.375916,477
904.492065,479
904.608215,486
904.724426,478
904.840576,469
904.956726,499
905.072876,469
905.189087,476
905.305176,481
905.421387,484
905.537537,477
905.653687,484
905.769775,470
905.885925,485
906.002014,487
906.118164,491
906.234314,451
906.350403,483
906.466492,492
906.582642,493
906.69873,453
906.814758,491
906.930908,495
907.046936,464
907.163086,452
907.279175,478
907.395264,502
907.511353,476
907.62738,492
907.743408,466
907.859497,475
907.975525,468
908.091553,464
908.207703,471
908.32373,481
908.439758,462
908.555786,465
908.671814,487
908.787842,473
908.90387,476
909.019775,462
909.135864,467
909.251892,469
909.367859,485
909.483826,489
909.599854,468
909.715881,477
909.831848,469
909.947815,467
910.063782,485
910.179749,483
910.295776,480
910.411743,456
910.527649,472
910.643616,477
910.759583,484
910.875488,478
910.991455,471
911.107361,479
911.223267,485
911.339294,456
911.4552,480
911.571106,477
911.687073,475
911.802979,471
911.918823,481
912.034729,474
912.150635,481
912.266602,462
912.382446,481
912.498352,461
912.614197,496
912.730103,477
912.846008,475
792.44574,667
792.56488,694
792.68396,724
792.80304,691
792.92218,672
793.041199,601
793.160339,621
793.279419,631
793.398499,610
793.517578,623
793.636658,594
793.755737,614
793.874817,573
793.993896,632
794.112976,604
794.232056,589
794.351074,613
794.470215,594
794.589233,580
794.708313,567
794.827393,591
794.946411,575
795.065552,593
795.18457,579
795.303589,582
795.422668,580
795.541687,584
795.660767,585
795.779846,585
795.898865,589
796.017883,564
796.136963,587
796.255981,556
796.375061,590
796.49408,574
796.613037,574
796.732117,547
796.851135,579
796.970154,561
797.089233,553
797.208191,557
797.327271,573
797.446228,560
797.565186,550
797.684265,565
797.803223,574
797.922241,552
798.04126,566
798.160278,575
798.279297,568
798.398315,546
798.517273,580
798.636292,569
798.75531,541
798.874268,557
798.993286,560
799.112244,558
799.231323,556
799.350281,578
799.469238,559
799.588257,538
799.707153,537
799.826111,566
799.945129,553
800.064087,559
800.183044,549
800.302063,549
800.421021,556
800.539978,553
800.658936,537
800.777893,553
800.896912,562
801.015747,575
801.134705,528
801.253723,554
801.37262,541
801.491638,535
801.610535,556
801.729492,543
801.84845,545
801.967407,531
802.086243,558
802.205261,550
802.324158,546
802.443115,524
802.562073,549
802.680969,560
802.799927,536
802.918762,568
803.037659,543
803.156677,543
803.275574,557
803.39447,546
803.513428,546
803.632263,567
803.751221,554
803.870117,540
803.989014,559
804.107971,552
804.226746,544
804.345642,525
804.4646,547
804.583496,539
804.702393,547
804.821228,553
804.940125,543
805.059021,520
805.177917,547
805.296814,558
805.415649,558
805.534546,542
805.653442,555
805.772278,571
805.891113,578
806.01001,551
806.128906,547
806.247742,534
806.366577,549
806.485413,560
806.604309,530
806.723145,560
806.84198,565
806.960876,545
807.079712,551
807.198486,533
807.317383,557
807.436218,552
807.554993,551
807.673889,571
807.792725,542
807.91156,538
808.030396,542
808.14917,551
808.268005,564
808.386841,568
808.505676,552
808.624451,540
808.743286,555
808.862122,550
808.980896,540
809.099731,556
809.218506,549
809.337341,561
809.456116,557
809.57489,562
809.693726,546
809.8125,558
809.931274,547
810.050049,560
810.168884,533
810.287659,559
810.406372,550
810.525269,536
810.643982,548
810.762756,551
810.881531,539
811.000305,566
811.11908,543
811.237854,550
811.356567,535
811.475403,554
811.594116,559
811.71283,565
811.831604,563
811.950378,547
812.069153,562
812.187927,581
812.30658,557
812.425415,549
812.544128,571
812.662781,552
812.781616,555
812.900269,548
813.019043,545
813.137756,532
813.256531,545
813.375244,580
813.493896,559
813.612671,559
813.731384,560
813.850037,537
813.96875,536
814.087524,559
814.206238,539
814.324951,539
814.443604,540
814.562256,538
814.68103,562
814.799683,556
814.918335,546
815.037109,566
815.155762,546
815.274475,540
815.393188,547
815.511841,555
815.630554,546
815.749146,528
815.867859,528
815.986572,520
816.105164,556
816.223877,520
816.342529,539
816.461182,546
816.579895,551
816.698486,523
816.817139,566
816.935791,527
817.054504,556
817.173096,549
817.291748,537
817.4104,535
817.529053,526
817.647644,523
817.766235,556
817.884949,514
818.00354,492
818.122192,508
818.240845,508
818.359436,509
818.478088,474
818.59668,511
818.715271,516
818.833923,483
818.952515,510
819.071106,524
819.189758,503
819.30835,493
819.426941,500
819.545532,497
819.664124,498
819.782715,473
819.901306,481
820.019897,487
820.138489,481
820.25708,480
820.375671,500
820.494202,484
820.612732,480
820.731384,460
820.849915,515
820.968506,484
821.087097,487
821.205627,474
821.324158,479
821.442749,490
821.561279,482
821.679871,478
821.798401,490
821.916931,483
822.035461,482
822.154053,460
822.272583,476
822.391174,472
822.509583,473
822.628174,471
822.746704,486
822.865234,483
822.983765,479
823.102295,461
823.220825,476
823.339294,492
823.457825,464
823.576355,467
823.694824,479
823.813354,481
823.931885,497
824.050354,474
824.168884,477
824.287354,502
824.405823,478
824.524353,495
824.642822,483
824.761353,479
824.879822,477
824.998291,483
825.116699,456
825.235291,459
825.353699,465
825.472168,471
825.590637,466
825.709106,477
825.827576,485
825.946045,471
826.064453,473
826.182983,451
826.301392,476
826.4198,486
826.53833,446
826.656738,464
826.775208,463
826.893677,453
827.012024,471
827.130493,462
827.248962,476
827.36731,476
827.485779,468
827.604248,475
827.722595,465
827.841064,473
827.959412,464
828.077942,455
828.196289,467
828.314636,446
828.433105,472
828.551514,474
828.669861,449
828.78833,459
828.906677,456
829.025085,458
829.143433,454
829.261841,441
829.38031,478
829.498657,463
829.617004,471
829.735413,476
829.85376,459
829.972107,441
830.090515,467
830.208862,475
830.327209,475
830.445557,462
830.563904,454
830.682312,462
830.800659,458
830.919006,442
831.037354,453
831.155701,454
831.274048,470
831.392395,467
831.51062,463
831.629028,461
831.747314,469
831.865662,466
831.984009,449
832.102356,487
832.220642,474
832.338928,461
832.457275,441
832.575623,472
832.693909,466
832.812134,459
832.930481,456
833.048828,458
833.167114,445
833.2854,485
833.403687,464
833.521973,470
833.640259,457
833.758545,452
833.876831,457
833.995056,449
834.113281,441
834.231628,445
834.349915,459
834.468201,470
834.586426,479
834.704651,457
834.822998,437
834.941162,469
835.059448,484
835.177673,459
835.295959,456
835.414246,478
835.53241,468
835.650635,464
835.768921,470
835.887146,470
836.005371,470
836.123596,459
836.241821,480
836.360046,467
836.478271,477
836.596497,451
836.714722,464
836.832886,468
836.95105,475
837.069336,464
837.1875,461
837.305725,445
837.423889,482
837.542053,465
837.660339,480
837.778503,474
837.896667,472
838.014832,475
838.132996,465
838.25116,450
838.369385,451
838.487488,474
838.605713,474
838.723877,458
838.84198,470
838.960205,484
839.078308,446
839.196472,489
839.314636,476
839.4328,476
839.550964,448
839.669067,466
839.787231,465
839.905396,478
840.023499,464
840.141602,478
840.259766,442
840.377869,452
840.495972,463
840.614136,467
840.732239,490
840.850342,469
840.968445,484
841.086548,474
841.204651,458
841.322754,471
841.440918,473
841.55896,471
841.677002,469
841.795166,467
841.913208,458
842.031311,454
842.149353,467
842.267456,470
842.385498,463
842.503601,474
842.621643,467
842.739746,469
842.857788,460
842.97583,460
843.093933,470
843.211975,449
843.330017,485
843.44812,470
843.566101,490
843.684204,467
843.802246,477
843.920227,473
844.038269,462
844.156311,451
844.274292,470
844.392395,466
844.510376,464
844.628357,480
844.74646,461
844.864441,476
844.982422,462
845.100403,469
845.218384,462
845.336426,454
845.454468,476
845.572449,456
845.69043,454
845.808411,454
845.926453,468
846.044373,474
846.162354,463
846.280396,462
846.398315,453
846.516296,462
846.634216,430
846.752197,460
846.870178,482
846.988098,458
847.106079,450
847.22406,479
847.34198,477
847.4599,463
847.577881,461
847.695801,462
847.813782,471
847.931641,448
848.049561,469
848.167603,458
848.285461,471
848.403381,468
848.521362,467
848.639221,459
848.75708,450
848.875,464
848.99292,468
849.110901,483
849.22876,488
849.34668,486
849.464539,481
849.582458,465
849.700317,465
849.818176,486
849.936096,468
850.053955,461
850.171875,486
850.289673,471
850.407593,466
850.525452,479
850.643311,477
850.761169,479
850.878967,464
850.996887,451
851.114746,441
851.232544,451
851.350403,461
851.468262,455
851.58606,472
851.703979,471
851.821777,478
851.939636,468
852.057434,452
852.175232,461
852.293091,466
852.410889,473
852.528687,446
852.646545,465
852.764343,470
852.88208,470
852.999939,453
853.117676,472
853.235535,464
853.353271,471
853.471069,487
853.588928,454
853.706604,448
853.824402,467
853.9422,450
854.059998,472
854.177734,463
854.295532,468
854.413269,471
854.531006,452
854.648804,457
854.766541,459
854.884277,456
855.002014,443
855.119751,467
855.237549,457
855.355225,465
855.473022,457
855.590698,462
855.708435,472
855.826172,474
855.943848,463
856.061646,470
856.179321,448
856.296997,457
856.414795,449
856.53241,468
856.650085,472
856.767822,456
856.885559,461
857.003174,462
857.120911,475
857.238586,469
857.356201,457
857.473938,470
857.591614,451
857.709351,480
857.826965,488
857.944641,481
858.062317,461
858.179993,452
858.297668,469
858.415283,452
858.532959,471
858.650574,482
858.768188,489
858.885803,469
859.003479,470
859.121094,470
859.23877,450
859.356384,481
859.473999,471
859.591675,460
859.709229,456
859.826843,476
859.944458,459
860.062012,460
860.179626,451
860.297302,464
860.414856,484
860.532471,468
860.650024,477
860.767639,449
860.885193,459
861.002808,466
861.120361,451
861.237976,455
861.35553,467
861.473022,465
861.590698,477
861.708191,457
861.825745,455
861.943298,445
862.060852,456
862.178406,471
862.295959,484
862.413513,466
862.531006,465
862.64856,455
862.766113,465
862.883667,468
863.00116,461
863.118713,470
863.236206,456
863.353699,458
863.471252,478
863.588745,468
863.706177,458
863.82373,473
863.941162,464
864.058716,464
864.176208,468
864.29364,453
864.411194,475
864.528687,461
864.646118,462
864.763611,464
864.881042,468
864.998535,462
865.116028,465
865.233459,464
865.350891,461
865.468384,458
865.585754,483
865.703308,469
865.820679,459
865.938171,465
866.055542,473
866.173035,454
866.290466,477
866.407837,470
866.52533,465
866.6427,465
866.760071,472
866.877563,480
866.994934,467
867.112305,468
867.229736,470
867.347107,469
867.464539,463
867.58197,466
867.699341,470
867.81665,436
867.934082,469
868.051453,485
868.168823,470
868.286194,438
868.403564,454
868.520935,449
868.638306,465
868.755676,459
868.872986,466
868.990295,483
869.107727,478
869.225037,458
869.342346,445
869.459717,453
869.577026,459
869.694336,480
869.811707,461
869.929016,483
870.046326,442
870.163635,465
870.280945,472
870.398254,464
870.515564,465
870.632812,471
870.750183,468
870.867432,470
870.984741,457
871.102051,471
871.219299,480
871.336609,479
871.453918,484
871.571106,464
871.688416,465
871.805664,452
871.922852,467
872.040222,465
872.157471,480
872.274719,490
872.391968,470
872.509155,471
872.626465,460
872.743652,483
872.860962,480
872.978149,485
873.095337,473
873.212646,470
873.329834,458
873.44696,477
873.564209,477
873.681396,470
873.798645,474
873.915894,484
874.03302,479
874.150208,467
874.267456,477
874.384583,471
874.501831,463
874.618958,477
874.736145,454
874.853333,459
874.970459,465
875.087646,479
875.204834,471
875.32196,458
875.439148,487
875.556274,472
875.673401,491
875.790527,449
875.907715,459
876.024841,469
876.141968,481
876.259094,483
876.376282,464
876.493347,476
876.610474,462
876.7276,470
876.844727,466
876.961853,475
877.078918,463
877.195984,459
877.313171,464
877.430237,480
877.547302,466
877.664368,449
877.781433,476
877.898499,469
878.015625,464
878.13269,465
878.249695,480
878.366821,482
878.483887,476
878.600952,457
878.717957,476
878.834961,459
878.952087,466
879.069092,478
879.186157,489
879.303162,484
879.420227,443
879.537231,471
879.654236,454
879.77124,474
879.888306,470
880.005249,465
880.122314,461
880.239319,473
880.356323,484
880.473328,487
880.590271,478
880.707275,468
880.824341,454
880.941284,476
881.058228,460
881.175232,491
881.292236,460
881.40918,467
881.526123,474
881.643066,459
881.760071,440
881.877014,469
881.993958,484
882.11084,467
882.227783,449
882.344727,464
882.46167,455
882.578613,470
882.695618,471
882.812439,447
882.929382,471
883.046326,479
883.163208,451
883.280151,472
883.397034,473
883.513916,481
883.630798,480
883.747742,462
883.864563,482
883.981506,467
884.098389,464
884.21521,490
884.332153,472
884.448975,474
884.565796,481
884.682678,476
884.7995,451
884.916443,472
885.033264,485
885.150085,485
885.266968,470
885.383789,469
885.500671,502
885.617493,504
885.734314,498
885.851196,488
885.967896,482
886.084717,481
886.201599,475
886.318359,501
886.435181,476
886.552002,505
886.668762,488
886.785645,493
886.902344,479
887.019165,482
887.135925,481
887.252747,484
887.369446,493
887.486267,485
887.603027,472
887.719788,473
887.836548,482
887.953247,490
888.070068,465
888.186829,486
888.303528,463
888.420288,467
888.536987,471
888.653687,477
888.770447,458
888.887146,482
889.003967,453
889.120667,471
889.237305,477
889.354065,469
889.470703,468
889.587463,459
889.704163,461
889.820862,451
889.937561,456
890.054199,467
890.170837,457
890.287598,475
890.404236,474
890.520874,480
890.637634,462
890.754211,486
890.87085,477
890.987549,452
891.104187,472
891.220886,477
891.337463,458
891.454102,488
891.57074,455
891.687378,487
891.804077,477
891.920654,469
892.037231,493
892.15387,479
892.270447,463
892.387085,482
892.503723,459
892.6203,474
892.736877,480
892.853516,473
892.970032,460
893.08667,456
893.203186,478
893.319763,489
893.43634,475
893.552917,476
893.669556,463
893.786011,483
893.902588,460
894.019165,453
894.135681,478
894.252197,466
894.368835,450
894.485291,477
894.601868,461
894.718384,491
894.8349,460
894.951355,493
895.067932,495
895.184448,456
895.300964,479
895.417419,488
895.533936,482
895.650452,463
895.766907,455
895.883423,464
895.999878,459
896.116333,477
896.232849,464
896.349304,460
896.465759,473
896.582214,461
896.698669,481
896.815125,473
896.931641,479
897.048035,453
897.164551,479
897.280884,474
897.397339,473
897.513794,479
897.630249,483
897.746582,491
897.863098,493
897.979431,480
898.095886,483
898.212341,482
898.328674,482
898.445129,488
898.561462,473
898.677795,472
898.794312,471
898.910645,489
899.026978,485
899.143433,482
899.259766,463
899.37616,482
899.492493,441
899.608765,475
899.725159,476
899.841553,452
899.957947,484
900.07428,481
900.190552,481
900.306946,473
900.423157,457
900.53949,468
900.655884,480
900.772156,472
900.888489,479
901.004822,492
901.121033,499
901.237366,470
901.353699,473
901.46991,469
901.586304,457
901.702515,474
901.818787,494
901.93512,485
902.051331,495
902.167603,495
902.283875,484
902.400085,468
902.516418,485
902.632629,480
902.74884,499
902.865112,509
902.981384,478
903.097595,511
903.213867,507
903.330017,487
903.446289,485
903.5625,488
903.67865,483
903.794922,514
903.911072,477
904.027344,479
904.143494,494
904.259705,492
904.375916,491
904.492065,480
904.608215,481
904.724426,491
904.840576,478
904.956726,484
905.072876,486
905.189087,489
905.305176,480
905.421387,468
905.537537,478
905.653687,474
905.769775,483
905.885925,491
906.002014,493
906.118164,460
906.234314,489
906.350403,458
906.466492,488
906.582642,490
906.69873,472
906.814758,480
906.930908,488
907.046936,484
907.163086,473
907.279175,477
907.395264,480
907.511353,479
907.62738,477
907.743408,476
907.859497,475
907.975525,492
908.091553,494
908.207703,482
908.32373,497
908.439758,475
908.555786,473
908.671814,457
908.787842,489
908.90387,481
909.019775,460
909.135864,473
909.251892,471
909.367859,492
909.483826,482
909.599854,472
909.715881,469
909.831848,488
909.947815,492
910.063782,474
910.179749,470
910.295776,487
910.411743,482
910.527649,492
910.643616,456
910.759583,469
910.875488,472
910.991455,474
911.107361,475
911.223267,476
911.339294,482
911.4552,483
911.571106,475
911.687073,464
911.802979,478
911.918823,472
912.034729,473
912.150635,489
912.266602,501
912.382446,483
912.498352,460
912.614197,477
912.730103,495
912.846008,470
