792.44574,667
792.56488,696
792.68396,675
792.80304,679
792.92218,625
793.041199,610
793.160339,620
793.279419,634
793.398499,607
793.517578,603
793.636658,583
793.755737,618
793.874817,614
793.993896,588
794.112976,591
794.232056,564
794.351074,579
794.470215,571
794.589233,602
794.708313,551
794.827393,547
794.946411,548
795.065552,574
795.18457,558
795.303589,561
795.422668,545
795.541687,561
795.660767,555
795.779846,550
795.898865,543
796.017883,552
796.136963,557
796.255981,542
796.375061,559
796.49408,564
796.613037,559
796.732117,543
796.851135,555
796.970154,517
797.089233,527
797.208191,531
797.327271,551
797.446228,515
797.565186,534
797.684265,528
797.803223,543
797.922241,554
798.04126,510
798.160278,526
798.279297,525
798.398315,537
798.517273,513
798.636292,541
798.75531,517
798.874268,540
798.993286,513
799.112244,488
799.231323,509
799.350281,495
799.469238,501
799.588257,503
799.707153,527
799.826111,528
799.945129,526
800.064087,513
800.183044,506
800.302063,519
800.421021,511
800.539978,517
800.658936,522
800.777893,504
800.896912,513
801.015747,508
801.134705,510
801.253723,504
801.37262,529
801.491638,495
801.610535,522
801.729492,499
801.84845,490
801.967407,517
802.086243,506
802.205261,507
802.324158,503
802.443115,513
802.562073,500
802.680969,495
802.799927,507
802.918762,499
803.037659,503
803.156677,507
803.275574,529
803.39447,497
803.513428,505
803.632263,485
803.751221,505
803.870117,515
803.989014,501
804.107971,497
804.226746,506
804.345642,510
804.4646,512
804.583496,487
804.702393,511
804.821228,508
804.940125,519
805.059021,505
805.177917,504
805.296814,500
805.415649,508
805.534546,516
805.653442,490
805.772278,502
805.891113,511
806.01001,502
806.128906,486
806.247742,513
806.366577,485
806.485413,494
806.604309,503
806.723145,474
806.84198,503
806.960876,500
807.079712,494
807.198486,506
807.317383,496
807.436218,488
807.554993,490
807.673889,504
807.792725,527
807.91156,505
808.030396,521
808.14917,508
808.268005,486
808.386841,497
808.505676,475
808.624451,482
808.743286,501
808.862122,480
808.980896,491
809.099731,474
809.218506,504
809.337341,492
809.456116,499
809.57489,492
809.693726,497
809.8125,474
809.931274,498
810.050049,496
810.168884,505
810.287659,481
810.406372,495
810.525269,485
810.643982,495
810.762756,485
810.881531,501
811.000305,498
811.11908,522
811.237854,517
811.356567,479
811.475403,478
811.594116,479
811.71283,486
811.831604,524
811.950378,497
812.069153,515
812.187927,512
812.30658,499
812.425415,489
812.544128,507
812.662781,484
812.781616,515
812.900269,486
813.019043,492
813.137756,494
813.256531,483
813.375244,485
813.493896,492
813.612671,507
813.731384,513
813.850037,499
813.96875,501
814.087524,506
814.206238,502
814.324951,499
814.443604,523
814.562256,487
814.68103,496
814.799683,495
814.918335,486
815.037109,486
815.155762,512
815.274475,485
815.393188,487
815.511841,487
815.630554,492
815.749146,490
815.867859,489
815.986572,505
816.105164,481
816.223877,491
816.342529,489
816.461182,489
816.579895,508
816.698486,490
816.817139,497
816.935791,484
817.054504,488
817.173096,502
817.291748,508
817.4104,495
817.529053,490
817.647644,480
817.766235,494
817.884949,493
818.00354,487
818.122192,492
818.240845,490
818.359436,491
818.478088,497
818.59668,467
818.715271,459
818.833923,464
818.952515,472
819.071106,473
819.189758,480
819.30835,472
819.426941,491
819.545532,464
819.664124,461
819.782715,473
819.901306,479
820.019897,486
820.138489,458
820.25708,485
820.375671,476
820.494202,481
820.612732,455
820.731384,461
820.849915,470
820.968506,464
821.087097,478
821.205627,467
821.324158,471
821.442749,477
821.561279,466
821.679871,465
821.798401,468
821.916931,468
822.035461,484
822.154053,481
822.272583,477
822.391174,457
822.509583,470
822.628174,463
822.746704,455
822.865234,449
822.983765,476
823.102295,480
823.220825,459
823.339294,456
823.457825,477
823.576355,474
823.694824,469
823.813354,453
823.931885,467
824.050354,479
824.168884,470
824.287354,450
824.405823,455
824.524353,447
824.642822,473
824.761353,449
824.879822,463
824.998291,456
825.116699,466
825.235291,461
825.353699,446
825.472168,450
825.590637,449
825.709106,455
825.827576,482
825.946045,460
826.064453,463
826.182983,461
826.301392,458
826.4198,463
826.53833,459
826.656738,470
826.775208,485
826.893677,458
827.012024,450
827.130493,464
827.248962,467
827.36731,481
827.485779,476
827.604248,451
827.722595,468
827.841064,457
827.959412,450
828.077942,468
828.196289,460
828.314636,452
828.433105,442
828.551514,452
828.669861,455
828.78833,444
828.906677,468
829.025085,467
829.143433,470
829.261841,454
829.38031,461
829.498657,450
829.617004,459
829.735413,464
829.85376,466
829.972107,455
830.090515,465
830.208862,438
830.327209,443
830.445557,481
830.563904,463
830.682312,461
830.800659,436
830.919006,479
831.037354,453
831.155701,465
831.274048,454
831.392395,457
831.51062,462
831.629028,473
831.747314,453
831.865662,449
831.984009,452
832.102356,455
832.220642,467
832.338928,452
832.457275,477
832.575623,456
832.693909,456
832.812134,464
832.930481,457
833.048828,455
833.167114,462
833.2854,457
833.403687,456
833.521973,477
833.640259,447
833.758545,447
833.876831,474
833.995056,463
834.113281,467
834.231628,425
834.349915,444
834.468201,450
834.586426,455
834.704651,443
834.822998,459
834.941162,462
835.059448,444
835.177673,466
835.295959,466
835.414246,458
835.53241,468
835.650635,442
835.768921,448
835.887146,471
836.005371,446
836.123596,453
836.241821,465
836.360046,439
836.478271,445
836.596497,450
836.714722,462
836.832886,467
836.95105,459
837.069336,447
837.1875,456
837.305725,430
837.423889,457
837.542053,449
837.660339,465
837.778503,459
837.896667,463
838.014832,445
838.132996,452
838.25116,468
838.369385,457
838.487488,439
838.605713,451
838.723877,454
838.84198,456
838.960205,460
839.078308,446
839.196472,451
839.314636,459
839.4328,469
839.550964,459
839.669067,468
839.787231,453
839.905396,461
840.023499,461
840.141602,467
840.259766,467
840.377869,459
840.495972,470
840.614136,470
840.732239,460
840.850342,442
840.968445,447
841.086548,441
841.204651,469
841.322754,442
841.440918,473
841.55896,471
841.677002,470
841.795166,461
841.913208,471
842.031311,462
842.149353,460
842.267456,475
842.385498,459
842.503601,465
842.621643,463
842.739746,466
842.857788,460
842.97583,448
843.093933,445
843.211975,470
843.330017,460
843.44812,465
843.566101,465
843.684204,446
843.802246,464
843.920227,450
844.038269,461
844.156311,470
844.274292,476
844.392395,459
844.510376,469
844.628357,459
844.74646,450
844.864441,482
844.982422,466
845.100403,456
845.218384,460
845.336426,447
845.454468,469
845.572449,468
845.69043,450
845.808411,450
845.926453,456
846.044373,471
846.162354,464
846.280396,447
846.398315,477
846.516296,454
846.634216,447
846.752197,452
846.870178,464
846.988098,466
847.106079,448
847.22406,468
847.34198,467
847.4599,464
847.577881,452
847.695801,484
847.813782,459
847.931641,449
848.049561,449
848.167603,443
848.285461,462
848.403381,445
848.521362,470
848.639221,470
848.75708,464
848.875,467
848.99292,460
849.110901,454
849.22876,450
849.34668,463
849.464539,465
849.582458,471
849.700317,444
849.818176,462
849.936096,466
850.053955,470
850.171875,461
850.289673,476
850.407593,462
850.525452,472
850.643311,469
850.761169,451
850.878967,468
850.996887,461
851.114746,448
851.232544,472
851.350403,458
851.468262,471
851.58606,461
851.703979,461
851.821777,477
851.939636,452
852.057434,471
852.175232,476
852.293091,457
852.410889,467
852.528687,451
852.646545,470
852.764343,471
852.88208,456
852.999939,469
853.117676,449
853.235535,468
853.353271,479
853.471069,455
853.588928,443
853.706604,472
853.824402,476
853.9422,472
854.059998,458
854.177734,463
854.295532,461
854.413269,476
854.531006,448
854.648804,462
854.766541,442
854.884277,453
855.002014,443
855.119751,468
855.237549,461
855.355225,468
855.473022,434
855.590698,460
855.708435,474
855.826172,462
855.943848,465
856.061646,453
856.179321,469
856.296997,471
856.414795,464
856.53241,467
856.650085,435
856.767822,462
856.885559,478
857.003174,481
857.120911,469
857.238586,470
857.356201,476
857.473938,462
857.591614,455
857.709351,469
857.826965,466
857.944641,471
858.062317,464
858.179993,471
858.297668,461
858.415283,448
858.532959,464
858.650574,484
858.768188,454
858.885803,472
859.003479,460
859.121094,453
859.23877,456
859.356384,462
859.473999,477
859.591675,458
859.709229,449
859.826843,460
859.944458,466
860.062012,472
860.179626,438
860.297302,450
860.414856,453
860.532471,457
860.650024,466
860.767639,455
860.885193,466
861.002808,456
861.120361,455
861.237976,468
861.35553,471
861.473022,471
861.590698,460
861.708191,458
861.825745,484
861.943298,471
862.060852,449
862.178406,455
862.295959,464
862.413513,469
862.531006,464
862.64856,454
862.766113,445
862.883667,452
863.00116,439
863.118713,464
863.236206,456
863.353699,462
863.471252,466
863.588745,454
863.706177,450
863.82373,441
863.941162,466
864.058716,457
864.176208,467
864.29364,483
864.411194,448
864.528687,472
864.646118,479
864.763611,469
864.881042,475
864.998535,438
865.116028,450
865.233459,461
865.350891,441
865.468384,458
865.585754,459
865.703308,454
865.820679,470
865.938171,466
866.055542,437
866.173035,458
866.290466,470
866.407837,474
866.52533,464
866.6427,449
866.760071,446
866.877563,441
866.994934,451
867.112305,482
867.229736,453
867.347107,463
867.464539,452
867.58197,459
867.699341,483
867.81665,466
867.934082,446
868.051453,462
868.168823,464
868.286194,463
868.403564,457
868.520935,465
868.638306,458
868.755676,462
868.872986,458
868.990295,454
869.107727,436
869.225037,479
869.342346,444
869.459717,460
869.577026,464
869.694336,483
869.811707,461
869.929016,463
870.046326,486
870.163635,448
870.280945,464
870.398254,472
870.515564,457
870.632812,467
870.750183,452
870.867432,455
870.984741,453
871.102051,454
871.219299,461
871.336609,476
871.453918,474
871.571106,462
871.688416,462
871.805664,460
871.922852,466
872.040222,462
872.157471,479
872.274719,464
872.391968,453
872.509155,452
872.626465,469
872.743652,446
872.860962,460
872.978149,461
873.095337,477
873.212646,465
873.329834,459
873.44696,473
873.564209,467
873.681396,470
873.798645,458
873.915894,461
874.03302,462
874.150208,464
874.267456,465
874.384583,472
874.501831,449
874.618958,474
874.736145,477
874.853333,483
874.970459,480
875.087646,481
875.204834,483
875.32196,480
875.439148,487
875.556274,476
875.673401,459
875.790527,455
875.907715,468
876.024841,466
876.141968,466
876.259094,474
876.376282,468
876.493347,467
876.610474,475
876.7276,472
876.844727,446
876.961853,463
877.078918,452
877.195984,461
877.313171,475
877.430237,464
877.547302,461
877.664368,481
877.781433,460
877.898499,455
878.015625,472
878.13269,484
878.249695,461
878.366821,478
878.483887,443
878.600952,447
878.717957,450
878.834961,464
878.952087,468
879.069092,463
879.186157,453
879.303162,451
879.420227,463
879.537231,466
879.654236,453
879.77124,465
879.888306,458
880.005249,479
880.122314,460
880.239319,454
880.356323,463
880.473328,445
880.590271,453
880.707275,466
880.824341,448
880.941284,466
881.058228,452
881.175232,476
881.292236,465
881.40918,469
881.526123,473
881.643066,475
881.760071,460
881.877014,453
881.993958,463
882.11084,461
882.227783,442
882.344727,476
882.46167,461
882.578613,458
882.695618,465
882.812439,468
882.929382,452
883.046326,461
883.163208,450
883.280151,440
883.397034,477
883.513916,461
883.630798,459
883.747742,470
883.864563,446
883.981506,463
884.098389,463
884.21521,470
884.332153,455
884.448975,457
884.565796,460
884.682678,481
884.7995,474
884.916443,465
885.033264,496
885.150085,483
885.266968,496
885.383789,490
885.500671,473
885.617493,501
885.734314,480
885.851196,501
885.967896,486
886.084717,484
886.201599,479
886.318359,484
886.435181,497
886.552002,478
886.668762,463
886.785645,496
886.902344,473
887.019165,472
887.135925,487
887.252747,484
887.369446,457
887.486267,469
887.603027,476
887.719788,468
887.836548,452
887.953247,475
888.070068,482
888.186829,459
888.303528,472
888.420288,477
888.536987,447
888.653687,449
888.770447,445
888.887146,485
889.003967,466
889.120667,449
889.237305,451
889.354065,471
889.470703,447
889.587463,450
889.704163,476
889.820862,461
889.937561,477
890.054199,475
890.170837,450
890.287598,457
890.404236,458
890.520874,459
890.637634,452
890.754211,458
890.87085,479
890.987549,464
891.104187,463
891.220886,457
891.337463,453
891.454102,482
891.57074,428
891.687378,475
891.804077,460
891.920654,463
892.037231,459
892.15387,465
892.270447,457
892.387085,458
892.503723,459
892.6203,458
892.736877,439
892.853516,457
892.970032,462
893.08667,469
893.203186,454
893.319763,454
893.43634,461
893.552917,458
893.669556,452
893.786011,476
893.902588,448
894.019165,473
894.135681,472
894.252197,470
894.368835,447
894.485291,472
894.601868,485
894.718384,450
894.8349,448
894.951355,472
895.067932,463
895.184448,474
895.300964,461
895.417419,456
895.533936,446
895.650452,456
895.766907,460
895.883423,471
895.999878,458
896.116333,463
896.232849,461
896.349304,459
896.465759,478
896.582214,444
896.698669,447
896.815125,474
896.931641,443
897.048035,470
897.164551,468
897.280884,483
897.397339,464
897.513794,464
897.630249,470
897.746582,457
897.863098,473
897.979431,471
898.095886,458
898.212341,454
898.328674,456
898.445129,463
898.561462,468
898.677795,453
898.794312,474
898.910645,461
899.026978,466
899.143433,469
899.259766,471
899.37616,459
899.492493,447
899.608765,469
899.725159,471
899.841553,462
899.957947,464
900.07428,476
900.190552,459
900.306946,459
900.423157,452
900.53949,481
900.655884,462
900.772156,465
900.888489,443
901.004822,479
901.121033,469
901.237366,455
901.353699,466
901.46991,482
901.586304,478
901.702515,455
901.818787,486
901.93512,481
902.051331,473
902.167603,492
902.283875,472
902.400085,483
902.516418,494
902.632629,472
902.74884,487
902.865112,492
902.981384,485
903.097595,468
903.213867,486
903.330017,490
903.446289,465
903.5625,468
903.67865,476
903.794922,498
903.911072,459
904.027344,484
904.143494,483
904.259705,462
904.375916,468
904.492065,466
904.608215,475
904.724426,475
904.840576,461
904.956726,475
905.072876,459
905.189087,468
905.305176,463
905.421387,451
905.537537,467
905.653687,457
905.769775,497
905.885925,462
906.002014,476
906.118164,446
906.234314,484
906.350403,460
906.466492,453
906.582642,468
906.69873,474
906.814758,479
906.930908,464
907.046936,472
907.163086,466
907.279175,442
907.395264,476
907.511353,483
907.62738,445
907.743408,459
907.859497,450
907.975525,456
908.091553,459
908.207703,462
908.32373,472
908.439758,468
908.555786,453
908.671814,489
908.787842,465
908.90387,475
909.019775,462
909.135864,465
909.251892,448
909.367859,471
909.483826,457
909.599854,450
909.715881,456
909.831848,473
909.947815,457
910.063782,453
910.179749,452
910.295776,489
910.411743,466
910.527649,472
910.643616,471
910.759583,483
910.875488,459
910.991455,478
911.107361,460
911.223267,485
911.339294,484
911.4552,478
911.571106,454
911.687073,471
911.802979,471
911.918823,464
912.034729,485
912.150635,457
912.266602,480
912.382446,473
912.498352,481
912.614197,474
912.730103,477
912.846008,453
792.44574,626
792.56488,675
792.68396,725
792.80304,693
792.92218,644
793.041199,633
793.160339,623
793.279419,624
793.398499,614
793.517578,585
793.636658,582
793.755737,597
793.874817,612
793.993896,612
794.112976,593
794.232056,593
794.351074,586
794.470215,617
794.589233,578
794.708313,576
794.827393,562
794.946411,583
795.065552,560
795.18457,565
795.303589,566
795.422668,546
795.541687,590
795.660767,547
795.779846,557
795.898865,541
796.017883,572
796.136963,540
796.255981,534
796.375061,543
796.49408,549
796.613037,535
796.732117,531
796.851135,535
796.970154,525
797.089233,530
797.208191,531
797.327271,537
797.446228,525
797.565186,525
797.684265,520
797.803223,545
797.922241,513
798.04126,555
798.160278,505
798.279297,528
798.398315,527
798.517273,534
798.636292,534
798.75531,520
798.874268,513
798.993286,523
799.112244,515
799.231323,520
799.350281,522
799.469238,539
799.588257,512
799.707153,534
799.826111,511
799.945129,511
800.064087,492
800.183044,507
800.302063,509
800.421021,511
800.539978,528
800.658936,515
800.777893,516
800.896912,520
801.015747,506
801.134705,529
801.253723,511
801.37262,518
801.491638,519
801.610535,517
801.729492,522
801.84845,525
801.967407,522
802.086243,494
802.205261,522
802.324158,513
802.443115,507
802.562073,515
802.680969,515
802.799927,499
802.918762,508
803.037659,512
803.156677,518
803.275574,512
803.39447,513
803.513428,493
803.632263,509
803.751221,510
803.870117,508
803.989014,495
804.107971,512
804.226746,504
804.345642,485
804.4646,497
804.583496,509
804.702393,507
804.821228,497
804.940125,498
805.059021,498
805.177917,501
805.296814,489
805.415649,514
805.534546,491
805.653442,498
805.772278,496
805.891113,496
806.01001,500
806.128906,484
806.247742,504
806.366577,509
806.485413,510
806.604309,504
806.723145,501
806.84198,491
806.960876,492
807.079712,488
807.198486,520
807.317383,497
807.436218,510
807.554993,477
807.673889,498
807.792725,487
807.91156,523
808.030396,506
808.14917,498
808.268005,490
808.386841,476
808.505676,515
808.624451,486
808.743286,529
808.862122,490
808.980896,495
809.099731,523
809.218506,499
809.337341,510
809.456116,492
809.57489,502
809.693726,497
809.8125,487
809.931274,482
810.050049,480
810.168884,502
810.287659,485
810.406372,504
810.525269,486
810.643982,518
810.762756,497
810.881531,506
811.000305,508
811.11908,495
811.237854,491
811.356567,508
811.475403,520
811.594116,492
811.71283,522
811.831604,515
811.950378,495
812.069153,515
812.187927,487
812.30658,505
812.425415,487
812.544128,492
812.662781,501
812.781616,475
812.900269,494
813.019043,514
813.137756,478
813.256531,509
813.375244,486
813.493896,507
813.612671,490
813.731384,492
813.850037,474
813.96875,488
814.087524,523
814.206238,501
814.324951,481
814.443604,490
814.562256,496
814.68103,497
814.799683,491
814.918335,496
815.037109,490
815.155762,503
815.274475,476
815.393188,481
815.511841,484
815.630554,488
815.749146,487
815.867859,485
815.986572,493
816.105164,491
816.223877,499
816.342529,487
816.461182,498
816.579895,497
816.698486,488
816.817139,500
816.935791,507
817.054504,476
817.173096,493
817.291748,501
817.4104,485
817.529053,494
817.647644,478
817.766235,477
817.884949,459
818.00354,478
818.122192,483
818.240845,493
818.359436,487
818.478088,506
818.59668,489
818.715271,480
818.833923,491
818.952515,480
819.071106,466
819.189758,489
819.30835,488
819.426941,492
819.545532,486
819.664124,486
819.782715,457
819.901306,461
820.019897,465
820.138489,472
820.25708,469
820.375671,461
820.494202,478
820.612732,486
820.731384,469
820.849915,470
820.968506,473
821.087097,470
821.205627,481
821.324158,458
821.442749,488
821.561279,481
821.679871,459
821.798401,483
821.916931,468
822.035461,489
822.154053,483
822.272583,478
822.391174,451
822.509583,493
822.628174,450
822.746704,455
822.865234,467
822.983765,473
823.102295,450
823.220825,453
823.339294,466
823.457825,463
823.576355,473
823.694824,464
823.813354,455
823.931885,468
824.050354,442
824.168884,465
824.287354,492
824.405823,464
824.524353,458
824.642822,480
824.761353,474
824.879822,464
824.998291,483
825.116699,467
825.235291,471
825.353699,469
825.472168,478
825.590637,471
825.709106,476
825.827576,464
825.946045,460
826.064453,471
826.182983,465
826.301392,478
826.4198,463
826.53833,464
826.656738,472
826.775208,458
826.893677,489
827.012024,447
827.130493,448
827.248962,460
827.36731,451
827.485779,448
827.604248,467
827.722595,461
827.841064,443
827.959412,463
828.077942,454
828.196289,458
828.314636,478
828.433105,456
828.551514,449
828.669861,472
828.78833,463
828.906677,457
829.025085,472
829.143433,447
829.261841,474
829.38031,450
829.498657,455
829.617004,437
829.735413,459
829.85376,462
829.972107,436
830.090515,452
830.208862,453
830.327209,458
830.445557,458
830.563904,459
830.682312,459
830.800659,458
830.919006,458
831.037354,473
831.155701,458
831.274048,464
831.392395,467
831.51062,455
831.629028,466
831.747314,458
831.865662,446
831.984009,472
832.102356,463
832.220642,455
832.338928,454
832.457275,452
832.575623,472
832.693909,464
832.812134,468
832.930481,450
833.048828,461
833.167114,458
833.2854,447
833.403687,461
833.521973,470
833.640259,445
833.758545,478
833.876831,466
833.995056,461
834.113281,472
834.231628,468
834.349915,458
834.468201,459
834.586426,459
834.704651,442
834.822998,448
834.941162,456
835.059448,447
835.177673,450
835.295959,434
835.414246,463
835.53241,470
835.650635,457
835.768921,460
835.887146,486
836.005371,441
836.123596,445
836.241821,450
836.360046,460
836.478271,460
836.596497,468
836.714722,466
836.832886,452
836.95105,454
837.069336,452
837.1875,454
837.305725,480
837.423889,458
837.542053,452
837.660339,451
837.778503,462
837.896667,444
838.014832,450
838.132996,461
838.25116,458
838.369385,475
838.487488,465
838.605713,451
838.723877,466
838.84198,457
838.960205,456
839.078308,445
839.196472,467
839.314636,478
839.4328,470
839.550964,464
839.669067,446
839.787231,466
839.905396,455
840.023499,456
840.141602,451
840.259766,458
840.377869,461
840.495972,454
840.614136,456
840.732239,450
840.850342,481
840.968445,447
841.086548,486
841.204651,469
841.322754,470
841.440918,454
841.55896,467
841.677002,490
841.795166,457
841.913208,471
842.031311,467
842.149353,479
842.267456,478
842.385498,455
842.503601,454
842.621643,453
842.739746,467
842.857788,463
842.97583,472
843.093933,476
843.211975,467
843.330017,475
843.44812,475
843.566101,490
843.684204,474
843.802246,450
843.920227,473
844.038269,475
844.156311,461
844.274292,464
844.392395,475
844.510376,448
844.628357,441
844.74646,462
844.864441,456
844.982422,462
845.100403,459
845.218384,469
845.336426,456
845.454468,465
845.572449,450
845.69043,452
845.808411,465
845.926453,458
846.044373,459
846.162354,464
846.280396,465
846.398315,444
846.516296,470
846.634216,463
846.752197,445
846.870178,458
846.988098,464
847.106079,465
847.22406,450
847.34198,429
847.4599,446
847.577881,471
847.695801,448
847.813782,465
847.931641,473
848.049561,463
848.167603,449
848.285461,444
848.403381,458
848.521362,452
848.639221,465
848.75708,442
848.875,453
848.99292,471
849.110901,472
849.22876,468
849.34668,476
849.464539,464
849.582458,462
849.700317,463
849.818176,492
849.936096,481
850.053955,472
850.171875,461
850.289673,484
850.407593,461
850.525452,483
850.643311,473
850.761169,459
850.878967,455
850.996887,470
851.114746,454
851.232544,464
851.350403,476
851.468262,460
851.58606,464
851.703979,459
851.821777,467
851.939636,454
852.057434,471
852.175232,446
852.293091,457
852.410889,480
852.528687,472
852.646545,475
852.764343,492
852.88208,483
852.999939,461
853.117676,456
853.235535,470
853.353271,474
853.471069,469
853.588928,465
853.706604,457
853.824402,472
853.9422,466
854.059998,466
854.177734,463
854.295532,470
854.413269,477
854.531006,448
854.648804,469
854.766541,443
854.884277,461
855.002014,449
855.119751,463
855.237549,474
855.355225,469
855.473022,456
855.590698,448
855.708435,473
855.826172,469
855.943848,472
856.061646,457
856.179321,467
856.296997,453
856.414795,460
856.53241,459
856.650085,454
856.767822,442
856.885559,467
857.003174,482
857.120911,474
857.238586,471
857.356201,472
857.473938,486
857.591614,488
857.709351,458
857.826965,468
857.944641,482
858.062317,461
858.179993,474
858.297668,460
858.415283,462
858.532959,472
858.650574,470
858.768188,472
858.885803,479
859.003479,470
859.121094,478
859.23877,467
859.356384,465
859.473999,468
859.591675,463
859.709229,476
859.826843,476
859.944458,472
860.062012,450
860.179626,450
860.297302,467
860.414856,474
860.532471,461
860.650024,466
860.767639,463
860.885193,468
861.002808,462
861.120361,473
861.237976,466
861.35553,466
861.473022,447
861.590698,454
861.708191,470
861.825745,466
861.943298,467
862.060852,456
862.178406,470
862.295959,450
862.413513,456
862.531006,459
862.64856,475
862.766113,443
862.883667,482
863.00116,454
863.118713,455
863.236206,470
863.353699,465
863.471252,443
863.588745,466
863.706177,454
863.82373,455
863.941162,450
864.058716,460
864.176208,452
864.29364,446
864.411194,443
864.528687,447
864.646118,456
864.763611,483
864.881042,459
864.998535,451
865.116028,454
865.233459,473
865.350891,464
865.468384,456
865.585754,464
865.703308,470
865.820679,475
865.938171,449
866.055542,456
866.173035,455
866.290466,453
866.407837,473
866.52533,448
866.6427,482
866.760071,477
866.877563,440
866.994934,460
867.112305,469
867.229736,467
867.347107,463
867.464539,462
867.58197,477
867.699341,453
867.81665,475
867.934082,442
868.051453,474
868.168823,474
868.286194,458
868.403564,448
868.520935,483
868.638306,443
868.755676,469
868.872986,466
868.990295,477
869.107727,472
869.225037,454
869.342346,451
869.459717,459
869.577026,463
869.694336,471
869.811707,462
869.929016,462
870.046326,484
870.163635,477
870.280945,487
870.398254,473
870.515564,460
870.632812,492
870.750183,478
870.867432,465
870.984741,494
871.102051,463
871.219299,463
871.336609,466
871.453918,479
871.571106,487
871.688416,481
871.805664,473
871.922852,472
872.040222,484
872.157471,477
872.274719,478
872.391968,465
872.509155,462
872.626465,484
872.743652,468
872.860962,473
872.978149,466
873.095337,474
873.212646,486
873.329834,485
873.44696,476
873.564209,482
873.681396,496
873.798645,466
873.915894,486
874.03302,468
874.150208,468
874.267456,483
874.384583,478
874.501831,505
874.618958,483
874.736145,477
874.853333,464
874.970459,511
875.087646,496
875.204834,487
875.32196,479
875.439148,468
875.556274,461
875.673401,465
875.790527,470
875.907715,465
876.024841,487
876.141968,463
876.259094,467
876.376282,475
876.493347,465
876.610474,466
876.7276,462
876.844727,472
876.961853,459
877.078918,445
877.195984,456
877.313171,473
877.430237,469
877.547302,469
877.664368,486
877.781433,472
877.898499,463
878.015625,452
878.13269,467
878.249695,449
878.366821,471
878.483887,470
878.600952,466
878.717957,462
878.834961,471
878.952087,471
879.069092,458
879.186157,477
879.303162,455
879.420227,464
879.537231,465
879.654236,434
879.77124,452
879.888306,471
880.005249,457
880.122314,452
880.239319,452
880.356323,447
880.473328,471
880.590271,448
880.707275,473
880.824341,446
880.941284,458
881.058228,477
881.175232,452
881.292236,458
881.40918,455
881.526123,456
881.643066,452
881.760071,446
881.877014,466
881.993958,467
882.11084,464
882.227783,478
882.344727,468
882.46167,460
882.578613,470
882.695618,449
882.812439,493
882.929382,448
883.046326,457
883.163208,464
883.280151,459
883.397034,460
883.513916,465
883.630798,468
883.747742,459
883.864563,466
883.981506,463
884.098389,461
884.21521,465
884.332153,448
884.448975,480
884.565796,470
884.682678,479
884.7995,475
884.916443,487
885.033264,479
885.150085,495
885.266968,468
885.383789,475
885.500671,485
885.617493,485
885.734314,491
885.851196,493
885.967896,501
886.084717,483
886.201599,484
886.318359,511
886.435181,491
886.552002,474
886.668762,500
886.785645,486
886.902344,494
887.019165,488
887.135925,474
887.252747,482
887.369446,484
887.486267,478
887.603027,459
887.719788,470
887.836548,474
887.953247,471
888.070068,464
888.186829,464
888.303528,455
888.420288,484
888.536987,448
888.653687,466
888.770447,454
888.887146,473
889.003967,457
889.120667,466
889.237305,470
889.354065,453
889.470703,469
889.587463,455
889.704163,450
889.820862,463
889.937561,467
890.054199,460
890.170837,449
890.287598,455
890.404236,459
890.520874,457
890.637634,463
890.754211,457
890.87085,467
890.987549,466
891.104187,485
891.220886,468
891.337463,464
891.454102,465
891.57074,464
891.687378,469
891.804077,442
891.920654,465
892.037231,446
892.15387,469
892.270447,459
892.387085,465
892.503723,477
892.6203,475
892.736877,460
892.853516,464
892.970032,458
893.08667,450
893.203186,457
893.319763,468
893.43634,467
893.552917,477
893.669556,469
893.786011,463
893.902588,478
894.019165,455
894.135681,469
894.252197,440
894.368835,459
894.485291,478
894.601868,454
894.718384,460
894.8349,454
894.951355,455
895.067932,463
895.184448,451
895.300964,459
895.417419,480
895.533936,444
895.650452,477
895.766907,462
895.883423,466
895.999878,457
896.116333,442
896.232849,451
896.349304,461
896.465759,462
896.582214,445
896.698669,457
896.815125,459
896.931641,456
897.048035,453
897.164551,457
897.280884,463
897.397339,469
897.513794,497
897.630249,474
897.746582,444
897.863098,452
897.979431,467
898.095886,475
898.212341,448
898.328674,460
898.445129,493
898.561462,459
898.677795,461
898.794312,485
898.910645,479
899.026978,469
899.143433,458
899.259766,451
899.37616,472
899.492493,464
899.608765,454
899.725159,475
899.841553,469
899.957947,471
900.07428,477
900.190552,471
900.306946,475
900.423157,471
900.53949,462
900.655884,481
900.772156,470
900.888489,456
901.004822,494
901.121033,473
901.237366,471
901.353699,471
901.46991,465
901.586304,470
901.702515,458
901.818787,483
901.93512,469
902.051331,487
902.167603,487
902.283875,471
902.400085,487
902.516418,471
902.632629,471
902.74884,503
902.865112,484
902.981384,492
903.097595,486
903.213867,480
903.330017,489
903.446289,483
903.5625,472
903.67865,481
903.794922,487
903.911072,493
904.027344,484
904.143494,478
904.259705,475
904.375916,468
904.492065,479
904.608215,464
904.724426,472
904.840576,492
904.956726,463
905.072876,464
905.189087,476
905.305176,491
905.421387,461
905.537537,460
905.653687,465
905.769775,466
905.885925,469
906.002014,470
906.118164,472
906.234314,486
906.350403,463
906.466492,470
906.582642,463
906.69873,502
906.814758,485
906.930908,467
907.046936,483
907.163086,460
907.279175,479
907.395264,469
907.511353,482
907.62738,450
907.743408,472
907.859497,491
907.975525,474
908.091553,467
908.207703,456
908.32373,465
908.439758,464
908.555786,473
908.671814,466
908.787842,469
908.90387,457
909.019775,457
909.135864,481
909.251892,460
909.367859,467
909.483826,474
909.599854,478
909.715881,460
909.831848,455
909.947815,457
910.063782,482
910.179749,468
910.295776,467
910.411743,466
910.527649,469
910.643616,472
910.759583,473
910.875488,473
910.991455,477
911.107361,480
911.223267,480
911.339294,475
911.4552,488
911.571106,452
911.687073,467
911.802979,463
911.918823,461
912.034729,454
912.150635,472
912.266602,472
912.382446,474
912.498352,457
912.614197,460
912.730103,469
912.846008,475
792.44574,669
792.56488,661
792.68396,703
792.80304,674
792.92218,640
793.041199,588
793.160339,629
793.279419,635
793.398499,610
793.517578,600
793.636658,592
793.755737,601
793.874817,616
793.993896,580
794.112976,582
794.232056,583
794.351074,567
794.470215,568
794.589233,602
794.708313,556
794.827393,578
794.946411,563
795.065552,586
795.18457,555
795.303589,567
795.422668,578
795.541687,569
795.660767,563
795.779846,551
795.898865,549
796.017883,544
796.136963,534
796.255981,554
796.375061,562
796.49408,539
796.613037,538
796.732117,541
796.851135,551
796.970154,535
797.089233,528
797.208191,536
797.327271,539
797.446228,528
797.565186,545
797.684265,537
797.803223,523
797.922241,517
798.04126,525
798.160278,536
798.279297,526
798.398315,522
798.517273,547
798.636292,539
798.75531,508
798.874268,525
798.993286,524
799.112244,549
799.231323,516
799.350281,540
799.469238,516
799.588257,525
799.707153,528
799.826111,528
799.945129,498
800.064087,533
800.183044,510
800.302063,525
800.421021,529
800.539978,546
800.658936,520
800.777893,513
800.896912,509
801.015747,535
801.134705,517
801.253723,512
801.37262,517
801.491638,514
801.610535,509
801.729492,513
801.84845,491
801.967407,523
802.086243,525
802.205261,531
802.324158,501
802.443115,519
802.562073,528
802.680969,523
802.799927,508
802.918762,524
803.037659,482
803.156677,497
803.275574,512
803.39447,507
803.513428,503
803.632263,496
803.751221,517
803.870117,522
803.989014,520
804.107971,510
804.226746,512
804.345642,502
804.4646,494
804.583496,522
804.702393,512
804.821228,476
804.940125,512
805.059021,491
805.177917,491
805.296814,514
805.415649,520
805.534546,492
805.653442,499
805.772278,512
805.891113,512
806.01001,490
806.128906,498
806.247742,507
806.366577,515
806.485413,486
806.604309,502
806.723145,508
806.84198,504
806.960876,502
807.079712,506
807.198486,506
807.317383,506
807.436218,504
807.554993,507
807.673889,511
807.792725,507
807.91156,491
808.030396,499
808.14917,484
808.268005,491
808.386841,508
808.505676,516
808.624451,514
808.743286,485
808.862122,498
808.980896,510
809.099731,496
809.218506,488
809.337341,495
809.456116,515
809.57489,503
809.693726,494
809.8125,507
809.931274,502
810.050049,485
810.168884,490
810.287659,475
810.406372,512
810.525269,517
810.643982,498
810.762756,494
810.881531,519
811.000305,502
811.11908,479
811.237854,494
811.356567,499
811.475403,507
811.594116,492
811.71283,492
811.831604,492
811.950378,477
812.069153,521
812.187927,511
812.30658,511
812.425415,496
812.544128,495
812.662781,504
812.781616,490
812.900269,492
813.019043,499
813.137756,480
813.256531,513
813.375244,479
813.493896,503
813.612671,486
813.731384,469
813.850037,488
813.96875,494
814.087524,509
814.206238,472
814.324951,509
814.443604,479
814.562256,503
814.68103,504
814.799683,493
814.918335,469
815.037109,479
815.155762,469
815.274475,482
815.393188,508
815.511841,471
815.630554,482
815.749146,506
815.867859,503
815.986572,480
816.105164,477
816.223877,477
816.342529,499
816.461182,488
816.579895,489
816.698486,496
816.817139,490
816.935791,477
817.054504,488
817.173096,500
817.291748,482
817.4104,493
817.529053,479
817.647644,508
817.766235,492
817.884949,500
818.00354,494
818.122192,489
818.240845,472
818.359436,475
818.478088,469
818.59668,509
818.715271,473
818.833923,467
818.952515,477
819.071106,459
819.189758,479
819.30835,475
819.426941,473
819.545532,467
819.664124,476
819.782715,468
819.901306,464
820.019897,471
820.138489,451
820.25708,479
820.375671,481
820.494202,454
820.612732,478
820.731384,468
820.849915,486
820.968506,476
821.087097,466
821.205627,481
821.324158,464
821.442749,455
821.561279,473
821.679871,482
821.798401,457
821.916931,463
822.035461,454
822.154053,475
822.272583,475
822.391174,459
822.509583,480
822.628174,471
822.746704,477
822.865234,494
822.983765,446
823.102295,458
823.220825,455
823.339294,467
823.457825,459
823.576355,465
823.694824,449
823.813354,480
823.931885,466
824.050354,452
824.168884,469
824.287354,453
824.405823,465
824.524353,479
824.642822,464
824.761353,471
824.879822,457
824.998291,453
825.116699,484
825.235291,465
825.353699,448
825.472168,464
825.590637,472
825.709106,476
825.827576,475
825.946045,438
826.064453,484
826.182983,463
826.301392,473
826.4198,478
826.53833,458
826.656738,461
826.775208,454
826.893677,474
827.012024,453
827.130493,471
827.248962,469
827.36731,460
827.485779,474
827.604248,456
827.722595,453
827.841064,454
827.959412,443
828.077942,448
828.196289,470
828.314636,468
828.433105,450
828.551514,451
828.669861,455
828.78833,463
828.906677,470
829.025085,460
829.143433,457
829.261841,467
829.38031,462
829.498657,471
829.617004,446
829.735413,457
829.85376,460
829.972107,452
830.090515,472
830.208862,448
830.327209,466
830.445557,448
830.563904,449
830.682312,446
830.800659,437
830.919006,456
831.037354,474
831.155701,458
831.274048,450
831.392395,461
831.51062,473
831.629028,464
831.747314,456
831.865662,454
831.984009,458
832.102356,464
832.220642,464
832.338928,470
832.457275,458
832.575623,459
832.693909,457
832.812134,456
832.930481,450
833.048828,460
833.167114,475
833.2854,468
833.403687,470
833.521973,469
833.640259,462
833.758545,466
833.876831,440
833.995056,452
834.113281,439
834.231628,474
834.349915,453
834.468201,467
834.586426,449
834.704651,452
834.822998,439
834.941162,463
835.059448,455
835.177673,463
835.295959,447
835.414246,441
835.53241,463
835.650635,468
835.768921,448
835.887146,458
836.005371,435
836.123596,443
836.241821,452
836.360046,465
836.478271,471
836.596497,452
836.714722,459
836.832886,471
836.95105,461
837.069336,461
837.1875,461
837.305725,453
837.423889,442
837.542053,473
837.660339,442
837.778503,437
837.896667,450
838.014832,464
838.132996,457
838.25116,449
838.369385,472
838.487488,465
838.605713,459
838.723877,462
838.84198,468
838.960205,470
839.078308,460
839.196472,468
839.314636,450
839.4328,473
839.550964,458
839.669067,480
839.787231,461
839.905396,447
840.023499,474
840.141602,447
840.259766,448
840.377869,474
840.495972,456
840.614136,445
840.732239,463
840.850342,456
840.968445,458
841.086548,462
841.204651,470
841.322754,491
841.440918,465
841.55896,467
841.677002,460
841.795166,453
841.913208,473
842.031311,454
842.149353,480
842.267456,481
842.385498,444
842.503601,461
842.621643,469
842.739746,455
842.857788,462
842.97583,478
843.093933,464
843.211975,459
843.330017,473
843.44812,473
843.566101,480
843.684204,462
843.802246,471
843.920227,472
844.038269,474
844.156311,453
844.274292,463
844.392395,453
844.510376,445
844.628357,457
844.74646,470
844.864441,466
844.982422,468
845.100403,457
845.218384,453
845.336426,467
845.454468,476
845.572449,480
845.69043,444
845.808411,462
845.926453,485
846.044373,469
846.162354,453
846.280396,450
846.398315,463
846.516296,465
846.634216,457
846.752197,463
846.870178,427
846.988098,454
847.106079,463
847.22406,473
847.34198,445
847.4599,463
847.577881,452
847.695801,464
847.813782,467
847.931641,476
848.049561,455
848.167603,466
848.285461,455
848.403381,487
848.521362,450
848.639221,481
848.75708,457
848.875,469
848.99292,451
849.110901,473
849.22876,463
849.34668,472
849.464539,478
849.582458,481
849.700317,449
849.818176,462
849.936096,451
850.053955,468
850.171875,445
850.289673,464
850.407593,472
850.525452,479
850.643311,453
850.761169,475
850.878967,457
850.996887,474
851.114746,463
851.232544,446
851.350403,473
851.468262,461
851.58606,443
851.703979,459
851.821777,471
851.939636,457
852.057434,460
852.175232,449
852.293091,459
852.410889,454
852.528687,466
852.646545,492
852.764343,452
852.88208,448
852.999939,470
853.117676,455
853.235535,473
853.353271,469
853.471069,466
853.588928,469
853.706604,472
853.824402,459
853.9422,468
854.059998,458
854.177734,468
854.295532,476
854.413269,446
854.531006,474
854.648804,464
854.766541,439
854.884277,455
855.002014,453
855.119751,466
855.237549,458
855.355225,461
855.473022,454
855.590698,458
855.708435,452
855.826172,457
855.943848,464
856.061646,470
856.179321,462
856.296997,457
856.414795,482
856.53241,459
856.650085,454
856.767822,487
856.885559,479
857.003174,473
857.120911,472
857.238586,464
857.356201,475
857.473938,476
857.591614,464
857.709351,483
857.826965,468
857.944641,475
858.062317,482
858.179993,475
858.297668,470
858.415283,472
858.532959,470
858.650574,454
858.768188,470
858.885803,462
859.003479,477
859.121094,452
859.23877,446
859.356384,481
859.473999,464
859.591675,451
859.709229,479
859.826843,467
859.944458,484
860.062012,457
860.179626,467
860.297302,467
860.414856,485
860.532471,473
860.650024,455
860.767639,447
860.885193,458
861.002808,451
861.120361,450
861.237976,450
861.35553,466
861.473022,442
861.590698,459
861.708191,451
861.825745,459
861.943298,458
862.060852,456
862.178406,458
862.295959,452
862.413513,455
862.531006,462
862.64856,464
862.766113,458
862.883667,458
863.00116,461
863.118713,462
863.236206,471
863.353699,452
863.471252,468
863.588745,478
863.706177,484
863.82373,465
863.941162,463
864.058716,460
864.176208,450
864.29364,443
864.411194,465
864.528687,460
864.646118,460
864.763611,470
864.881042,481
864.998535,463
865.116028,458
865.233459,454
865.350891,454
865.468384,469
865.585754,456
865.703308,455
865.820679,460
865.938171,460
866.055542,472
866.173035,456
866.290466,457
866.407837,448
866.52533,457
866.6427,482
866.760071,479
866.877563,455
866.994934,452
867.112305,470
867.229736,449
867.347107,451
867.464539,459
867.58197,452
867.699341,473
867.81665,461
867.934082,459
868.051453,444
868.168823,457
868.286194,440
868.403564,455
868.520935,480
868.638306,444
868.755676,465
868.872986,457
868.990295,454
869.107727,469
869.225037,481
869.342346,456
869.459717,452
869.577026,478
869.694336,469
869.811707,475
869.929016,474
870.046326,463
870.163635,479
870.280945,473
870.398254,463
870.515564,472
870.632812,465
870.750183,472
870.867432,468
870.984741,475
871.102051,466
871.219299,450
871.336609,484
871.453918,459
871.571106,461
871.688416,482
871.805664,474
871.922852,468
872.040222,462
872.157471,473
872.274719,482
872.391968,486
872.509155,472
872.626465,478
872.743652,482
872.860962,479
872.978149,472
873.095337,487
873.212646,482
873.329834,476
873.44696,470
873.564209,462
873.681396,470
873.798645,488
873.915894,482
874.03302,479
874.150208,475
874.267456,473
874.384583,470
874.501831,463
874.618958,491
874.736145,471
874.853333,483
874.970459,494
875.087646,464
875.204834,466
875.32196,471
875.439148,473
875.556274,480
875.673401,472
875.790527,452
875.907715,472
876.024841,480
876.141968,469
876.259094,446
876.376282,460
876.493347,467
876.610474,466
876.7276,451
876.844727,469
876.961853,466
877.078918,451
877.195984,491
877.313171,467
877.430237,462
877.547302,474
877.664368,455
877.781433,479
877.898499,449
878.015625,460
878.13269,466
878.249695,481
878.366821,449
878.483887,494
878.600952,464
878.717957,457
878.834961,458
878.952087,458
879.069092,478
879.186157,466
879.303162,454
879.420227,462
879.537231,452
879.654236,462
879.77124,452
879.888306,475
880.005249,459
880.122314,460
880.239319,445
880.356323,454
880.473328,460
880.590271,464
880.707275,451
880.824341,468
880.941284,469
881.058228,467
881.175232,449
881.292236,458
881.40918,470
881.526123,466
881.643066,453
881.760071,455
881.877014,454
881.993958,464
882.11084,457
882.227783,470
882.344727,460
882.46167,467
882.578613,454
882.695618,461
882.812439,449
882.929382,477
883.046326,463
883.163208,472
883.280151,440
883.397034,457
883.513916,450
883.630798,470
883.747742,459
883.864563,466
883.981506,464
884.098389,465
884.21521,453
884.332153,475
884.448975,491
884.565796,464
884.682678,455
884.7995,486
884.916443,483
885.033264,488
885.150085,487
885.266968,512
885.383789,487
885.500671,496
885.617493,491
885.734314,504
885.851196,497
885.967896,490
886.084717,503
886.201599,519
886.318359,484
886.435181,480
886.552002,492
886.668762,490
886.785645,500
886.902344,484
887.019165,469
887.135925,465
887.252747,482
887.369446,494
887.486267,475
887.603027,445
887.719788,463
887.836548,487
887.953247,462
888.070068,462
888.186829,479
888.303528,463
888.420288,468
888.536987,462
888.653687,461
888.770447,472
888.887146,471
889.003967,457
889.120667,445
889.237305,452
889.354065,463
889.470703,464
889.587463,462
889.704163,461
889.820862,454
889.937561,438
890.054199,457
890.170837,471
890.287598,443
890.404236,467
890.520874,468
890.637634,465
890.754211,462
890.87085,458
890.987549,463
891.104187,480
891.220886,476
891.337463,486
891.454102,457
891.57074,463
891.687378,470
891.804077,471
891.920654,453
892.037231,466
892.15387,476
892.270447,464
892.387085,473
892.503723,460
892.6203,454
892.736877,469
892.853516,447
892.970032,481
893.08667,454
893.203186,459
893.319763,442
893.43634,480
893.552917,457
893.669556,446
893.786011,472
893.902588,470
894.019165,455
894.135681,475
894.252197,453
894.368835,476
894.485291,456
894.601868,453
894.718384,458
894.8349,476
894.951355,460
895.067932,456
895.184448,460
895.300964,483
895.417419,453
895.533936,456
895.650452,444
895.766907,446
895.883423,471
895.999878,478
896.116333,450
896.232849,482
896.349304,451
896.465759,463
896.582214,474
896.698669,446
896.815125,467
896.931641,469
897.048035,476
897.164551,475
897.280884,457
897.397339,473
897.513794,469
897.630249,470
897.746582,454
897.863098,451
897.979431,465
898.095886,463
898.212341,460
898.328674,464
898.445129,468
898.561462,474
898.677795,456
898.794312,466
898.910645,469
899.026978,466
899.143433,465
899.259766,469
899.37616,461
899.492493,481
899.608765,465
899.725159,485
899.841553,473
899.957947,482
900.07428,446
900.190552,458
900.306946,462
900.423157,461
900.53949,480
900.655884,449
900.772156,465
900.888489,472
901.004822,454
901.121033,459
901.237366,459
901.353699,488
901.46991,456
901.586304,460
901.702515,439
901.818787,468
901.93512,483
902.051331,471
902.167603,488
902.283875,490
902.400085,480
902.516418,480
902.632629,484
902.74884,496
902.865112,497
902.981384,477
903.097595,489
903.213867,501
903.330017,471
903.446289,477
903.5625,492
903.67865,484
903.794922,492
903.911072,505
904.027344,481
904.143494,480
904.259705,480
904.375916,494
904.492065,463
904.608215,483
904.724426,480
904.840576,478
904.956726,458
905.072876,476
905.189087,475
905.305176,471
905.421387,454
905.537537,485
905.653687,449
905.769775,472
905.885925,473
906.002014,484
906.118164,470
906.234314,477
906.350403,472
906.466492,483
906.582642,474
906.69873,479
906.814758,463
906.930908,477
907.046936,460
907.163086,474
907.279175,484
907.395264,482
907.511353,465
907.62738,471
907.743408,460
907.859497,478
907.975525,453
908.091553,458
908.207703,465
908.32373,475
908.439758,456
908.555786,480
908.671814,472
908.787842,474
908.90387,473
909.019775,475
909.135864,459
909.251892,492
909.367859,455
909.483826,479
909.599854,468
909.715881,482
909.831848,469
909.947815,483
910.063782,474
910.179749,495
910.295776,465
910.411743,470
910.527649,460
910.643616,480
910.759583,473
910.875488,465
910.991455,459
911.107361,470
911.223267,472
911.339294,472
911.4552,466
911.571106,479
911.687073,462
911.802979,485
911.918823,462
912.034729,477
912.150635,466
912.266602,471
912.382446,456
912.498352,456
912.614197,457
912.730103,479
912.846008,469
