792.44574,507
792.56488,565
792.68396,582
792.80304,567
792.92218,543
793.041199,503
793.160339,495
793.279419,538
793.398499,500
793.517578,504
793.636658,499
793.755737,509
793.874817,538
793.993896,504
794.112976,511
794.232056,508
794.351074,493
794.470215,495
794.589233,495
794.708313,512
794.827393,478
794.946411,475
795.065552,499
795.18457,496
795.303589,487
795.422668,487
795.541687,489
795.660767,518
795.779846,499
795.898865,495
796.017883,482
796.136963,481
796.255981,496
796.375061,493
796.49408,476
796.613037,494
796.732117,498
796.851135,515
796.970154,487
797.089233,497
797.208191,487
797.327271,483
797.446228,505
797.565186,481
797.684265,474
797.803223,493
797.922241,482
798.04126,488
798.160278,493
798.279297,484
798.398315,465
798.517273,479
798.636292,465
798.75531,490
798.874268,485
798.993286,490
799.112244,468
799.231323,488
799.350281,483
799.469238,485
799.588257,474
799.707153,466
799.826111,496
799.945129,498
800.064087,487
800.183044,480
800.302063,460
800.421021,485
800.539978,483
800.658936,486
800.777893,471
800.896912,490
801.015747,491
801.134705,467
801.253723,478
801.37262,501
801.491638,451
801.610535,476
801.729492,489
801.84845,490
801.967407,463
802.086243,480
802.205261,475
802.324158,481
802.443115,476
802.562073,482
802.680969,457
802.799927,480
802.918762,481
803.037659,497
803.156677,461
803.275574,486
803.39447,467
803.513428,469
803.632263,477
803.751221,471
803.870117,476
803.989014,493
804.107971,471
804.226746,479
804.345642,484
804.4646,499
804.583496,472
804.702393,487
804.821228,485
804.940125,484
805.059021,465
805.177917,478
805.296814,474
805.415649,488
805.534546,480
805.653442,478
805.772278,488
805.891113,483
806.01001,460
806.128906,498
806.247742,472
806.366577,484
806.485413,483
806.604309,477
806.723145,466
806.84198,482
806.960876,457
807.079712,487
807.198486,487
807.317383,494
807.436218,481
807.554993,480
807.673889,469
807.792725,491
807.91156,465
808.030396,476
808.14917,480
808.268005,468
808.386841,463
808.505676,465
808.624451,471
808.743286,478
808.862122,479
808.980896,494
809.099731,492
809.218506,478
809.337341,483
809.456116,461
809.57489,484
809.693726,472
809.8125,503
809.931274,478
810.050049,492
810.168884,472
810.287659,482
810.406372,485
810.525269,466
810.643982,469
810.762756,482
810.881531,483
811.000305,484
811.11908,468
811.237854,465
811.356567,475
811.475403,469
811.594116,480
811.71283,474
811.831604,487
811.950378,479
812.069153,474
812.187927,497
812.30658,488
812.425415,496
812.544128,494
812.662781,472
812.781616,467
812.900269,486
813.019043,499
813.137756,481
813.256531,475
813.375244,476
813.493896,483
813.612671,482
813.731384,474
813.850037,472
813.96875,495
814.087524,479
814.206238,495
814.324951,468
814.443604,461
814.562256,480
814.68103,494
814.799683,473
814.918335,489
815.037109,474
815.155762,460
815.274475,483
815.393188,454
815.511841,451
815.630554,463
815.749146,470
815.867859,476
815.986572,460
816.105164,469
816.223877,469
816.342529,458
816.461182,480
816.579895,466
816.698486,481
816.817139,483
816.935791,446
817.054504,467
817.173096,470
817.291748,485
817.4104,459
817.529053,473
817.647644,466
817.766235,461
817.884949,452
818.00354,480
818.122192,478
818.240845,470
818.359436,453
818.478088,464
818.59668,470
818.715271,461
818.833923,457
818.952515,451
819.071106,453
819.189758,451
819.30835,466
819.426941,450
819.545532,450
819.664124,474
819.782715,445
819.901306,449
820.019897,479
820.138489,480
820.25708,449
820.375671,452
820.494202,466
820.612732,460
820.731384,450
820.849915,452
820.968506,450
821.087097,454
821.205627,454
821.324158,454
821.442749,474
821.561279,467
821.679871,452
821.798401,458
821.916931,449
822.035461,459
822.154053,446
822.272583,439
822.391174,457
822.509583,452
822.628174,451
822.746704,452
822.865234,476
822.983765,460
823.102295,468
823.220825,445
823.339294,456
823.457825,440
823.576355,443
823.694824,434
823.813354,440
823.931885,462
824.050354,440
824.168884,453
824.287354,458
824.405823,456
824.524353,450
824.642822,470
824.761353,472
824.879822,443
824.998291,444
825.116699,449
825.235291,462
825.353699,478
825.472168,452
825.590637,456
825.709106,475
825.827576,446
825.946045,445
826.064453,459
826.182983,446
826.301392,457
826.4198,455
826.53833,452
826.656738,446
826.775208,455
826.893677,448
827.012024,441
827.130493,452
827.248962,438
827.36731,453
827.485779,463
827.604248,429
827.722595,444
827.841064,442
827.959412,449
828.077942,442
828.196289,437
828.314636,449
828.433105,451
828.551514,451
828.669861,448
828.78833,460
828.906677,447
829.025085,441
829.143433,436
829.261841,443
829.38031,430
829.498657,463
829.617004,451
829.735413,441
829.85376,437
829.972107,446
830.090515,445
830.208862,446
830.327209,448
830.445557,446
830.563904,446
830.682312,441
830.800659,454
830.919006,461
831.037354,446
831.155701,446
831.274048,468
831.392395,433
831.51062,441
831.629028,451
831.747314,447
831.865662,434
831.984009,448
832.102356,442
832.220642,456
832.338928,425
832.457275,437
832.575623,473
832.693909,443
832.812134,467
832.930481,455
833.048828,434
833.167114,454
833.2854,439
833.403687,455
833.521973,451
833.640259,449
833.758545,440
833.876831,453
833.995056,454
834.113281,439
834.231628,445
834.349915,443
834.468201,426
834.586426,446
834.704651,436
834.822998,441
834.941162,453
835.059448,453
835.177673,475
835.295959,437
835.414246,457
835.53241,448
835.650635,434
835.768921,444
835.887146,434
836.005371,437
836.123596,448
836.241821,456
836.360046,431
836.478271,438
836.596497,453
836.714722,458
836.832886,446
836.95105,437
837.069336,439
837.1875,454
837.305725,437
837.423889,449
837.542053,442
837.660339,431
837.778503,456
837.896667,443
838.014832,452
838.132996,454
838.25116,440
838.369385,451
838.487488,448
838.605713,440
838.723877,447
838.84198,435
838.960205,450
839.078308,442
839.196472,448
839.314636,447
839.4328,457
839.550964,452
839.669067,465
839.787231,456
839.905396,415
840.023499,464
840.141602,440
840.259766,443
840.377869,428
840.495972,451
840.614136,430
840.732239,459
840.850342,452
840.968445,446
841.086548,454
841.204651,466
841.322754,440
841.440918,445
841.55896,460
841.677002,442
841.795166,439
841.913208,430
842.031311,441
842.149353,457
842.267456,437
842.385498,442
842.503601,451
842.621643,436
842.739746,446
842.857788,440
842.97583,444
843.093933,465
843.211975,433
843.330017,464
843.44812,440
843.566101,447
843.684204,434
843.802246,437
843.920227,451
844.038269,466
844.156311,430
844.274292,434
844.392395,446
844.510376,449
844.628357,453
844.74646,452
844.864441,456
844.982422,434
845.100403,446
845.218384,437
845.336426,439
845.454468,449
845.572449,437
845.69043,447
845.808411,461
845.926453,446
846.044373,415
846.162354,445
846.280396,429
846.398315,452
846.516296,430
846.634216,444
846.752197,441
846.870178,439
846.988098,437
847.106079,442
847.22406,439
847.34198,447
847.4599,435
847.577881,453
847.695801,444
847.813782,440
847.931641,449
848.049561,446
848.167603,418
848.285461,443
848.403381,420
848.521362,433
848.639221,454
848.75708,442
848.875,432
848.99292,456
849.110901,440
849.22876,447
849.34668,449
849.464539,445
849.582458,424
849.700317,448
849.818176,432
849.936096,444
850.053955,441
850.171875,449
850.289673,444
850.407593,438
850.525452,423
850.643311,429
850.761169,434
850.878967,453
850.996887,433
851.114746,440
851.232544,438
851.350403,446
851.468262,450
851.58606,426
851.703979,458
851.821777,446
851.939636,451
852.057434,438
852.175232,444
852.293091,445
852.410889,432
852.528687,464
852.646545,433
852.764343,459
852.88208,458
852.999939,453
853.117676,449
853.235535,454
853.353271,422
853.471069,446
853.588928,436
853.706604,449
853.824402,438
853.9422,443
854.059998,443
854.177734,460
854.295532,437
854.413269,444
854.531006,439
854.648804,439
854.766541,446
854.884277,457
855.002014,451
855.119751,454
855.237549,451
855.355225,467
855.473022,431
855.590698,432
855.708435,441
855.826172,429
855.943848,448
856.061646,437
856.179321,462
856.296997,444
856.414795,446
856.53241,446
856.650085,442
856.767822,441
856.885559,432
857.003174,449
857.120911,444
857.238586,450
857.356201,447
857.473938,451
857.591614,441
857.709351,453
857.826965,430
857.944641,460
858.062317,432
858.179993,434
858.297668,441
858.415283,471
858.532959,442
858.650574,451
858.768188,435
858.885803,461
859.003479,430
859.121094,459
859.23877,453
859.356384,440
859.473999,447
859.591675,449
859.709229,430
859.826843,448
859.944458,437
860.062012,435
860.179626,449
860.297302,428
860.414856,441
860.532471,456
860.650024,438
860.767639,453
860.885193,450
861.002808,434
861.120361,441
861.237976,428
861.35553,435
861.473022,453
861.590698,452
861.708191,451
861.825745,443
861.943298,456
862.060852,444
862.178406,443
862.295959,448
862.413513,443
862.531006,411
862.64856,433
862.766113,449
862.883667,453
863.00116,421
863.118713,444
863.236206,432
863.353699,453
863.471252,421
863.588745,462
863.706177,457
863.82373,438
863.941162,442
864.058716,443
864.176208,452
864.29364,440
864.411194,446
864.528687,458
864.646118,448
864.763611,454
864.881042,445
864.998535,450
865.116028,451
865.233459,449
865.350891,434
865.468384,448
865.585754,437
865.703308,444
865.820679,419
865.938171,429
866.055542,463
866.173035,458
866.290466,456
866.407837,448
866.52533,445
866.6427,451
866.760071,440
866.877563,444
866.994934,445
867.112305,459
867.229736,454
867.347107,461
867.464539,434
867.58197,452
867.699341,439
867.81665,438
867.934082,450
868.051453,440
868.168823,414
868.286194,445
868.403564,450
868.520935,448
868.638306,431
868.755676,446
868.872986,453
868.990295,461
869.107727,462
869.225037,461
869.342346,444
869.459717,463
869.577026,437
869.694336,423
869.811707,443
869.929016,463
870.046326,437
870.163635,459
870.280945,454
870.398254,454
870.515564,437
870.632812,446
870.750183,443
870.867432,442
870.984741,434
871.102051,450
871.219299,436
871.336609,450
871.453918,448
871.571106,475
871.688416,445
871.805664,432
871.922852,449
872.040222,447
872.157471,453
872.274719,437
872.391968,458
872.509155,443
872.626465,448
872.743652,456
872.860962,449
872.978149,445
873.095337,461
873.212646,447
873.329834,432
873.44696,452
873.564209,444
873.681396,448
873.798645,439
873.915894,441
874.03302,431
874.150208,454
874.267456,439
874.384583,443
874.501831,460
874.618958,441
874.736145,448
874.853333,459
874.970459,458
875.087646,456
875.204834,449
875.32196,451
875.439148,438
875.556274,446
875.673401,443
875.790527,424
875.907715,441
876.024841,431
876.141968,463
876.259094,454
876.376282,444
876.493347,444
876.610474,442
876.7276,455
876.844727,443
876.961853,447
877.078918,437
877.195984,456
877.313171,425
877.430237,447
877.547302,445
877.664368,459
877.781433,449
877.898499,460
878.015625,463
878.13269,453
878.249695,464
878.366821,452
878.483887,458
878.600952,465
878.717957,451
878.834961,461
878.952087,454
879.069092,453
879.186157,449
879.303162,477
879.420227,458
879.537231,454
879.654236,442
879.77124,467
879.888306,448
880.005249,463
880.122314,439
880.239319,453
880.356323,467
880.473328,449
880.590271,450
880.707275,469
880.824341,451
880.941284,444
881.058228,443
881.175232,458
881.292236,443
881.40918,432
881.526123,453
881.643066,422
881.760071,423
881.877014,448
881.993958,436
882.11084,457
882.227783,436
882.344727,449
882.46167,448
882.578613,452
882.695618,433
882.812439,440
882.929382,444
883.046326,465
883.163208,444
883.280151,475
883.397034,449
883.513916,448
883.630798,435
883.747742,443
883.864563,450
883.981506,456
884.098389,458
884.21521,436
884.332153,462
884.448975,462
884.565796,435
884.682678,439
884.7995,459
884.916443,456
885.033264,448
885.150085,463
885.266968,461
885.383789,461
885.500671,456
885.617493,451
885.734314,462
885.851196,463
885.967896,474
886.084717,457
886.201599,462
886.318359,443
886.435181,463
886.552002,465
886.668762,469
886.785645,469
886.902344,470
887.019165,436
887.135925,456
887.252747,449
887.369446,445
887.486267,475
887.603027,442
887.719788,450
887.836548,469
887.953247,447
888.070068,442
888.186829,460
888.303528,436
888.420288,441
888.536987,454
888.653687,452
888.770447,456
888.887146,466
889.003967,438
889.120667,467
889.237305,449
889.354065,457
889.470703,459
889.587463,446
889.704163,447
889.820862,458
889.937561,442
890.054199,454
890.170837,448
890.287598,472
890.404236,446
890.520874,463
890.637634,452
890.754211,451
890.87085,457
890.987549,447
891.104187,442
891.220886,467
891.337463,451
891.454102,450
891.57074,453
891.687378,458
891.804077,461
891.920654,460
892.037231,455
892.15387,452
892.270447,474
892.387085,476
892.503723,440
892.6203,460
892.736877,456
892.853516,441
892.970032,444
893.08667,453
893.203186,467
893.319763,474
893.43634,446
893.552917,477
893.669556,455
893.786011,451
893.902588,449
894.019165,461
894.135681,468
894.252197,451
894.368835,459
894.485291,454
894.601868,455
894.718384,468
894.8349,454
894.951355,464
895.067932,469
895.184448,451
895.300964,446
895.417419,454
895.533936,443
895.650452,456
895.766907,440
895.883423,462
895.999878,442
896.116333,468
896.232849,442
896.349304,451
896.465759,454
896.582214,455
896.698669,469
896.815125,446
896.931641,456
897.048035,468
897.164551,435
897.280884,460
897.397339,473
897.513794,458
897.630249,461
897.746582,451
897.863098,445
897.979431,460
898.095886,448
898.212341,440
898.328674,469
898.445129,450
898.561462,477
898.677795,449
898.794312,466
898.910645,466
899.026978,454
899.143433,462
899.259766,459
899.37616,455
899.492493,475
899.608765,445
899.725159,456
899.841553,445
899.957947,460
900.07428,467
900.190552,457
900.306946,461
900.423157,468
900.53949,460
900.655884,442
900.772156,467
900.888489,457
901.004822,454
901.121033,468
901.237366,479
901.353699,457
901.46991,436
901.586304,465
901.702515,450
901.818787,458
901.93512,469
902.051331,458
902.167603,457
902.283875,472
902.400085,450
902.516418,465
902.632629,466
902.74884,453
902.865112,488
902.981384,465
903.097595,489
903.213867,461
903.330017,467
903.446289,448
903.5625,456
903.67865,461
903.794922,459
903.911072,453
904.027344,473
904.143494,461
904.259705,478
904.375916,461
904.492065,451
904.608215,465
904.724426,463
904.840576,446
904.956726,443
905.072876,460
905.189087,460
905.305176,469
905.421387,463
905.537537,465
905.653687,449
905.769775,455
905.885925,466
906.002014,453
906.118164,457
906.234314,447
906.350403,456
906.466492,457
906.582642,459
906.69873,470
906.814758,443
906.930908,459
907.046936,455
907.163086,466
907.279175,465
907.395264,458
907.511353,464
907.62738,472
907.743408,466
907.859497,445
907.975525,465
908.091553,454
908.207703,465
908.32373,474
908.439758,467
908.555786,448
908.671814,445
908.787842,467
908.90387,481
909.019775,461
909.135864,457
909.251892,453
909.367859,462
909.483826,479
909.599854,451
909.715881,447
909.831848,470
909.947815,470
910.063782,461
910.179749,453
910.295776,450
910.411743,443
910.527649,454
910.643616,459
910.759583,465
910.875488,453
910.991455,443
911.107361,454
911.223267,465
911.339294,460
911.4552,461
911.571106,457
911.687073,462
911.802979,464
911.918823,452
912.034729,462
912.150635,439
912.266602,482
912.382446,452
912.498352,476
912.614197,456
912.730103,464
912.846008,470
792.44574,514
792.56488,546
792.68396,603
792.80304,577
792.92218,505
793.041199,505
793.160339,513
793.279419,518
793.398499,511
793.517578,501
793.636658,512
793.755737,516
793.874817,517
793.993896,508
794.112976,497
794.232056,512
794.351074,520
794.470215,505
794.589233,480
794.708313,520
794.827393,506
794.946411,501
795.065552,486
795.18457,515
795.303589,498
795.422668,500
795.541687,502
795.660767,481
795.779846,500
795.898865,489
796.017883,478
796.136963,492
796.255981,490
796.375061,480
796.49408,513
796.613037,509
796.732117,485
796.851135,487
796.970154,502
797.089233,474
797.208191,494
797.327271,492
797.446228,480
797.565186,491
797.684265,498
797.803223,479
797.922241,477
798.04126,504
798.160278,488
798.279297,492
798.398315,509
798.517273,499
798.636292,489
798.75531,479
798.874268,484
798.993286,476
799.112244,498
799.231323,511
799.350281,481
799.469238,480
799.588257,505
799.707153,459
799.826111,490
799.945129,505
800.064087,495
800.183044,496
800.302063,486
800.421021,491
800.539978,477
800.658936,491
800.777893,481
800.896912,490
801.015747,493
801.134705,484
801.253723,472
801.37262,477
801.491638,458
801.610535,490
801.729492,485
801.84845,499
801.967407,482
802.086243,469
802.205261,493
802.324158,488
802.443115,482
802.562073,499
802.680969,487
802.799927,498
802.918762,492
803.037659,484
803.156677,480
803.275574,497
803.39447,484
803.513428,473
803.632263,510
803.751221,480
803.870117,480
803.989014,501
804.107971,478
804.226746,482
804.345642,459
804.4646,466
804.583496,487
804.702393,498
804.821228,487
804.940125,489
805.059021,486
805.177917,471
805.296814,480
805.415649,480
805.534546,477
805.653442,485
805.772278,495
805.891113,483
806.01001,497
806.128906,490
806.247742,475
806.366577,470
806.485413,468
806.604309,485
806.723145,502
806.84198,481
806.960876,456
807.079712,478
807.198486,467
807.317383,465
807.436218,473
807.554993,476
807.673889,476
807.792725,473
807.91156,482
808.030396,470
808.14917,477
808.268005,473
808.386841,488
808.505676,474
808.624451,462
808.743286,466
808.862122,471
808.980896,474
809.099731,481
809.218506,487
809.337341,457
809.456116,487
809.57489,493
809.693726,490
809.8125,478
809.931274,487
810.050049,467
810.168884,470
810.287659,484
810.406372,480
810.525269,477
810.643982,486
810.762756,479
810.881531,465
811.000305,488
811.11908,470
811.237854,486
811.356567,487
811.475403,482
811.594116,475
811.71283,474
811.831604,480
811.950378,473
812.069153,482
812.187927,486
812.30658,461
812.425415,493
812.544128,503
812.662781,481
812.781616,502
812.900269,480
813.019043,475
813.137756,486
813.256531,491
813.375244,482
813.493896,479
813.612671,471
813.731384,471
813.850037,480
813.96875,490
814.087524,475
814.206238,492
814.324951,473
814.443604,458
814.562256,476
814.68103,494
814.799683,474
814.918335,480
815.037109,496
815.155762,486
815.274475,461
815.393188,486
815.511841,483
815.630554,461
815.749146,454
815.867859,487
815.986572,479
816.105164,474
816.223877,481
816.342529,472
816.461182,476
816.579895,471
816.698486,481
816.817139,468
816.935791,487
817.054504,485
817.173096,497
817.291748,454
817.4104,454
817.529053,475
817.647644,477
817.766235,460
817.884949,466
818.00354,505
818.122192,471
818.240845,456
818.359436,463
818.478088,447
818.59668,464
818.715271,474
818.833923,441
818.952515,465
819.071106,458
819.189758,458
819.30835,477
819.426941,454
819.545532,442
819.664124,465
819.782715,448
819.901306,462
820.019897,455
820.138489,439
820.25708,471
820.375671,448
820.494202,477
820.612732,459
820.731384,455
820.849915,469
820.968506,469
821.087097,477
821.205627,469
821.324158,447
821.442749,465
821.561279,458
821.679871,451
821.798401,452
821.916931,457
822.035461,453
822.154053,439
822.272583,460
822.391174,460
822.509583,449
822.628174,449
822.746704,452
822.865234,471
822.983765,457
823.102295,465
823.220825,460
823.339294,466
823.457825,451
823.576355,440
823.694824,460
823.813354,452
823.931885,444
824.050354,460
824.168884,463
824.287354,457
824.405823,445
824.524353,450
824.642822,446
824.761353,457
824.879822,456
824.998291,440
825.116699,464
825.235291,448
825.353699,460
825.472168,467
825.590637,461
825.709106,443
825.827576,459
825.946045,461
826.064453,446
826.182983,440
826.301392,457
826.4198,462
826.53833,454
826.656738,468
826.775208,443
826.893677,466
827.012024,458
827.130493,444
827.248962,449
827.36731,456
827.485779,461
827.604248,453
827.722595,450
827.841064,466
827.959412,454
828.077942,448
828.196289,459
828.314636,480
828.433105,469
828.551514,449
828.669861,447
828.78833,459
828.906677,447
829.025085,452
829.143433,456
829.261841,445
829.38031,454
829.498657,450
829.617004,460
829.735413,453
829.85376,445
829.972107,436
830.090515,441
830.208862,449
830.327209,457
830.445557,470
830.563904,461
830.682312,473
830.800659,456
830.919006,461
831.037354,433
831.155701,440
831.274048,462
831.392395,456
831.51062,452
831.629028,449
831.747314,464
831.865662,443
831.984009,457
832.102356,448
832.220642,443
832.338928,455
832.457275,443
832.575623,443
832.693909,457
832.812134,473
832.930481,448
833.048828,437
833.167114,461
833.2854,456
833.403687,452
833.521973,449
833.640259,442
833.758545,449
833.876831,453
833.995056,453
834.113281,450
834.231628,463
834.349915,451
834.468201,437
834.586426,452
834.704651,433
834.822998,429
834.941162,438
835.059448,449
835.177673,457
835.295959,447
835.414246,439
835.53241,459
835.650635,465
835.768921,448
835.887146,430
836.005371,441
836.123596,432
836.241821,437
836.360046,452
836.478271,425
836.596497,449
836.714722,447
836.832886,472
836.95105,444
837.069336,451
837.1875,467
837.305725,464
837.423889,449
837.542053,447
837.660339,451
837.778503,444
837.896667,437
838.014832,455
838.132996,461
838.25116,456
838.369385,438
838.487488,437
838.605713,448
838.723877,470
838.84198,457
838.960205,445
839.078308,449
839.196472,461
839.314636,453
839.4328,458
839.550964,458
839.669067,446
839.787231,445
839.905396,429
840.023499,449
840.141602,443
840.259766,447
840.377869,450
840.495972,434
840.614136,461
840.732239,436
840.850342,443
840.968445,445
841.086548,460
841.204651,468
841.322754,448
841.440918,469
841.55896,419
841.677002,462
841.795166,456
841.913208,429
842.031311,441
842.149353,456
842.267456,446
842.385498,440
842.503601,451
842.621643,450
842.739746,444
842.857788,447
842.97583,452
843.093933,472
843.211975,447
843.330017,429
843.44812,429
843.566101,449
843.684204,453
843.802246,429
843.920227,443
844.038269,445
844.156311,430
844.274292,437
844.392395,424
844.510376,436
844.628357,446
844.74646,445
844.864441,444
844.982422,453
845.100403,456
845.218384,447
845.336426,445
845.454468,450
845.572449,432
845.69043,448
845.808411,458
845.926453,469
846.044373,430
846.162354,437
846.280396,453
846.398315,449
846.516296,440
846.634216,447
846.752197,420
846.870178,474
846.988098,459
847.106079,464
847.22406,459
847.34198,447
847.4599,456
847.577881,441
847.695801,445
847.813782,460
847.931641,450
848.049561,442
848.167603,428
848.285461,456
848.403381,439
848.521362,441
848.639221,463
848.75708,434
848.875,448
848.99292,433
849.110901,433
849.22876,451
849.34668,434
849.464539,461
849.582458,452
849.700317,468
849.818176,444
849.936096,450
850.053955,451
850.171875,455
850.289673,441
850.407593,457
850.525452,446
850.643311,446
850.761169,447
850.878967,439
850.996887,455
851.114746,448
851.232544,445
851.350403,458
851.468262,449
851.58606,453
851.703979,447
851.821777,436
851.939636,428
852.057434,443
852.175232,449
852.293091,425
852.410889,421
852.528687,460
852.646545,465
852.764343,445
852.88208,449
852.999939,455
853.117676,456
853.235535,444
853.353271,446
853.471069,475
853.588928,464
853.706604,450
853.824402,449
853.9422,458
854.059998,424
854.177734,438
854.295532,432
854.413269,450
854.531006,453
854.648804,442
854.766541,442
854.884277,448
855.002014,438
855.119751,451
855.237549,454
855.355225,440
855.473022,462
855.590698,439
855.708435,460
855.826172,448
855.943848,442
856.061646,449
856.179321,431
856.296997,470
856.414795,434
856.53241,440
856.650085,457
856.767822,450
856.885559,452
857.003174,447
857.120911,439
857.238586,471
857.356201,454
857.473938,451
857.591614,453
857.709351,454
857.826965,444
857.944641,431
858.062317,451
858.179993,445
858.297668,439
858.415283,445
858.532959,430
858.650574,440
858.768188,447
858.885803,451
859.003479,432
859.121094,447
859.23877,437
859.356384,448
859.473999,443
859.591675,464
859.709229,450
859.826843,439
859.944458,458
860.062012,452
860.179626,439
860.297302,459
860.414856,440
860.532471,445
860.650024,445
860.767639,457
860.885193,446
861.002808,447
861.120361,455
861.237976,450
861.35553,439
861.473022,469
861.590698,444
861.708191,470
861.825745,428
861.943298,443
862.060852,467
862.178406,447
862.295959,440
862.413513,431
862.531006,455
862.64856,462
862.766113,459
862.883667,452
863.00116,431
863.118713,440
863.236206,445
863.353699,443
863.471252,438
863.588745,457
863.706177,453
863.82373,466
863.941162,442
864.058716,443
864.176208,441
864.29364,429
864.411194,443
864.528687,444
864.646118,452
864.763611,439
864.881042,450
864.998535,465
865.116028,444
865.233459,454
865.350891,438
865.468384,438
865.585754,448
865.703308,465
865.820679,451
865.938171,458
866.055542,438
866.173035,435
866.290466,449
866.407837,451
866.52533,462
866.6427,440
866.760071,447
866.877563,439
866.994934,451
867.112305,451
867.229736,462
867.347107,449
867.464539,450
867.58197,445
867.699341,433
867.81665,461
867.934082,462
868.051453,453
868.168823,464
868.286194,451
868.403564,430
868.520935,454
868.638306,440
868.755676,466
868.872986,442
868.990295,438
869.107727,447
869.225037,465
869.342346,452
869.459717,461
869.577026,454
869.694336,452
869.811707,452
869.929016,463
870.046326,451
870.163635,464
870.280945,456
870.398254,444
870.515564,461
870.632812,465
870.750183,463
870.867432,462
870.984741,456
871.102051,459
871.219299,454
871.336609,452
871.453918,446
871.571106,458
871.688416,460
871.805664,451
871.922852,446
872.040222,454
872.157471,455
872.274719,471
872.391968,427
872.509155,448
872.626465,470
872.743652,449
872.860962,436
872.978149,449
873.095337,432
873.212646,445
873.329834,439
873.44696,447
873.564209,442
873.681396,448
873.798645,450
873.915894,474
874.03302,443
874.150208,457
874.267456,450
874.384583,448
874.501831,465
874.618958,452
874.736145,451
874.853333,446
874.970459,460
875.087646,454
875.204834,450
875.32196,435
875.439148,454
875.556274,437
875.673401,437
875.790527,456
875.907715,460
876.024841,463
876.141968,445
876.259094,450
876.376282,451
876.493347,453
876.610474,448
876.7276,442
876.844727,454
876.961853,462
877.078918,456
877.195984,468
877.313171,456
877.430237,447
877.547302,469
877.664368,447
877.781433,474
877.898499,461
878.015625,446
878.13269,463
878.249695,449
878.366821,470
878.483887,442
878.600952,453
878.717957,460
878.834961,462
878.952087,439
879.069092,453
879.186157,458
879.303162,440
879.420227,444
879.537231,455
879.654236,427
879.77124,451
879.888306,455
880.005249,454
880.122314,436
880.239319,450
880.356323,471
880.473328,462
880.590271,459
880.707275,459
880.824341,458
880.941284,438
881.058228,474
881.175232,453
881.292236,459
881.40918,449
881.526123,445
881.643066,436
881.760071,453
881.877014,445
881.993958,426
882.11084,452
882.227783,448
882.344727,444
882.46167,465
882.578613,453
882.695618,441
882.812439,454
882.929382,468
883.046326,441
883.163208,443
883.280151,444
883.397034,453
883.513916,460
883.630798,458
883.747742,448
883.864563,449
883.981506,445
884.098389,445
884.21521,445
884.332153,460
884.448975,449
884.565796,437
884.682678,452
884.7995,443
884.916443,450
885.033264,456
885.150085,451
885.266968,457
885.383789,461
885.500671,460
885.617493,476
885.734314,462
885.851196,454
885.967896,464
886.084717,466
886.201599,446
886.318359,444
886.435181,458
886.552002,460
886.668762,469
886.785645,450
886.902344,460
887.019165,465
887.135925,451
887.252747,458
887.369446,452
887.486267,472
887.603027,458
887.719788,447
887.836548,449
887.953247,476
888.070068,459
888.186829,462
888.303528,476
888.420288,452
888.536987,451
888.653687,456
888.770447,456
888.887146,437
889.003967,450
889.120667,465
889.237305,451
889.354065,475
889.470703,450
889.587463,451
889.704163,463
889.820862,455
889.937561,441
890.054199,477
890.170837,450
890.287598,450
890.404236,465
890.520874,453
890.637634,454
890.754211,458
890.87085,435
890.987549,451
891.104187,455
891.220886,456
891.337463,453
891.454102,459
891.57074,464
891.687378,444
891.804077,450
891.920654,468
892.037231,455
892.15387,465
892.270447,464
892.387085,456
892.503723,454
892.6203,467
892.736877,428
892.853516,481
892.970032,464
893.08667,478
893.203186,464
893.319763,464
893.43634,470
893.552917,457
893.669556,443
893.786011,477
893.902588,456
894.019165,445
894.135681,454
894.252197,440
894.368835,473
894.485291,437
894.601868,466
894.718384,447
894.8349,467
894.951355,455
895.067932,470
895.184448,465
895.300964,451
895.417419,481
895.533936,455
895.650452,476
895.766907,440
895.883423,448
895.999878,458
896.116333,458
896.232849,453
896.349304,473
896.465759,456
896.582214,458
896.698669,452
896.815125,481
896.931641,452
897.048035,478
897.164551,478
897.280884,474
897.397339,465
897.513794,459
897.630249,470
897.746582,477
897.863098,464
897.979431,460
898.095886,454
898.212341,451
898.328674,460
898.445129,460
898.561462,473
898.677795,460
898.794312,465
898.910645,434
899.026978,464
899.143433,456
899.259766,446
899.37616,468
899.492493,458
899.608765,460
899.725159,463
899.841553,449
899.957947,461
900.07428,464
900.190552,453
900.306946,473
900.423157,465
900.53949,468
900.655884,467
900.772156,460
900.888489,466
901.004822,453
901.121033,457
901.237366,467
901.353699,458
901.46991,470
901.586304,462
901.702515,460
901.818787,461
901.93512,473
902.051331,469
902.167603,462
902.283875,482
902.400085,473
902.516418,444
902.632629,488
902.74884,451
902.865112,457
902.981384,473
903.097595,470
903.213867,463
903.330017,436
903.446289,469
903.5625,475
903.67865,465
903.794922,470
903.911072,477
904.027344,462
904.143494,465
904.259705,458
904.375916,438
904.492065,477
904.608215,463
904.724426,462
904.840576,465
904.956726,480
905.072876,461
905.189087,459
905.305176,442
905.421387,459
905.537537,463
905.653687,469
905.769775,470
905.885925,478
906.002014,468
906.118164,459
906.234314,475
906.350403,458
906.466492,448
906.582642,464
906.69873,471
906.814758,468
906.930908,457
907.046936,462
907.163086,473
907.279175,470
907.395264,463
907.511353,477
907.62738,485
907.743408,450
907.859497,454
907.975525,477
908.091553,471
908.207703,470
908.32373,468
908.439758,471
908.555786,454
908.671814,482
908.787842,457
908.90387,478
909.019775,449
909.135864,465
909.251892,463
909.367859,452
909.483826,469
909.599854,453
909.715881,450
909.831848,440
909.947815,469
910.063782,453
910.179749,468
910.295776,489
910.411743,443
910.527649,477
910.643616,468
910.759583,482
910.875488,460
910.991455,465
911.107361,461
911.223267,470
911.339294,462
911.4552,472
911.571106,473
911.687073,464
911.802979,461
911.918823,457
912.034729,468
912.150635,493
912.266602,473
912.382446,473
912.498352,473
912.614197,469
912.730103,468
912.846008,455
792.44574,519
792.56488,535
792.68396,600
792.80304,578
792.92218,532
793.041199,519
793.160339,517
793.279419,486
793.398499,535
793.517578,520
793.636658,496
793.755737,496
793.874817,551
793.993896,526
794.112976,487
794.232056,491
794.351074,499
794.470215,527
794.589233,530
794.708313,518
794.827393,483
794.946411,509
795.065552,502
795.18457,531
795.303589,484
795.422668,491
795.541687,520
795.660767,495
795.779846,498
795.898865,504
796.017883,509
796.136963,494
796.255981,493
796.375061,503
796.49408,503
796.613037,491
796.732117,503
796.851135,510
796.970154,501
797.089233,480
797.208191,493
797.327271,506
797.446228,485
797.565186,511
797.684265,495
797.803223,480
797.922241,527
798.04126,486
798.160278,490
798.279297,480
798.398315,476
798.517273,488
798.636292,492
798.75531,504
798.874268,488
798.993286,491
799.112244,491
799.231323,473
799.350281,497
799.469238,494
799.588257,490
799.707153,504
799.826111,490
799.945129,479
800.064087,482
800.183044,486
800.302063,492
800.421021,492
800.539978,492
800.658936,507
800.777893,497
800.896912,462
801.015747,489
801.134705,488
801.253723,481
801.37262,476
801.491638,501
801.610535,484
801.729492,487
801.84845,476
801.967407,496
802.086243,493
802.205261,487
802.324158,470
802.443115,473
802.562073,487
802.680969,478
802.799927,482
802.918762,491
803.037659,490
803.156677,491
803.275574,485
803.39447,491
803.513428,483
803.632263,498
803.751221,476
803.870117,493
803.989014,491
804.107971,470
804.226746,473
804.345642,484
804.4646,494
804.583496,485
804.702393,465
804.821228,479
804.940125,480
805.059021,490
805.177917,473
805.296814,473
805.415649,466
805.534546,472
805.653442,485
805.772278,487
805.891113,518
806.01001,472
806.128906,479
806.247742,472
806.366577,485
806.485413,486
806.604309,479
806.723145,499
806.84198,473
806.960876,490
807.079712,460
807.198486,494
807.317383,476
807.436218,477
807.554993,500
807.673889,492
807.792725,487
807.91156,483
808.030396,479
808.14917,483
808.268005,477
808.386841,485
808.505676,488
808.624451,476
808.743286,471
808.862122,474
808.980896,496
809.099731,480
809.218506,484
809.337341,476
809.456116,474
809.57489,474
809.693726,477
809.8125,490
809.931274,489
810.050049,486
810.168884,487
810.287659,468
810.406372,482
810.525269,493
810.643982,480
810.762756,492
810.881531,482
811.000305,471
811.11908,477
811.237854,474
811.356567,469
811.475403,476
811.594116,488
811.71283,486
811.831604,445
811.950378,491
812.069153,464
812.187927,477
812.30658,486
812.425415,480
812.544128,481
812.662781,476
812.781616,479
812.900269,485
813.019043,486
813.137756,491
813.256531,479
813.375244,502
813.493896,458
813.612671,472
813.731384,462
813.850037,477
813.96875,474
814.087524,487
814.206238,491
814.324951,460
814.443604,479
814.562256,471
814.68103,464
814.799683,470
814.918335,441
815.037109,493
815.155762,455
815.274475,471
815.393188,475
815.511841,486
815.630554,470
815.749146,490
815.867859,486
815.986572,478
816.105164,471
816.223877,479
816.342529,492
816.461182,504
816.579895,475
816.698486,477
816.817139,476
816.935791,479
817.054504,463
817.173096,476
817.291748,469
817.4104,458
817.529053,480
817.647644,481
817.766235,465
817.884949,464
818.00354,460
818.122192,478
818.240845,454
818.359436,464
818.478088,461
818.59668,456
818.715271,461
818.833923,472
818.952515,471
819.071106,460
819.189758,456
819.30835,473
819.426941,474
819.545532,452
819.664124,452
819.782715,463
819.901306,444
820.019897,469
820.138489,456
820.25708,465
820.375671,463
820.494202,466
820.612732,458
820.731384,475
820.849915,454
820.968506,461
821.087097,469
821.205627,460
821.324158,449
821.442749,461
821.561279,454
821.679871,448
821.798401,457
821.916931,456
822.035461,467
822.154053,462
822.272583,472
822.391174,460
822.509583,470
822.628174,441
822.746704,463
822.865234,470
822.983765,458
823.102295,446
823.220825,464
823.339294,461
823.457825,442
823.576355,490
823.694824,448
823.813354,460
823.931885,466
824.050354,460
824.168884,435
824.287354,444
824.405823,448
824.524353,464
824.642822,453
824.761353,459
824.879822,449
824.998291,468
825.116699,451
825.235291,450
825.353699,463
825.472168,463
825.590637,449
825.709106,462
825.827576,438
825.946045,466
826.064453,436
826.182983,466
826.301392,462
826.4198,449
826.53833,425
826.656738,472
826.775208,453
826.893677,478
827.012024,468
827.130493,437
827.248962,423
827.36731,462
827.485779,455
827.604248,464
827.722595,438
827.841064,445
827.959412,464
828.077942,464
828.196289,440
828.314636,444
828.433105,431
828.551514,450
828.669861,458
828.78833,460
828.906677,446
829.025085,452
829.143433,449
829.261841,464
829.38031,454
829.498657,464
829.617004,448
829.735413,446
829.85376,429
829.972107,445
830.090515,457
830.208862,460
830.327209,442
830.445557,466
830.563904,459
830.682312,446
830.800659,456
830.919006,448
831.037354,467
831.155701,452
831.274048,439
831.392395,448
831.51062,448
831.629028,459
831.747314,456
831.865662,459
831.984009,449
832.102356,461
832.220642,455
832.338928,479
832.457275,439
832.575623,447
832.693909,434
832.812134,452
832.930481,440
833.048828,441
833.167114,430
833.2854,451
833.403687,433
833.521973,451
833.640259,458
833.758545,455
833.876831,452
833.995056,456
834.113281,467
834.231628,459
834.349915,449
834.468201,448
834.586426,449
834.704651,464
834.822998,443
834.941162,442
835.059448,440
835.177673,451
835.295959,446
835.414246,444
835.53241,451
835.650635,427
835.768921,433
835.887146,456
836.005371,451
836.123596,434
836.241821,451
836.360046,461
836.478271,433
836.596497,468
836.714722,439
836.832886,460
836.95105,450
837.069336,460
837.1875,433
837.305725,450
837.423889,432
837.542053,450
837.660339,464
837.778503,436
837.896667,463
838.014832,444
838.132996,433
838.25116,457
838.369385,455
838.487488,464
838.605713,448
838.723877,441
838.84198,425
838.960205,450
839.078308,459
839.196472,460
839.314636,444
839.4328,472
839.550964,448
839.669067,429
839.787231,440
839.905396,451
840.023499,451
840.141602,443
840.259766,439
840.377869,449
840.495972,457
840.614136,454
840.732239,447
840.850342,450
840.968445,453
841.086548,460
841.204651,460
841.322754,438
841.440918,432
841.55896,442
841.677002,444
841.795166,466
841.913208,437
842.031311,456
842.149353,421
842.267456,441
842.385498,450
842.503601,437
842.621643,441
842.739746,465
842.857788,458
842.97583,437
843.093933,454
843.211975,436
843.330017,447
843.44812,461
843.566101,451
843.684204,461
843.802246,429
843.920227,441
844.038269,458
844.156311,460
844.274292,441
844.392395,461
844.510376,443
844.628357,467
844.74646,436
844.864441,454
844.982422,447
845.100403,439
845.218384,450
845.336426,451
845.454468,436
845.572449,456
845.69043,453
845.808411,453
845.926453,429
846.044373,452
846.162354,426
846.280396,464
846.398315,426
846.516296,451
846.634216,447
846.752197,442
846.870178,425
846.988098,446
847.106079,443
847.22406,448
847.34198,440
847.4599,434
847.577881,436
847.695801,442
847.813782,452
847.931641,449
848.049561,446
848.167603,446
848.285461,444
848.403381,464
848.521362,443
848.639221,440
848.75708,450
848.875,463
848.99292,451
849.110901,459
849.22876,429
849.34668,441
849.464539,437
849.582458,427
849.700317,441
849.818176,453
849.936096,448
850.053955,449
850.171875,468
850.289673,448
850.407593,453
850.525452,440
850.643311,427
850.761169,449
850.878967,451
850.996887,454
851.114746,442
851.232544,449
851.350403,459
851.468262,441
851.58606,457
851.703979,445
851.821777,456
851.939636,445
852.057434,444
852.175232,452
852.293091,454
852.410889,444
852.528687,441
852.646545,447
852.764343,451
852.88208,440
852.999939,457
853.117676,465
853.235535,456
853.353271,442
853.471069,440
853.588928,441
853.706604,439
853.824402,437
853.9422,458
854.059998,454
854.177734,440
854.295532,453
854.413269,427
854.531006,449
854.648804,440
854.766541,467
854.884277,441
855.002014,445
855.119751,455
855.237549,457
855.355225,435
855.473022,455
855.590698,436
855.708435,453
855.826172,463
855.943848,439
856.061646,456
856.179321,446
856.296997,445
856.414795,461
856.53241,438
856.650085,457
856.767822,439
856.885559,455
857.003174,448
857.120911,469
857.238586,445
857.356201,459
857.473938,466
857.591614,465
857.709351,447
857.826965,448
857.944641,448
858.062317,456
858.179993,446
858.297668,460
858.415283,441
858.532959,456
858.650574,467
858.768188,450
858.885803,447
859.003479,460
859.121094,439
859.23877,444
859.356384,435
859.473999,465
859.591675,435
859.709229,447
859.826843,444
859.944458,445
860.062012,448
860.179626,448
860.297302,450
860.414856,446
860.532471,436
860.650024,460
860.767639,440
860.885193,460
861.002808,450
861.120361,462
861.237976,443
861.35553,447
861.473022,455
861.590698,460
861.708191,451
861.825745,451
861.943298,459
862.060852,439
862.178406,444
862.295959,446
862.413513,430
862.531006,443
862.64856,437
862.766113,442
862.883667,439
863.00116,454
863.118713,440
863.236206,455
863.353699,459
863.471252,439
863.588745,429
863.706177,444
863.82373,448
863.941162,431
864.058716,439
864.176208,458
864.29364,431
864.411194,460
864.528687,427
864.646118,438
864.763611,437
864.881042,444
864.998535,458
865.116028,454
865.233459,446
865.350891,440
865.468384,453
865.585754,459
865.703308,434
865.820679,460
865.938171,454
866.055542,434
866.173035,445
866.290466,440
866.407837,455
866.52533,460
866.6427,471
866.760071,463
866.877563,441
866.994934,445
867.112305,435
867.229736,439
867.347107,457
867.464539,447
867.58197,468
867.699341,449
867.81665,443
867.934082,455
868.051453,457
868.168823,450
868.286194,442
868.403564,465
868.520935,431
868.638306,453
868.755676,438
868.872986,476
868.990295,437
869.107727,469
869.225037,447
869.342346,457
869.459717,467
869.577026,465
869.694336,440
869.811707,455
869.929016,457
870.046326,459
870.163635,441
870.280945,456
870.398254,464
870.515564,452
870.632812,448
870.750183,447
870.867432,443
870.984741,443
871.102051,473
871.219299,457
871.336609,440
871.453918,448
871.571106,447
871.688416,467
871.805664,451
871.922852,450
872.040222,436
872.157471,449
872.274719,449
872.391968,462
872.509155,455
872.626465,462
872.743652,475
872.860962,468
872.978149,448
873.095337,459
873.212646,458
873.329834,455
873.44696,447
873.564209,465
873.681396,446
873.798645,428
873.915894,459
874.03302,452
874.150208,449
874.267456,460
874.384583,451
874.501831,439
874.618958,453
874.736145,454
874.853333,455
874.970459,464
875.087646,458
875.204834,451
875.32196,452
875.439148,455
875.556274,449
875.673401,466
875.790527,453
875.907715,449
876.024841,456
876.141968,442
876.259094,454
876.376282,460
876.493347,454
876.610474,461
876.7276,458
876.844727,446
876.961853,451
877.078918,460
877.195984,440
877.313171,459
877.430237,445
877.547302,469
877.664368,466
877.781433,455
877.898499,454
878.015625,452
878.13269,453
878.249695,433
878.366821,447
878.483887,449
878.600952,457
878.717957,452
878.834961,441
878.952087,462
879.069092,466
879.186157,484
879.303162,440
879.420227,472
879.537231,443
879.654236,451
879.77124,448
879.888306,458
880.005249,444
880.122314,436
880.239319,451
880.356323,444
880.473328,439
880.590271,476
880.707275,464
880.824341,455
880.941284,446
881.058228,465
881.175232,457
881.292236,480
881.40918,453
881.526123,455
881.643066,449
881.760071,459
881.877014,455
881.993958,439
882.11084,461
882.227783,448
882.344727,450
882.46167,465
882.578613,445
882.695618,457
882.812439,455
882.929382,477
883.046326,450
883.163208,447
883.280151,463
883.397034,452
883.513916,452
883.630798,460
883.747742,446
883.864563,439
883.981506,442
884.098389,452
884.21521,454
884.332153,483
884.448975,465
884.565796,467
884.682678,463
884.7995,448
884.916443,454
885.033264,462
885.150085,447
885.266968,458
885.383789,450
885.500671,466
885.617493,464
885.734314,471
885.851196,461
885.967896,460
886.084717,446
886.201599,491
886.318359,472
886.435181,460
886.552002,461
886.668762,449
886.785645,467
886.902344,473
887.019165,469
887.135925,450
887.252747,468
887.369446,456
887.486267,443
887.603027,464
887.719788,459
887.836548,452
887.953247,458
888.070068,478
888.186829,453
888.303528,465
888.420288,462
888.536987,433
888.653687,450
888.770447,448
888.887146,456
889.003967,463
889.120667,458
889.237305,450
889.354065,472
889.470703,455
889.587463,434
889.704163,476
889.820862,455
889.937561,471
890.054199,436
890.170837,457
890.287598,444
890.404236,454
890.520874,469
890.637634,461
890.754211,467
890.87085,457
890.987549,473
891.104187,470
891.220886,463
891.337463,456
891.454102,453
891.57074,481
891.687378,464
891.804077,478
891.920654,461
892.037231,463
892.15387,454
892.270447,460
892.387085,471
892.503723,449
892.6203,450
892.736877,449
892.853516,454
892.970032,455
893.08667,463
893.203186,452
893.319763,451
893.43634,444
893.552917,462
893.669556,456
893.786011,459
893.902588,457
894.019165,441
894.135681,472
894.252197,452
894.368835,456
894.485291,458
894.601868,466
894.718384,456
894.8349,468
894.951355,469
895.067932,451
895.184448,464
895.300964,447
895.417419,447
895.533936,450
895.650452,455
895.766907,483
895.883423,442
895.999878,462
896.116333,459
896.232849,456
896.349304,452
896.465759,463
896.582214,462
896.698669,444
896.815125,461
896.931641,465
897.048035,448
897.164551,469
897.280884,467
897.397339,448
897.513794,446
897.630249,479
897.746582,447
897.863098,466
897.979431,455
898.095886,466
898.212341,452
898.328674,492
898.445129,469
898.561462,461
898.677795,478
898.794312,455
898.910645,446
899.026978,471
899.143433,477
899.259766,455
899.37616,450
899.492493,464
899.608765,455
899.725159,491
899.841553,460
899.957947,470
900.07428,467
900.190552,479
900.306946,455
900.423157,465
900.53949,475
900.655884,446
900.772156,478
900.888489,431
901.004822,461
901.121033,463
901.237366,445
901.353699,468
901.46991,470
901.586304,474
901.702515,449
901.818787,465
901.93512,460
902.051331,447
902.167603,464
902.283875,470
902.400085,471
902.516418,462
902.632629,453
902.74884,454
902.865112,466
902.981384,464
903.097595,479
903.213867,473
903.330017,489
903.446289,459
903.5625,469
903.67865,478
903.794922,471
903.911072,469
904.027344,461
904.143494,463
904.259705,464
904.375916,467
904.492065,455
904.608215,467
904.724426,469
904.840576,469
904.956726,462
905.072876,466
905.189087,455
905.305176,467
905.421387,449
905.537537,491
905.653687,481
905.769775,444
905.885925,437
906.002014,472
906.118164,484
906.234314,474
906.350403,457
906.466492,465
906.582642,463
906.69873,464
906.814758,451
906.930908,460
907.046936,444
907.163086,485
907.279175,467
907.395264,476
907.511353,463
907.62738,466
907.743408,454
907.859497,462
907.975525,449
908.091553,473
908.207703,470
908.32373,481
908.439758,463
908.555786,432
908.671814,467
908.787842,466
908.90387,468
909.019775,455
909.135864,474
909.251892,474
909.367859,460
909.483826,454
909.599854,457
909.715881,473
909.831848,481
909.947815,457
910.063782,464
910.179749,484
910.295776,442
910.411743,465
910.527649,457
910.643616,465
910.759583,467
910.875488,474
910.991455,474
911.107361,485
911.223267,478
911.339294,466
911.4552,464
911.571106,464
911.687073,474
911.802979,474
911.918823,460
912.034729,467
912.150635,453
912.266602,482
912.382446,462
912.498352,474
912.614197,464
912.730103,461
912.846008,461
