792.44574,714
792.56488,735
792.68396,758
792.80304,755
792.92218,699
793.041199,664
793.160339,681
793.279419,690
793.398499,671
793.517578,665
793.636658,652
793.755737,672
793.874817,688
793.993896,689
794.112976,646
794.232056,635
794.351074,644
794.470215,625
794.589233,621
794.708313,636
794.827393,628
794.946411,621
795.065552,625
795.18457,638
795.303589,628
795.422668,602
795.541687,627
795.660767,645
795.779846,642
795.898865,612
796.017883,624
796.136963,588
796.255981,612
796.375061,640
796.49408,606
796.613037,611
796.732117,585
796.851135,601
796.970154,579
797.089233,574
797.208191,605
797.327271,583
797.446228,564
797.565186,591
797.684265,592
797.803223,587
797.922241,575
798.04126,568
798.160278,591
798.279297,599
798.398315,572
798.517273,585
798.636292,573
798.75531,583
798.874268,597
798.993286,572
799.112244,592
799.231323,596
799.350281,574
799.469238,589
799.588257,587
799.707153,608
799.826111,569
799.945129,590
800.064087,583
800.183044,567
800.302063,587
800.421021,571
800.539978,595
800.658936,559
800.777893,582
800.896912,580
801.015747,574
801.134705,596
801.253723,576
801.37262,575
801.491638,583
801.610535,580
801.729492,577
801.84845,546
801.967407,577
802.086243,584
802.205261,556
802.324158,575
802.443115,584
802.562073,578
802.680969,574
802.799927,573
802.918762,582
803.037659,569
803.156677,583
803.275574,580
803.39447,573
803.513428,559
803.632263,570
803.751221,570
803.870117,572
803.989014,585
804.107971,593
804.226746,597
804.345642,582
804.4646,577
804.583496,574
804.702393,574
804.821228,586
804.940125,594
805.059021,593
805.177917,580
805.296814,588
805.415649,589
805.534546,552
805.653442,580
805.772278,584
805.891113,582
806.01001,588
806.128906,564
806.247742,597
806.366577,581
806.485413,576
806.604309,599
806.723145,571
806.84198,588
806.960876,572
807.079712,594
807.198486,582
807.317383,600
807.436218,571
807.554993,575
807.673889,596
807.792725,587
807.91156,580
808.030396,578
808.14917,570
808.268005,602
808.386841,574
808.505676,583
808.624451,583
808.743286,582
808.862122,580
808.980896,591
809.099731,579
809.218506,584
809.337341,575
809.456116,583
809.57489,600
809.693726,584
809.8125,614
809.931274,591
810.050049,582
810.168884,593
810.287659,576
810.406372,579
810.525269,587
810.643982,578
810.762756,567
810.881531,590
811.000305,593
811.11908,579
811.237854,597
811.356567,603
811.475403,586
811.594116,599
811.71283,605
811.831604,624
811.950378,580
812.069153,579
812.187927,601
812.30658,600
812.425415,601
812.544128,596
812.662781,591
812.781616,611
812.900269,570
813.019043,595
813.137756,569
813.256531,605
813.375244,576
813.493896,597
813.612671,591
813.731384,578
813.850037,568
813.96875,566
814.087524,600
814.206238,608
814.324951,577
814.443604,594
814.562256,592
814.68103,564
814.799683,574
814.918335,596
815.037109,584
815.155762,566
815.274475,567
815.393188,594
815.511841,566
815.630554,593
815.749146,561
815.867859,562
815.986572,581
816.105164,558
816.223877,592
816.342529,591
816.461182,566
816.579895,586
816.698486,589
816.817139,577
816.935791,591
817.054504,581
817.173096,597
817.291748,582
817.4104,539
817.529053,567
817.647644,586
817.766235,555
817.884949,572
818.00354,544
818.122192,570
818.240845,541
818.359436,545
818.478088,518
818.59668,517
818.715271,533
818.833923,518
818.952515,542
819.071106,516
819.189758,500
819.30835,515
819.426941,505
819.545532,513
819.664124,517
819.782715,519
819.901306,521
820.019897,492
820.138489,517
820.25708,511
820.375671,486
820.494202,487
820.612732,476
820.731384,469
820.849915,506
820.968506,498
821.087097,489
821.205627,468
821.324158,483
821.442749,482
821.561279,475
821.679871,493
821.798401,479
821.916931,492
822.035461,467
822.154053,485
822.272583,467
822.391174,475
822.509583,470
822.628174,485
822.746704,495
822.865234,483
822.983765,486
823.102295,483
823.220825,475
823.339294,475
823.457825,466
823.576355,489
823.694824,474
823.813354,484
823.931885,479
824.050354,455
824.168884,476
824.287354,482
824.405823,499
824.524353,483
824.642822,485
824.761353,485
824.879822,488
824.998291,472
825.116699,503
825.235291,492
825.353699,471
825.472168,482
825.590637,489
825.709106,474
825.827576,486
825.946045,460
826.064453,481
826.182983,474
826.301392,473
826.4198,454
826.53833,469
826.656738,466
826.775208,461
826.893677,449
827.012024,449
827.130493,473
827.248962,485
827.36731,477
827.485779,479
827.604248,480
827.722595,474
827.841064,469
827.959412,469
828.077942,475
828.196289,488
828.314636,468
828.433105,464
828.551514,489
828.669861,490
828.78833,464
828.906677,486
829.025085,461
829.143433,472
829.261841,466
829.38031,470
829.498657,466
829.617004,481
829.735413,462
829.85376,459
829.972107,470
830.090515,454
830.208862,460
830.327209,450
830.445557,465
830.563904,461
830.682312,467
830.800659,461
830.919006,480
831.037354,449
831.155701,455
831.274048,455
831.392395,459
831.51062,461
831.629028,457
831.747314,464
831.865662,458
831.984009,482
832.102356,465
832.220642,468
832.338928,475
832.457275,454
832.575623,471
832.693909,474
832.812134,458
832.930481,449
833.048828,485
833.167114,450
833.2854,459
833.403687,452
833.521973,443
833.640259,467
833.758545,472
833.876831,472
833.995056,461
834.113281,469
834.231628,480
834.349915,465
834.468201,473
834.586426,459
834.704651,470
834.822998,469
834.941162,479
835.059448,471
835.177673,439
835.295959,488
835.414246,476
835.53241,497
835.650635,464
835.768921,450
835.887146,470
836.005371,469
836.123596,477
836.241821,476
836.360046,484
836.478271,463
836.596497,480
836.714722,480
836.832886,466
836.95105,474
837.069336,481
837.1875,481
837.305725,482
837.423889,485
837.542053,497
837.660339,499
837.778503,456
837.896667,486
838.014832,486
838.132996,466
838.25116,471
838.369385,477
838.487488,473
838.605713,475
838.723877,465
838.84198,455
838.960205,478
839.078308,505
839.196472,464
839.314636,484
839.4328,466
839.550964,471
839.669067,477
839.787231,493
839.905396,465
840.023499,487
840.141602,470
840.259766,471
840.377869,481
840.495972,486
840.614136,490
840.732239,482
840.850342,487
840.968445,468
841.086548,464
841.204651,498
841.322754,489
841.440918,483
841.55896,475
841.677002,464
841.795166,485
841.913208,484
842.031311,493
842.149353,469
842.267456,478
842.385498,479
842.503601,474
842.621643,490
842.739746,482
842.857788,490
842.97583,472
843.093933,484
843.211975,454
843.330017,488
843.44812,446
843.566101,462
843.684204,446
843.802246,486
843.920227,462
844.038269,477
844.156311,473
844.274292,503
844.392395,476
844.510376,478
844.628357,462
844.74646,469
844.864441,473
844.982422,453
845.100403,480
845.218384,468
845.336426,462
845.454468,461
845.572449,441
845.69043,490
845.808411,472
845.926453,472
846.044373,454
846.162354,483
846.280396,465
846.398315,469
846.516296,497
846.634216,472
846.752197,481
846.870178,473
846.988098,451
847.106079,469
847.22406,461
847.34198,475
847.4599,464
847.577881,469
847.695801,458
847.813782,472
847.931641,481
848.049561,481
848.167603,474
848.285461,470
848.403381,460
848.521362,447
848.639221,456
848.75708,486
848.875,456
848.99292,467
849.110901,463
849.22876,472
849.34668,463
849.464539,484
849.582458,464
849.700317,469
849.818176,468
849.936096,466
850.053955,463
850.171875,470
850.289673,484
850.407593,473
850.525452,466
850.643311,481
850.761169,499
850.878967,468
850.996887,475
851.114746,463
851.232544,458
851.350403,473
851.468262,470
851.58606,467
851.703979,466
851.821777,471
851.939636,466
852.057434,472
852.175232,468
852.293091,459
852.410889,466
852.528687,473
852.646545,487
852.764343,465
852.88208,456
852.999939,471
853.117676,466
853.235535,488
853.353271,473
853.471069,465
853.588928,489
853.706604,472
853.824402,479
853.9422,486
854.059998,452
854.177734,450
854.295532,454
854.413269,473
854.531006,468
854.648804,474
854.766541,469
854.884277,462
855.002014,458
855.119751,477
855.237549,477
855.355225,463
855.473022,477
855.590698,477
855.708435,494
855.826172,478
855.943848,480
856.061646,480
856.179321,470
856.296997,479
856.414795,478
856.53241,494
856.650085,465
856.767822,487
856.885559,483
857.003174,475
857.120911,491
857.238586,480
857.356201,483
857.473938,486
857.591614,483
857.709351,479
857.826965,448
857.944641,486
858.062317,485
858.179993,470
858.297668,481
858.415283,478
858.532959,506
858.650574,482
858.768188,478
858.885803,471
859.003479,472
859.121094,478
859.23877,470
859.356384,476
859.473999,485
859.591675,468
859.709229,462
859.826843,461
859.944458,497
860.062012,475
860.179626,464
860.297302,471
860.414856,472
860.532471,469
860.650024,470
860.767639,448
860.885193,484
861.002808,474
861.120361,455
861.237976,489
861.35553,480
861.473022,473
861.590698,474
861.708191,477
861.825745,476
861.943298,477
862.060852,470
862.178406,475
862.295959,481
862.413513,476
862.531006,456
862.64856,470
862.766113,451
862.883667,455
863.00116,453
863.118713,473
863.236206,470
863.353699,471
863.471252,466
863.588745,465
863.706177,475
863.82373,490
863.941162,470
864.058716,468
864.176208,490
864.29364,463
864.411194,470
864.528687,489
864.646118,467
864.763611,487
864.881042,465
864.998535,457
865.116028,473
865.233459,460
865.350891,469
865.468384,465
865.585754,474
865.703308,463
865.820679,466
865.938171,478
866.055542,461
866.173035,483
866.290466,480
866.407837,492
866.52533,475
866.6427,465
866.760071,485
866.877563,451
866.994934,459
867.112305,494
867.229736,465
867.347107,469
867.464539,497
867.58197,454
867.699341,457
867.81665,479
867.934082,470
868.051453,465
868.168823,474
868.286194,486
868.403564,462
868.520935,469
868.638306,456
868.755676,473
868.872986,469
868.990295,475
869.107727,463
869.225037,481
869.342346,469
869.459717,479
869.577026,466
869.694336,486
869.811707,475
869.929016,480
870.046326,470
870.163635,482
870.280945,473
870.398254,480
870.515564,473
870.632812,470
870.750183,479
870.867432,477
870.984741,465
871.102051,493
871.219299,485
871.336609,474
871.453918,495
871.571106,496
871.688416,485
871.805664,501
871.922852,457
872.040222,479
872.157471,469
872.274719,491
872.391968,488
872.509155,484
872.626465,493
872.743652,469
872.860962,496
872.978149,476
873.095337,468
873.212646,488
873.329834,457
873.44696,481
873.564209,475
873.681396,493
873.798645,515
873.915894,478
874.03302,492
874.150208,475
874.267456,498
874.384583,483
874.501831,486
874.618958,498
874.736145,493
874.853333,473
874.970459,478
875.087646,481
875.204834,462
875.32196,514
875.439148,474
875.556274,495
875.673401,476
875.790527,485
875.907715,468
876.024841,484
876.141968,490
876.259094,472
876.376282,475
876.493347,493
876.610474,476
876.7276,467
876.844727,465
876.961853,480
877.078918,482
877.195984,471
877.313171,481
877.430237,481
877.547302,459
877.664368,486
877.781433,471
877.898499,475
878.015625,478
878.13269,476
878.249695,468
878.366821,455
878.483887,472
878.600952,479
878.717957,461
878.834961,481
878.952087,483
879.069092,454
879.186157,466
879.303162,474
879.420227,476
879.537231,486
879.654236,460
879.77124,495
879.888306,452
880.005249,479
880.122314,453
880.239319,455
880.356323,504
880.473328,474
880.590271,454
880.707275,483
880.824341,453
880.941284,474
881.058228,453
881.175232,472
881.292236,456
881.40918,468
881.526123,468
881.643066,468
881.760071,471
881.877014,484
881.993958,480
882.11084,478
882.227783,466
882.344727,460
882.46167,497
882.578613,466
882.695618,450
882.812439,466
882.929382,473
883.046326,477
883.163208,472
883.280151,475
883.397034,480
883.513916,470
883.630798,467
883.747742,487
883.864563,470
883.981506,472
884.098389,461
884.21521,486
884.332153,476
884.448975,486
884.565796,492
884.682678,498
884.7995,461
884.916443,474
885.033264,507
885.150085,481
885.266968,493
885.383789,513
885.500671,498
885.617493,525
885.734314,498
885.851196,515
885.967896,485
886.084717,520
886.201599,516
886.318359,513
886.435181,516
886.552002,514
886.668762,512
886.785645,492
886.902344,490
887.019165,492
887.135925,510
887.252747,511
887.369446,499
887.486267,491
887.603027,474
887.719788,493
887.836548,483
887.953247,488
888.070068,479
888.186829,486
888.303528,476
888.420288,479
888.536987,474
888.653687,472
888.770447,485
888.887146,460
889.003967,459
889.120667,476
889.237305,476
889.354065,483
889.470703,484
889.587463,454
889.704163,457
889.820862,468
889.937561,473
890.054199,478
890.170837,485
890.287598,478
890.404236,455
890.520874,475
890.637634,450
890.754211,485
890.87085,460
890.987549,471
891.104187,493
891.220886,476
891.337463,473
891.454102,467
891.57074,461
891.687378,481
891.804077,480
891.920654,462
892.037231,492
892.15387,475
892.270447,465
892.387085,494
892.503723,471
892.6203,487
892.736877,453
892.853516,488
892.970032,469
893.08667,478
893.203186,466
893.319763,464
893.43634,470
893.552917,472
893.669556,490
893.786011,486
893.902588,466
894.019165,486
894.135681,474
894.252197,454
894.368835,476
894.485291,462
894.601868,477
894.718384,458
894.8349,479
894.951355,470
895.067932,475
895.184448,473
895.300964,472
895.417419,484
895.533936,490
895.650452,491
895.766907,471
895.883423,473
895.999878,475
896.116333,478
896.232849,470
896.349304,480
896.465759,464
896.582214,481
896.698669,478
896.815125,467
896.931641,484
897.048035,477
897.164551,487
897.280884,475
897.397339,442
897.513794,480
897.630249,478
897.746582,478
897.863098,469
897.979431,468
898.095886,480
898.212341,478
898.328674,475
898.445129,477
898.561462,462
898.677795,480
898.794312,485
898.910645,479
899.026978,470
899.143433,488
899.259766,474
899.37616,477
899.492493,480
899.608765,482
899.725159,496
899.841553,472
899.957947,473
900.07428,486
900.190552,484
900.306946,480
900.423157,488
900.53949,494
900.655884,491
900.772156,472
900.888489,474
901.004822,473
901.121033,462
901.237366,478
901.353699,470
901.46991,467
901.586304,498
901.702515,474
901.818787,481
901.93512,482
902.051331,501
902.167603,491
902.283875,489
902.400085,489
902.516418,492
902.632629,500
902.74884,473
902.865112,495
902.981384,509
903.097595,504
903.213867,493
903.330017,516
903.446289,494
903.5625,483
903.67865,487
903.794922,490
903.911072,492
904.027344,491
904.143494,458
904.259705,469
904.375916,468
904.492065,486
904.608215,490
904.724426,478
904.840576,469
904.956726,463
905.072876,498
905.189087,465
905.305176,475
905.421387,490
905.537537,463
905.653687,468
905.769775,470
905.885925,474
906.002014,476
906.118164,475
906.234314,485
906.350403,472
906.466492,488
906.582642,493
906.69873,456
906.814758,478
906.930908,471
907.046936,483
907.163086,482
907.279175,482
907.395264,461
907.511353,485
907.62738,490
907.743408,487
907.859497,488
907.975525,455
908.091553,458
908.207703,474
908.32373,472
908.439758,470
908.555786,479
908.671814,485
908.787842,468
908.90387,471
909.019775,472
909.135864,469
909.251892,469
909.367859,479
909.483826,495
909.599854,498
909.715881,463
909.831848,463
909.947815,463
910.063782,465
910.179749,472
910.295776,484
910.411743,485
910.527649,472
910.643616,484
910.759583,479
910.875488,461
910.991455,505
911.107361,474
911.223267,481
911.339294,477
911.4552,474
911.571106,478
911.687073,474
911.802979,502
911.918823,489
912.034729,470
912.150635,450
912.266602,474
912.382446,485
912.498352,480
912.614197,478
912.730103,484
912.846008,491
792.44574,724
792.56488,729
792.68396,784
792.80304,732
792.92218,705
793.041199,699
793.160339,676
793.279419,688
793.398499,656
793.517578,660
793.636658,708
793.755737,663
793.874817,665
793.993896,667
794.112976,643
794.232056,636
794.351074,620
794.470215,658
794.589233,664
794.708313,639
794.827393,645
794.946411,655
795.065552,639
795.18457,637
795.303589,628
795.422668,617
795.541687,618
795.660767,636
795.779846,618
795.898865,628
796.017883,606
796.136963,609
796.255981,602
796.375061,618
796.49408,603
796.613037,587
796.732117,599
796.851135,598
796.970154,618
797.089233,604
797.208191,607
797.327271,595
797.446228,578
797.565186,597
797.684265,606
797.803223,592
797.922241,583
798.04126,582
798.160278,555
798.279297,601
798.398315,580
798.517273,586
798.636292,587
798.75531,581
798.874268,596
798.993286,587
799.112244,593
799.231323,581
799.350281,604
799.469238,597
799.588257,550
799.707153,596
799.826111,582
799.945129,585
800.064087,576
800.183044,564
800.302063,559
800.421021,573
800.539978,577
800.658936,584
800.777893,568
800.896912,556
801.015747,552
801.134705,549
801.253723,561
801.37262,586
801.491638,571
801.610535,571
801.729492,593
801.84845,589
801.967407,573
802.086243,580
802.205261,592
802.324158,554
802.443115,566
802.562073,589
802.680969,577
802.799927,605
802.918762,581
803.037659,559
803.156677,586
803.275574,588
803.39447,565
803.513428,581
803.632263,589
803.751221,581
803.870117,567
803.989014,580
804.107971,559
804.226746,586
804.345642,586
804.4646,603
804.583496,566
804.702393,570
804.821228,572
804.940125,552
805.059021,596
805.177917,586
805.296814,565
805.415649,586
805.534546,586
805.653442,580
805.772278,622
805.891113,590
806.01001,593
806.128906,581
806.247742,608
806.366577,589
806.485413,601
806.604309,582
806.723145,598
806.84198,607
806.960876,589
807.079712,600
807.198486,595
807.317383,583
807.436218,601
807.554993,613
807.673889,588
807.792725,581
807.91156,573
808.030396,578
808.14917,589
808.268005,591
808.386841,575
808.505676,596
808.624451,579
808.743286,591
808.862122,597
808.980896,573
809.099731,600
809.218506,582
809.337341,579
809.456116,601
809.57489,596
809.693726,591
809.8125,586
809.931274,595
810.050049,579
810.168884,596
810.287659,589
810.406372,599
810.525269,594
810.643982,591
810.762756,592
810.881531,610
811.000305,585
811.11908,590
811.237854,591
811.356567,609
811.475403,605
811.594116,593
811.71283,570
811.831604,619
811.950378,610
812.069153,587
812.187927,605
812.30658,580
812.425415,591
812.544128,612
812.662781,608
812.781616,617
812.900269,605
813.019043,584
813.137756,591
813.256531,598
813.375244,576
813.493896,586
813.612671,627
813.731384,597
813.850037,571
813.96875,578
814.087524,589
814.206238,594
814.324951,587
814.443604,572
814.562256,613
814.68103,611
814.799683,580
814.918335,604
815.037109,591
815.155762,600
815.274475,568
815.393188,586
815.511841,584
815.630554,597
815.749146,586
815.867859,569
815.986572,577
816.105164,564
816.223877,591
816.342529,588
816.461182,590
816.579895,582
816.698486,581
816.817139,566
816.935791,582
817.054504,565
817.173096,577
817.291748,558
817.4104,579
817.529053,598
817.647644,586
817.766235,565
817.884949,542
818.00354,555
818.122192,555
818.240845,550
818.359436,541
818.478088,557
818.59668,529
818.715271,539
818.833923,535
818.952515,500
819.071106,511
819.189758,509
819.30835,503
819.426941,519
819.545532,494
819.664124,498
819.782715,514
819.901306,504
820.019897,516
820.138489,520
820.25708,479
820.375671,496
820.494202,485
820.612732,487
820.731384,502
820.849915,491
820.968506,501
821.087097,490
821.205627,500
821.324158,473
821.442749,506
821.561279,490
821.679871,483
821.798401,477
821.916931,481
822.035461,489
822.154053,494
822.272583,491
822.391174,484
822.509583,487
822.628174,484
822.746704,511
822.865234,491
822.983765,501
823.102295,487
823.220825,484
823.339294,478
823.457825,486
823.576355,471
823.694824,489
823.813354,448
823.931885,474
824.050354,488
824.168884,488
824.287354,478
824.405823,486
824.524353,496
824.642822,495
824.761353,482
824.879822,518
824.998291,479
825.116699,496
825.235291,488
825.353699,481
825.472168,463
825.590637,472
825.709106,501
825.827576,475
825.946045,475
826.064453,478
826.182983,483
826.301392,482
826.4198,467
826.53833,476
826.656738,451
826.775208,471
826.893677,477
827.012024,472
827.130493,469
827.248962,470
827.36731,501
827.485779,472
827.604248,497
827.722595,476
827.841064,464
827.959412,475
828.077942,460
828.196289,469
828.314636,453
828.433105,468
828.551514,471
828.669861,493
828.78833,465
828.906677,468
829.025085,485
829.143433,457
829.261841,463
829.38031,470
829.498657,474
829.617004,475
829.735413,454
829.85376,466
829.972107,474
830.090515,474
830.208862,477
830.327209,458
830.445557,466
830.563904,481
830.682312,454
830.800659,460
830.919006,467
831.037354,466
831.155701,464
831.274048,486
831.392395,473
831.51062,496
831.629028,470
831.747314,470
831.865662,461
831.984009,472
832.102356,471
832.220642,467
832.338928,475
832.457275,464
832.575623,474
832.693909,462
832.812134,453
832.930481,461
833.048828,470
833.167114,483
833.2854,461
833.403687,465
833.521973,467
833.640259,473
833.758545,473
833.876831,485
833.995056,477
834.113281,478
834.231628,466
834.349915,484
834.468201,487
834.586426,458
834.704651,461
834.822998,463
834.941162,469
835.059448,488
835.177673,465
835.295959,465
835.414246,466
835.53241,452
835.650635,483
835.768921,478
835.887146,489
836.005371,452
836.123596,465
836.241821,461
836.360046,481
836.478271,472
836.596497,460
836.714722,476
836.832886,474
836.95105,468
837.069336,473
837.1875,489
837.305725,473
837.423889,495
837.542053,482
837.660339,469
837.778503,472
837.896667,479
838.014832,464
838.132996,482
838.25116,481
838.369385,478
838.487488,479
838.605713,483
838.723877,489
838.84198,479
838.960205,457
839.078308,466
839.196472,484
839.314636,476
839.4328,493
839.550964,475
839.669067,475
839.787231,469
839.905396,497
840.023499,489
840.141602,518
840.259766,491
840.377869,489
840.495972,500
840.614136,464
840.732239,468
840.850342,479
840.968445,481
841.086548,464
841.204651,495
841.322754,480
841.440918,485
841.55896,491
841.677002,474
841.795166,485
841.913208,478
842.031311,486
842.149353,488
842.267456,466
842.385498,482
842.503601,462
842.621643,469
842.739746,488
842.857788,469
842.97583,468
843.093933,488
843.211975,474
843.330017,477
843.44812,480
843.566101,485
843.684204,466
843.802246,484
843.920227,451
844.038269,476
844.156311,478
844.274292,454
844.392395,473
844.510376,481
844.628357,466
844.74646,459
844.864441,480
844.982422,468
845.100403,467
845.218384,481
845.336426,473
845.454468,463
845.572449,472
845.69043,468
845.808411,454
845.926453,470
846.044373,471
846.162354,465
846.280396,471
846.398315,475
846.516296,454
846.634216,476
846.752197,472
846.870178,485
846.988098,482
847.106079,487
847.22406,479
847.34198,470
847.4599,477
847.577881,488
847.695801,467
847.813782,473
847.931641,463
848.049561,472
848.167603,468
848.285461,480
848.403381,465
848.521362,481
848.639221,479
848.75708,462
848.875,462
848.99292,484
849.110901,479
849.22876,478
849.34668,468
849.464539,476
849.582458,472
849.700317,477
849.818176,468
849.936096,492
850.053955,477
850.171875,486
850.289673,478
850.407593,477
850.525452,477
850.643311,479
850.761169,474
850.878967,480
850.996887,482
851.114746,466
851.232544,466
851.350403,452
851.468262,489
851.58606,468
851.703979,465
851.821777,474
851.939636,441
852.057434,472
852.175232,472
852.293091,475
852.410889,480
852.528687,490
852.646545,481
852.764343,486
852.88208,461
852.999939,476
853.117676,474
853.235535,476
853.353271,489
853.471069,474
853.588928,481
853.706604,472
853.824402,472
853.9422,467
854.059998,480
854.177734,474
854.295532,471
854.413269,466
854.531006,476
854.648804,468
854.766541,467
854.884277,500
855.002014,476
855.119751,468
855.237549,461
855.355225,481
855.473022,488
855.590698,496
855.708435,470
855.826172,491
855.943848,472
856.061646,489
856.179321,461
856.296997,468
856.414795,471
856.53241,481
856.650085,481
856.767822,470
856.885559,490
857.003174,482
857.120911,498
857.238586,489
857.356201,459
857.473938,478
857.591614,475
857.709351,506
857.826965,467
857.944641,486
858.062317,489
858.179993,487
858.297668,493
858.415283,484
858.532959,481
858.650574,489
858.768188,499
858.885803,476
859.003479,462
859.121094,492
859.23877,483
859.356384,488
859.473999,488
859.591675,481
859.709229,470
859.826843,473
859.944458,491
860.062012,481
860.179626,472
860.297302,480
860.414856,461
860.532471,480
860.650024,464
860.767639,477
860.885193,462
861.002808,466
861.120361,478
861.237976,466
861.35553,469
861.473022,477
861.590698,470
861.708191,472
861.825745,484
861.943298,476
862.060852,478
862.178406,471
862.295959,465
862.413513,470
862.531006,461
862.64856,478
862.766113,467
862.883667,461
863.00116,471
863.118713,476
863.236206,457
863.353699,493
863.471252,460
863.588745,486
863.706177,465
863.82373,476
863.941162,473
864.058716,464
864.176208,484
864.29364,497
864.411194,483
864.528687,474
864.646118,471
864.763611,472
864.881042,483
864.998535,469
865.116028,480
865.233459,478
865.350891,473
865.468384,490
865.585754,465
865.703308,482
865.820679,460
865.938171,475
866.055542,460
866.173035,471
866.290466,458
866.407837,466
866.52533,454
866.6427,462
866.760071,476
866.877563,471
866.994934,457
867.112305,472
867.229736,473
867.347107,462
867.464539,467
867.58197,478
867.699341,473
867.81665,472
867.934082,471
868.051453,483
868.168823,451
868.286194,476
868.403564,489
868.520935,473
868.638306,454
868.755676,475
868.872986,479
868.990295,475
869.107727,476
869.225037,466
869.342346,488
869.459717,480
869.577026,466
869.694336,487
869.811707,474
869.929016,481
870.046326,487
870.163635,487
870.280945,488
870.398254,485
870.515564,487
870.632812,467
870.750183,500
870.867432,486
870.984741,487
871.102051,497
871.219299,478
871.336609,486
871.453918,499
871.571106,497
871.688416,488
871.805664,485
871.922852,487
872.040222,480
872.157471,495
872.274719,476
872.391968,470
872.509155,491
872.626465,490
872.743652,484
872.860962,475
872.978149,468
873.095337,481
873.212646,481
873.329834,469
873.44696,476
873.564209,490
873.681396,484
873.798645,477
873.915894,467
874.03302,463
874.150208,487
874.267456,488
874.384583,476
874.501831,484
874.618958,484
874.736145,487
874.853333,472
874.970459,487
875.087646,491
875.204834,472
875.32196,481
875.439148,495
875.556274,508
875.673401,487
875.790527,468
875.907715,484
876.024841,449
876.141968,486
876.259094,484
876.376282,472
876.493347,477
876.610474,500
876.7276,477
876.844727,474
876.961853,497
877.078918,474
877.195984,468
877.313171,483
877.430237,475
877.547302,479
877.664368,483
877.781433,481
877.898499,480
878.015625,489
878.13269,465
878.249695,458
878.366821,477
878.483887,502
878.600952,482
878.717957,488
878.834961,484
878.952087,476
879.069092,465
879.186157,471
879.303162,456
879.420227,478
879.537231,455
879.654236,473
879.77124,459
879.888306,449
880.005249,464
880.122314,489
880.239319,468
880.356323,451
880.473328,494
880.590271,469
880.707275,477
880.824341,472
880.941284,452
881.058228,454
881.175232,476
881.292236,461
881.40918,452
881.526123,461
881.643066,482
881.760071,455
881.877014,485
881.993958,464
882.11084,450
882.227783,458
882.344727,443
882.46167,468
882.578613,462
882.695618,467
882.812439,470
882.929382,467
883.046326,470
883.163208,475
883.280151,487
883.397034,477
883.513916,472
883.630798,481
883.747742,483
883.864563,470
883.981506,481
884.098389,474
884.21521,488
884.332153,475
884.448975,493
884.565796,477
884.682678,486
884.7995,481
884.916443,478
885.033264,490
885.150085,490
885.266968,518
885.383789,499
885.500671,524
885.617493,500
885.734314,493
885.851196,513
885.967896,494
886.084717,519
886.201599,497
886.318359,498
886.435181,512
886.552002,494
886.668762,514
886.785645,492
886.902344,489
887.019165,518
887.135925,497
887.252747,510
887.369446,488
887.486267,500
887.603027,500
887.719788,476
887.836548,479
887.953247,484
888.070068,461
888.186829,481
888.303528,467
888.420288,489
888.536987,460
888.653687,478
888.770447,477
888.887146,477
889.003967,496
889.120667,475
889.237305,483
889.354065,488
889.470703,472
889.587463,487
889.704163,482
889.820862,462
889.937561,479
890.054199,460
890.170837,470
890.287598,504
890.404236,466
890.520874,476
890.637634,490
890.754211,463
890.87085,477
890.987549,473
891.104187,464
891.220886,468
891.337463,473
891.454102,482
891.57074,480
891.687378,471
891.804077,485
891.920654,489
892.037231,472
892.15387,476
892.270447,476
892.387085,467
892.503723,483
892.6203,512
892.736877,460
892.853516,469
892.970032,463
893.08667,478
893.203186,464
893.319763,479
893.43634,468
893.552917,477
893.669556,492
893.786011,474
893.902588,494
894.019165,462
894.135681,492
894.252197,509
894.368835,486
894.485291,471
894.601868,462
894.718384,506
894.8349,459
894.951355,484
895.067932,469
895.184448,474
895.300964,473
895.417419,474
895.533936,477
895.650452,478
895.766907,477
895.883423,481
895.999878,467
896.116333,489
896.232849,464
896.349304,487
896.465759,476
896.582214,469
896.698669,487
896.815125,484
896.931641,489
897.048035,476
897.164551,471
897.280884,460
897.397339,471
897.513794,501
897.630249,479
897.746582,473
897.863098,458
897.979431,476
898.095886,461
898.212341,475
898.328674,478
898.445129,479
898.561462,473
898.677795,484
898.794312,464
898.910645,467
899.026978,485
899.143433,482
899.259766,480
899.37616,485
899.492493,496
899.608765,491
899.725159,482
899.841553,469
899.957947,478
900.07428,482
900.190552,495
900.306946,468
900.423157,478
900.53949,487
900.655884,471
900.772156,500
900.888489,472
901.004822,490
901.121033,473
901.237366,484
901.353699,479
901.46991,489
901.586304,492
901.702515,476
901.818787,478
901.93512,477
902.051331,493
902.167603,512
902.283875,495
902.400085,496
902.516418,481
902.632629,519
902.74884,521
902.865112,502
902.981384,500
903.097595,514
903.213867,489
903.330017,497
903.446289,495
903.5625,484
903.67865,502
903.794922,482
903.911072,507
904.027344,506
904.143494,506
904.259705,505
904.375916,502
904.492065,497
904.608215,475
904.724426,470
904.840576,470
904.956726,499
905.072876,480
905.189087,503
905.305176,474
905.421387,468
905.537537,479
905.653687,478
905.769775,494
905.885925,483
906.002014,478
906.118164,478
906.234314,490
906.350403,494
906.466492,490
906.582642,497
906.69873,472
906.814758,505
906.930908,474
907.046936,478
907.163086,476
907.279175,473
907.395264,481
907.511353,483
907.62738,502
907.743408,469
907.859497,467
907.975525,503
908.091553,472
908.207703,482
908.32373,484
908.439758,483
908.555786,476
908.671814,479
908.787842,491
908.90387,479
909.019775,494
909.135864,488
909.251892,497
909.367859,481
909.483826,484
909.599854,482
909.715881,481
909.831848,502
909.947815,478
910.063782,480
910.179749,471
910.295776,491
910.411743,481
910.527649,475
910.643616,479
910.759583,474
910.875488,500
910.991455,487
911.107361,488
911.223267,508
911.339294,476
911.4552,490
911.571106,475
911.687073,485
911.802979,506
911.918823,482
912.034729,476
912.150635,489
912.266602,467
912.382446,474
912.498352,488
912.614197,458
912.730103,462
912.846008,471
792.44574,731
792.56488,741
792.68396,778
792.80304,748
792.92218,738
793.041199,674
793.160339,690
793.279419,699
793.398499,692
793.517578,696
793.636658,658
793.755737,676
793.874817,705
793.993896,687
794.112976,666
794.232056,622
794.351074,659
794.470215,632
794.589233,630
794.708313,648
794.827393,630
794.946411,632
795.065552,634
795.18457,629
795.303589,605
795.422668,642
795.541687,617
795.660767,631
795.779846,600
795.898865,604
796.017883,604
796.136963,597
796.255981,621
796.375061,601
796.49408,611
796.613037,585
796.732117,594
796.851135,601
796.970154,613
797.089233,572
797.208191,585
797.327271,594
797.446228,586
797.565186,591
797.684265,586
797.803223,605
797.922241,588
798.04126,608
798.160278,594
798.279297,594
798.398315,587
798.517273,584
798.636292,597
798.75531,565
798.874268,567
798.993286,596
799.112244,600
799.231323,598
799.350281,591
799.469238,590
799.588257,577
799.707153,565
799.826111,581
799.945129,559
800.064087,593
800.183044,586
800.302063,575
800.421021,591
800.539978,594
800.658936,558
800.777893,585
800.896912,563
801.015747,574
801.134705,589
801.253723,569
801.37262,575
801.491638,619
801.610535,560
801.729492,576
801.84845,551
801.967407,587
802.086243,591
802.205261,604
802.324158,585
802.443115,577
802.562073,578
802.680969,580
802.799927,574
802.918762,576
803.037659,578
803.156677,584
803.275574,554
803.39447,572
803.513428,570
803.632263,576
803.751221,578
803.870117,589
803.989014,567
804.107971,575
804.226746,564
804.345642,581
804.4646,589
804.583496,591
804.702393,557
804.821228,577
804.940125,591
805.059021,582
805.177917,593
805.296814,579
805.415649,566
805.534546,598
805.653442,561
805.772278,586
805.891113,587
806.01001,581
806.128906,589
806.247742,605
806.366577,576
806.485413,585
806.604309,602
806.723145,585
806.84198,588
806.960876,566
807.079712,582
807.198486,584
807.317383,579
807.436218,587
807.554993,578
807.673889,571
807.792725,564
807.91156,611
808.030396,594
808.14917,572
808.268005,565
808.386841,591
808.505676,600
808.624451,585
808.743286,596
808.862122,591
808.980896,565
809.099731,598
809.218506,580
809.337341,608
809.456116,589
809.57489,558
809.693726,573
809.8125,592
809.931274,616
810.050049,601
810.168884,632
810.287659,570
810.406372,583
810.525269,603
810.643982,583
810.762756,603
810.881531,589
811.000305,605
811.11908,593
811.237854,599
811.356567,612
811.475403,601
811.594116,600
811.71283,574
811.831604,621
811.950378,597
812.069153,600
812.187927,582
812.30658,596
812.425415,593
812.544128,597
812.662781,607
812.781616,596
812.900269,614
813.019043,575
813.137756,608
813.256531,613
813.375244,581
813.493896,580
813.612671,599
813.731384,601
813.850037,604
813.96875,597
814.087524,599
814.206238,570
814.324951,601
814.443604,582
814.562256,599
814.68103,594
814.799683,580
814.918335,583
815.037109,580
815.155762,592
815.274475,577
815.393188,605
815.511841,600
815.630554,590
815.749146,568
815.867859,576
815.986572,584
816.105164,564
816.223877,592
816.342529,562
816.461182,564
816.579895,569
816.698486,595
816.817139,594
816.935791,601
817.054504,590
817.173096,583
817.291748,573
817.4104,580
817.529053,576
817.647644,575
817.766235,568
817.884949,565
818.00354,540
818.122192,565
818.240845,521
818.359436,526
818.478088,512
818.59668,532
818.715271,517
818.833923,536
818.952515,520
819.071106,507
819.189758,518
819.30835,507
819.426941,509
819.545532,517
819.664124,499
819.782715,511
819.901306,498
820.019897,509
820.138489,508
820.25708,502
820.375671,507
820.494202,509
820.612732,502
820.731384,506
820.849915,513
820.968506,525
821.087097,491
821.205627,494
821.324158,485
821.442749,510
821.561279,504
821.679871,498
821.798401,481
821.916931,502
822.035461,478
822.154053,482
822.272583,501
822.391174,479
822.509583,485
822.628174,484
822.746704,484
822.865234,492
822.983765,478
823.102295,478
823.220825,487
823.339294,472
823.457825,473
823.576355,506
823.694824,487
823.813354,482
823.931885,495
824.050354,472
824.168884,484
824.287354,493
824.405823,491
824.524353,514
824.642822,483
824.761353,495
824.879822,497
824.998291,480
825.116699,495
825.235291,466
825.353699,490
825.472168,473
825.590637,472
825.709106,503
825.827576,459
825.946045,488
826.064453,464
826.182983,468
826.301392,493
826.4198,465
826.53833,503
826.656738,476
826.775208,477
826.893677,467
827.012024,448
827.130493,484
827.248962,458
827.36731,481
827.485779,474
827.604248,466
827.722595,481
827.841064,486
827.959412,474
828.077942,466
828.196289,478
828.314636,460
828.433105,470
828.551514,469
828.669861,449
828.78833,460
828.906677,464
829.025085,462
829.143433,472
829.261841,464
829.38031,468
829.498657,455
829.617004,471
829.735413,469
829.85376,472
829.972107,492
830.090515,460
830.208862,458
830.327209,455
830.445557,462
830.563904,465
830.682312,467
830.800659,462
830.919006,477
831.037354,490
831.155701,480
831.274048,474
831.392395,455
831.51062,468
831.629028,469
831.747314,458
831.865662,471
831.984009,481
832.102356,467
832.220642,472
832.338928,466
832.457275,448
832.575623,445
832.693909,482
832.812134,477
832.930481,460
833.048828,475
833.167114,473
833.2854,483
833.403687,460
833.521973,469
833.640259,475
833.758545,469
833.876831,465
833.995056,487
834.113281,468
834.231628,461
834.349915,472
834.468201,488
834.586426,469
834.704651,467
834.822998,479
834.941162,469
835.059448,473
835.177673,464
835.295959,460
835.414246,479
835.53241,483
835.650635,478
835.768921,484
835.887146,464
836.005371,452
836.123596,472
836.241821,458
836.360046,464
836.478271,477
836.596497,475
836.714722,486
836.832886,471
836.95105,480
837.069336,480
837.1875,485
837.305725,485
837.423889,505
837.542053,506
837.660339,469
837.778503,482
837.896667,476
838.014832,483
838.132996,456
838.25116,480
838.369385,490
838.487488,488
838.605713,477
838.723877,483
838.84198,485
838.960205,486
839.078308,466
839.196472,469
839.314636,491
839.4328,479
839.550964,463
839.669067,500
839.787231,499
839.905396,479
840.023499,503
840.141602,494
840.259766,472
840.377869,482
840.495972,466
840.614136,476
840.732239,483
840.850342,503
840.968445,487
841.086548,483
841.204651,481
841.322754,465
841.440918,474
841.55896,485
841.677002,489
841.795166,494
841.913208,478
842.031311,483
842.149353,466
842.267456,486
842.385498,466
842.503601,475
842.621643,504
842.739746,472
842.857788,465
842.97583,489
843.093933,475
843.211975,488
843.330017,468
843.44812,491
843.566101,465
843.684204,480
843.802246,466
843.920227,507
844.038269,471
844.156311,464
844.274292,473
844.392395,466
844.510376,481
844.628357,468
844.74646,469
844.864441,486
844.982422,468
845.100403,488
845.218384,471
845.336426,456
845.454468,479
845.572449,456
845.69043,476
845.808411,496
845.926453,463
846.044373,462
846.162354,462
846.280396,449
846.398315,447
846.516296,464
846.634216,458
846.752197,485
846.870178,485
846.988098,479
847.106079,463
847.22406,462
847.34198,464
847.4599,470
847.577881,469
847.695801,488
847.813782,473
847.931641,462
848.049561,465
848.167603,464
848.285461,462
848.403381,483
848.521362,445
848.639221,467
848.75708,461
848.875,472
848.99292,469
849.110901,489
849.22876,469
849.34668,470
849.464539,473
849.582458,479
849.700317,461
849.818176,452
849.936096,471
850.053955,487
850.171875,470
850.289673,472
850.407593,473
850.525452,473
850.643311,460
850.761169,473
850.878967,485
850.996887,494
851.114746,475
851.232544,453
851.350403,480
851.468262,479
851.58606,452
851.703979,502
851.821777,465
851.939636,472
852.057434,468
852.175232,473
852.293091,463
852.410889,484
852.528687,486
852.646545,465
852.764343,491
852.88208,466
852.999939,458
853.117676,481
853.235535,470
853.353271,462
853.471069,484
853.588928,475
853.706604,476
853.824402,485
853.9422,473
854.059998,470
854.177734,474
854.295532,478
854.413269,478
854.531006,500
854.648804,466
854.766541,481
854.884277,470
855.002014,455
855.119751,473
855.237549,499
855.355225,476
855.473022,486
855.590698,473
855.708435,477
855.826172,471
855.943848,499
856.061646,468
856.179321,471
856.296997,480
856.414795,472
856.53241,474
856.650085,498
856.767822,477
856.885559,473
857.003174,486
857.120911,491
857.238586,481
857.356201,488
857.473938,483
857.591614,477
857.709351,472
857.826965,496
857.944641,487
858.062317,475
858.179993,470
858.297668,478
858.415283,491
858.532959,486
858.650574,456
858.768188,475
858.885803,475
859.003479,472
859.121094,464
859.23877,476
859.356384,463
859.473999,492
859.591675,488
859.709229,463
859.826843,474
859.944458,474
860.062012,462
860.179626,473
860.297302,474
860.414856,468
860.532471,506
860.650024,470
860.767639,456
860.885193,482
861.002808,463
861.120361,477
861.237976,461
861.35553,472
861.473022,476
861.590698,477
861.708191,482
861.825745,471
861.943298,473
862.060852,468
862.178406,462
862.295959,472
862.413513,459
862.531006,472
862.64856,457
862.766113,469
862.883667,462
863.00116,465
863.118713,477
863.236206,484
863.353699,484
863.471252,486
863.588745,471
863.706177,454
863.82373,456
863.941162,491
864.058716,478
864.176208,493
864.29364,466
864.411194,496
864.528687,475
864.646118,479
864.763611,476
864.881042,483
864.998535,456
865.116028,487
865.233459,456
865.350891,470
865.468384,473
865.585754,485
865.703308,474
865.820679,469
865.938171,468
866.055542,483
866.173035,471
866.290466,466
866.407837,456
866.52533,464
866.6427,464
866.760071,473
866.877563,475
866.994934,490
867.112305,452
867.229736,477
867.347107,452
867.464539,478
867.58197,474
867.699341,469
867.81665,478
867.934082,480
868.051453,465
868.168823,510
868.286194,477
868.403564,478
868.520935,460
868.638306,478
868.755676,487
868.872986,493
868.990295,465
869.107727,477
869.225037,461
869.342346,492
869.459717,482
869.577026,469
869.694336,465
869.811707,466
869.929016,471
870.046326,483
870.163635,463
870.280945,485
870.398254,457
870.515564,482
870.632812,488
870.750183,465
870.867432,474
870.984741,482
871.102051,477
871.219299,484
871.336609,483
871.453918,491
871.571106,473
871.688416,493
871.805664,484
871.922852,495
872.040222,485
872.157471,485
872.274719,498
872.391968,512
872.509155,482
872.626465,472
872.743652,489
872.860962,486
872.978149,471
873.095337,486
873.212646,472
873.329834,455
873.44696,483
873.564209,474
873.681396,457
873.798645,469
873.915894,503
874.03302,485
874.150208,470
874.267456,488
874.384583,489
874.501831,494
874.618958,498
874.736145,499
874.853333,459
874.970459,509
875.087646,482
875.204834,504
875.32196,464
875.439148,479
875.556274,470
875.673401,492
875.790527,484
875.907715,485
876.024841,463
876.141968,482
876.259094,491
876.376282,487
876.493347,464
876.610474,487
876.7276,487
876.844727,488
876.961853,479
877.078918,478
877.195984,477
877.313171,483
877.430237,475
877.547302,491
877.664368,473
877.781433,473
877.898499,465
878.015625,477
878.13269,446
878.249695,480
878.366821,489
878.483887,460
878.600952,473
878.717957,496
878.834961,497
878.952087,467
879.069092,466
879.186157,467
879.303162,485
879.420227,469
879.537231,489
879.654236,504
879.77124,480
879.888306,475
880.005249,461
880.122314,463
880.239319,474
880.356323,478
880.473328,447
880.590271,471
880.707275,467
880.824341,457
880.941284,462
881.058228,474
881.175232,468
881.292236,471
881.40918,478
881.526123,484
881.643066,451
881.760071,486
881.877014,474
881.993958,477
882.11084,474
882.227783,467
882.344727,465
882.46167,481
882.578613,455
882.695618,479
882.812439,473
882.929382,470
883.046326,466
883.163208,487
883.280151,476
883.397034,460
883.513916,485
883.630798,468
883.747742,471
883.864563,479
883.981506,487
884.098389,464
884.21521,466
884.332153,487
884.448975,490
884.565796,469
884.682678,492
884.7995,512
884.916443,501
885.033264,502
885.150085,511
885.266968,525
885.383789,519
885.500671,536
885.617493,507
885.734314,509
885.851196,508
885.967896,493
886.084717,499
886.201599,515
886.318359,490
886.435181,512
886.552002,482
886.668762,496
886.785645,506
886.902344,503
887.019165,492
887.135925,504
887.252747,481
887.369446,496
887.486267,497
887.603027,504
887.719788,478
887.836548,477
887.953247,454
888.070068,493
888.186829,477
888.303528,501
888.420288,495
888.536987,453
888.653687,488
888.770447,507
888.887146,475
889.003967,465
889.120667,483
889.237305,479
889.354065,476
889.470703,465
889.587463,472
889.704163,484
889.820862,460
889.937561,471
890.054199,482
890.170837,479
890.287598,482
890.404236,458
890.520874,464
890.637634,478
890.754211,478
890.87085,478
890.987549,487
891.104187,472
891.220886,474
891.337463,483
891.454102,467
891.57074,483
891.687378,489
891.804077,486
891.920654,495
892.037231,479
892.15387,472
892.270447,468
892.387085,458
892.503723,478
892.6203,483
892.736877,466
892.853516,471
892.970032,482
893.08667,458
893.203186,480
893.319763,468
893.43634,458
893.552917,448
893.669556,483
893.786011,480
893.902588,480
894.019165,489
894.135681,463
894.252197,471
894.368835,481
894.485291,473
894.601868,466
894.718384,481
894.8349,492
894.951355,451
895.067932,477
895.184448,457
895.300964,486
895.417419,466
895.533936,482
895.650452,488
895.766907,475
895.883423,468
895.999878,465
896.116333,481
896.232849,473
896.349304,468
896.465759,478
896.582214,474
896.698669,483
896.815125,480
896.931641,481
897.048035,474
897.164551,483
897.280884,478
897.397339,496
897.513794,477
897.630249,499
897.746582,480
897.863098,486
897.979431,472
898.095886,487
898.212341,501
898.328674,502
898.445129,451
898.561462,474
898.677795,459
898.794312,476
898.910645,477
899.026978,474
899.143433,474
899.259766,483
899.37616,481
899.492493,494
899.608765,466
899.725159,494
899.841553,469
899.957947,479
900.07428,481
900.190552,497
900.306946,481
900.423157,485
900.53949,481
900.655884,505
900.772156,476
900.888489,466
901.004822,482
901.121033,507
901.237366,495
901.353699,490
901.46991,495
901.586304,475
901.702515,495
901.818787,482
901.93512,479
902.051331,488
902.167603,491
902.283875,521
902.400085,492
902.516418,492
902.632629,508
902.74884,502
902.865112,521
902.981384,497
903.097595,495
903.213867,492
903.330017,491
903.446289,496
903.5625,486
903.67865,494
903.794922,492
903.911072,521
904.027344,479
904.143494,497
904.259705,484
904.375916,498
904.492065,502
904.608215,501
904.724426,473
904.840576,490
904.956726,485
905.072876,480
905.189087,490
905.305176,479
905.421387,473
905.537537,507
905.653687,469
905.769775,502
905.885925,487
906.002014,487
906.118164,471
906.234314,490
906.350403,494
906.466492,482
906.582642,483
906.69873,490
906.814758,473
906.930908,484
907.046936,480
907.163086,481
907.279175,482
907.395264,499
907.511353,478
907.62738,485
907.743408,469
907.859497,478
907.975525,511
908.091553,485
908.207703,484
908.32373,495
908.439758,480
908.555786,477
908.671814,487
908.787842,484
908.90387,484
909.019775,486
909.135864,478
909.251892,474
909.367859,472
909.483826,485
909.599854,450
909.715881,501
909.831848,471
909.947815,506
910.063782,465
910.179749,483
910.295776,489
910.411743,474
910.527649,491
910.643616,497
910.759583,489
910.875488,481
910.991455,473
911.107361,514
911.223267,479
911.339294,488
911.4552,468
911.571106,505
911.687073,481
911.802979,484
911.918823,476
912.034729,476
912.150635,487
912.266602,461
912.382446,474
912.498352,483
912.614197,496
912.730103,492
912.846008,467
