792.44574,607
792.56488,632
792.68396,676
792.80304,642
792.92218,590
793.041199,590
793.160339,586
793.279419,604
793.398499,597
793.517578,585
793.636658,591
793.755737,596
793.874817,607
793.993896,620
794.112976,595
794.232056,611
794.351074,575
794.470215,567
794.589233,623
794.708313,582
794.827393,576
794.946411,570
795.065552,592
795.18457,586
795.303589,612
795.422668,584
795.541687,581
795.660767,570
795.779846,606
795.898865,559
796.017883,577
796.136963,563
796.255981,576
796.375061,574
796.49408,537
796.613037,593
796.732117,568
796.851135,575
796.970154,566
797.089233,561
797.208191,570
797.327271,549
797.446228,581
797.565186,587
797.684265,562
797.803223,571
797.922241,568
798.04126,567
798.160278,563
798.279297,572
798.398315,559
798.517273,553
798.636292,574
798.75531,585
798.874268,569
798.993286,575
799.112244,536
799.231323,558
799.350281,549
799.469238,563
799.588257,569
799.707153,557
799.826111,548
799.945129,578
800.064087,559
800.183044,580
800.302063,554
800.421021,577
800.539978,560
800.658936,560
800.777893,580
800.896912,570
801.015747,575
801.134705,564
801.253723,591
801.37262,591
801.491638,548
801.610535,595
801.729492,587
801.84845,576
801.967407,576
802.086243,569
802.205261,569
802.324158,600
802.443115,544
802.562073,591
802.680969,597
802.799927,580
802.918762,576
803.037659,572
803.156677,574
803.275574,607
803.39447,589
803.513428,576
803.632263,570
803.751221,583
803.870117,576
803.989014,587
804.107971,588
804.226746,601
804.345642,582
804.4646,591
804.583496,586
804.702393,590
804.821228,606
804.940125,584
805.059021,573
805.177917,604
805.296814,590
805.415649,599
805.534546,600
805.653442,599
805.772278,603
805.891113,588
806.01001,616
806.128906,607
806.247742,597
806.366577,588
806.485413,595
806.604309,591
806.723145,583
806.84198,591
806.960876,589
807.079712,605
807.198486,581
807.317383,622
807.436218,576
807.554993,602
807.673889,624
807.792725,600
807.91156,592
808.030396,604
808.14917,598
808.268005,586
808.386841,596
808.505676,596
808.624451,596
808.743286,629
808.862122,600
808.980896,609
809.099731,613
809.218506,605
809.337341,604
809.456116,619
809.57489,603
809.693726,615
809.8125,596
809.931274,612
810.050049,617
810.168884,625
810.287659,609
810.406372,604
810.525269,640
810.643982,622
810.762756,620
810.881531,604
811.000305,627
811.11908,616
811.237854,606
811.356567,596
811.475403,618
811.594116,607
811.71283,616
811.831604,609
811.950378,609
812.069153,627
812.187927,603
812.30658,617
812.425415,613
812.544128,620
812.662781,588
812.781616,634
812.900269,603
813.019043,629
813.137756,625
813.256531,629
813.375244,618
813.493896,633
813.612671,621
813.731384,595
813.850037,621
813.96875,616
814.087524,607
814.206238,611
814.324951,631
814.443604,621
814.562256,598
814.68103,620
814.799683,606
814.918335,620
815.037109,638
815.155762,621
815.274475,629
815.393188,606
815.511841,598
815.630554,615
815.749146,626
815.867859,585
815.986572,620
816.105164,620
816.223877,616
816.342529,591
816.461182,585
816.579895,611
816.698486,604
816.817139,601
816.935791,597
817.054504,614
817.173096,626
817.291748,618
817.4104,596
817.529053,591
817.647644,590
817.766235,596
817.884949,574
818.00354,549
818.122192,548
818.240845,555
818.359436,541
818.478088,521
818.59668,530
818.715271,523
818.833923,516
818.952515,525
819.071106,515
819.189758,509
819.30835,507
819.426941,486
819.545532,504
819.664124,474
819.782715,470
819.901306,504
820.019897,513
820.138489,488
820.25708,496
820.375671,512
820.494202,493
820.612732,493
820.731384,476
820.849915,468
820.968506,461
821.087097,493
821.205627,485
821.324158,484
821.442749,481
821.561279,490
821.679871,461
821.798401,491
821.916931,462
822.035461,492
822.154053,463
822.272583,473
822.391174,476
822.509583,472
822.628174,487
822.746704,483
822.865234,490
822.983765,473
823.102295,480
823.220825,491
823.339294,486
823.457825,487
823.576355,481
823.694824,496
823.813354,486
823.931885,481
824.050354,473
824.168884,503
824.287354,483
824.405823,471
824.524353,477
824.642822,494
824.761353,491
824.879822,473
824.998291,506
825.116699,516
825.235291,486
825.353699,466
825.472168,488
825.590637,464
825.709106,471
825.827576,464
825.946045,470
826.064453,480
826.182983,446
826.301392,474
826.4198,469
826.53833,465
826.656738,475
826.775208,460
826.893677,481
827.012024,476
827.130493,458
827.248962,478
827.36731,467
827.485779,457
827.604248,475
827.722595,460
827.841064,477
827.959412,452
828.077942,458
828.196289,460
828.314636,476
828.433105,454
828.551514,436
828.669861,452
828.78833,464
828.906677,466
829.025085,456
829.143433,474
829.261841,465
829.38031,462
829.498657,467
829.617004,454
829.735413,447
829.85376,444
829.972107,439
830.090515,467
830.208862,475
830.327209,468
830.445557,462
830.563904,436
830.682312,467
830.800659,462
830.919006,468
831.037354,463
831.155701,448
831.274048,449
831.392395,464
831.51062,453
831.629028,450
831.747314,457
831.865662,440
831.984009,440
832.102356,474
832.220642,465
832.338928,455
832.457275,450
832.575623,455
832.693909,447
832.812134,449
832.930481,441
833.048828,474
833.167114,463
833.2854,446
833.403687,448
833.521973,466
833.640259,468
833.758545,462
833.876831,458
833.995056,457
834.113281,445
834.231628,453
834.349915,471
834.468201,457
834.586426,446
834.704651,475
834.822998,470
834.941162,460
835.059448,454
835.177673,449
835.295959,453
835.414246,451
835.53241,470
835.650635,453
835.768921,475
835.887146,459
836.005371,474
836.123596,460
836.241821,476
836.360046,454
836.478271,470
836.596497,463
836.714722,462
836.832886,465
836.95105,481
837.069336,462
837.1875,462
837.305725,468
837.423889,476
837.542053,486
837.660339,462
837.778503,484
837.896667,437
838.014832,467
838.132996,466
838.25116,477
838.369385,465
838.487488,465
838.605713,474
838.723877,468
838.84198,471
838.960205,465
839.078308,453
839.196472,470
839.314636,470
839.4328,464
839.550964,496
839.669067,471
839.787231,486
839.905396,448
840.023499,453
840.141602,460
840.259766,459
840.377869,460
840.495972,463
840.614136,456
840.732239,480
840.850342,452
840.968445,442
841.086548,472
841.204651,469
841.322754,459
841.440918,458
841.55896,461
841.677002,464
841.795166,437
841.913208,468
842.031311,461
842.149353,449
842.267456,459
842.385498,465
842.503601,438
842.621643,461
842.739746,457
842.857788,452
842.97583,461
843.093933,446
843.211975,454
843.330017,456
843.44812,459
843.566101,434
843.684204,439
843.802246,458
843.920227,435
844.038269,452
844.156311,455
844.274292,440
844.392395,465
844.510376,457
844.628357,457
844.74646,444
844.864441,443
844.982422,437
845.100403,438
845.218384,448
845.336426,452
845.454468,451
845.572449,433
845.69043,433
845.808411,457
845.926453,431
846.044373,453
846.162354,461
846.280396,464
846.398315,441
846.516296,461
846.634216,446
846.752197,452
846.870178,458
846.988098,451
847.106079,436
847.22406,455
847.34198,450
847.4599,445
847.577881,450
847.695801,447
847.813782,448
847.931641,450
848.049561,455
848.167603,427
848.285461,447
848.403381,432
848.521362,437
848.639221,435
848.75708,453
848.875,459
848.99292,461
849.110901,442
849.22876,454
849.34668,468
849.464539,429
849.582458,457
849.700317,444
849.818176,451
849.936096,453
850.053955,429
850.171875,462
850.289673,441
850.407593,431
850.525452,451
850.643311,452
850.761169,445
850.878967,441
850.996887,461
851.114746,461
851.232544,435
851.350403,460
851.468262,447
851.58606,447
851.703979,453
851.821777,440
851.939636,446
852.057434,448
852.175232,436
852.293091,453
852.410889,467
852.528687,452
852.646545,474
852.764343,471
852.88208,446
852.999939,452
853.117676,452
853.235535,454
853.353271,450
853.471069,439
853.588928,429
853.706604,443
853.824402,429
853.9422,459
854.059998,455
854.177734,436
854.295532,453
854.413269,473
854.531006,439
854.648804,442
854.766541,452
854.884277,472
855.002014,447
855.119751,443
855.237549,461
855.355225,459
855.473022,454
855.590698,440
855.708435,456
855.826172,457
855.943848,452
856.061646,453
856.179321,432
856.296997,472
856.414795,455
856.53241,465
856.650085,468
856.767822,465
856.885559,465
857.003174,447
857.120911,460
857.238586,465
857.356201,444
857.473938,455
857.591614,453
857.709351,470
857.826965,465
857.944641,443
858.062317,475
858.179993,462
858.297668,465
858.415283,459
858.532959,460
858.650574,464
858.768188,476
858.885803,454
859.003479,434
859.121094,451
859.23877,444
859.356384,455
859.473999,462
859.591675,458
859.709229,458
859.826843,455
859.944458,451
860.062012,465
860.179626,462
860.297302,479
860.414856,449
860.532471,455
860.650024,446
860.767639,472
860.885193,455
861.002808,453
861.120361,462
861.237976,456
861.35553,457
861.473022,455
861.590698,455
861.708191,467
861.825745,467
861.943298,467
862.060852,461
862.178406,457
862.295959,448
862.413513,473
862.531006,456
862.64856,433
862.766113,441
862.883667,460
863.00116,439
863.118713,454
863.236206,449
863.353699,470
863.471252,446
863.588745,449
863.706177,448
863.82373,454
863.941162,462
864.058716,443
864.176208,456
864.29364,461
864.411194,446
864.528687,449
864.646118,458
864.763611,453
864.881042,456
864.998535,448
865.116028,455
865.233459,452
865.350891,444
865.468384,455
865.585754,484
865.703308,461
865.820679,449
865.938171,461
866.055542,459
866.173035,471
866.290466,461
866.407837,473
866.52533,458
866.6427,456
866.760071,440
866.877563,455
866.994934,445
867.112305,460
867.229736,487
867.347107,451
867.464539,430
867.58197,455
867.699341,442
867.81665,459
867.934082,456
868.051453,454
868.168823,461
868.286194,475
868.403564,475
868.520935,475
868.638306,451
868.755676,453
868.872986,462
868.990295,450
869.107727,449
869.225037,435
869.342346,458
869.459717,454
869.577026,439
869.694336,466
869.811707,464
869.929016,455
870.046326,435
870.163635,453
870.280945,465
870.398254,456
870.515564,457
870.632812,452
870.750183,468
870.867432,458
870.984741,460
871.102051,470
871.219299,457
871.336609,458
871.453918,455
871.571106,463
871.688416,466
871.805664,431
871.922852,452
872.040222,474
872.157471,440
872.274719,465
872.391968,458
872.509155,455
872.626465,454
872.743652,451
872.860962,468
872.978149,463
873.095337,450
873.212646,463
873.329834,461
873.44696,451
873.564209,463
873.681396,456
873.798645,446
873.915894,461
874.03302,459
874.150208,473
874.267456,445
874.384583,455
874.501831,459
874.618958,446
874.736145,446
874.853333,440
874.970459,438
875.087646,438
875.204834,459
875.32196,453
875.439148,463
875.556274,447
875.673401,447
875.790527,452
875.907715,480
876.024841,446
876.141968,465
876.259094,436
876.376282,468
876.493347,454
876.610474,462
876.7276,445
876.844727,468
876.961853,473
877.078918,458
877.195984,455
877.313171,460
877.430237,466
877.547302,470
877.664368,447
877.781433,451
877.898499,466
878.015625,449
878.13269,452
878.249695,448
878.366821,473
878.483887,473
878.600952,444
878.717957,458
878.834961,459
878.952087,435
879.069092,459
879.186157,456
879.303162,450
879.420227,477
879.537231,470
879.654236,453
879.77124,460
879.888306,452
880.005249,448
880.122314,451
880.239319,457
880.356323,455
880.473328,458
880.590271,474
880.707275,457
880.824341,441
880.941284,461
881.058228,467
881.175232,451
881.292236,440
881.40918,450
881.526123,453
881.643066,474
881.760071,486
881.877014,462
881.993958,450
882.11084,467
882.227783,451
882.344727,443
882.46167,465
882.578613,465
882.695618,478
882.812439,457
882.929382,468
883.046326,469
883.163208,449
883.280151,462
883.397034,459
883.513916,447
883.630798,449
883.747742,459
883.864563,471
883.981506,476
884.098389,455
884.21521,456
884.332153,460
884.448975,445
884.565796,448
884.682678,443
884.7995,453
884.916443,451
885.033264,471
885.150085,473
885.266968,441
885.383789,447
885.500671,460
885.617493,462
885.734314,461
885.851196,457
885.967896,470
886.084717,477
886.201599,470
886.318359,474
886.435181,453
886.552002,459
886.668762,460
886.785645,453
886.902344,486
887.019165,488
887.135925,439
887.252747,455
887.369446,448
887.486267,466
887.603027,467
887.719788,496
887.836548,460
887.953247,470
888.070068,465
888.186829,471
888.303528,484
888.420288,467
888.536987,459
888.653687,449
888.770447,454
888.887146,457
889.003967,461
889.120667,465
889.237305,474
889.354065,473
889.470703,464
889.587463,469
889.704163,454
889.820862,493
889.937561,471
890.054199,479
890.170837,473
890.287598,485
890.404236,488
890.520874,471
890.637634,466
890.754211,480
890.87085,480
890.987549,474
891.104187,467
891.220886,482
891.337463,468
891.454102,479
891.57074,480
891.687378,469
891.804077,477
891.920654,449
892.037231,469
892.15387,474
892.270447,469
892.387085,462
892.503723,454
892.6203,455
892.736877,464
892.853516,463
892.970032,467
893.08667,471
893.203186,471
893.319763,475
893.43634,451
893.552917,474
893.669556,482
893.786011,475
893.902588,461
894.019165,467
894.135681,450
894.252197,481
894.368835,477
894.485291,441
894.601868,459
894.718384,480
894.8349,471
894.951355,473
895.067932,473
895.184448,465
895.300964,486
895.417419,480
895.533936,460
895.650452,481
895.766907,452
895.883423,468
895.999878,471
896.116333,459
896.232849,481
896.349304,472
896.465759,460
896.582214,463
896.698669,466
896.815125,465
896.931641,460
897.048035,480
897.164551,479
897.280884,467
897.397339,483
897.513794,483
897.630249,467
897.746582,454
897.863098,468
897.979431,449
898.095886,477
898.212341,475
898.328674,481
898.445129,470
898.561462,455
898.677795,468
898.794312,459
898.910645,475
899.026978,458
899.143433,483
899.259766,476
899.37616,470
899.492493,474
899.608765,458
899.725159,483
899.841553,448
899.957947,479
900.07428,465
900.190552,482
900.306946,466
900.423157,453
900.53949,478
900.655884,485
900.772156,489
900.888489,475
901.004822,476
901.121033,451
901.237366,457
901.353699,479
901.46991,499
901.586304,471
901.702515,470
901.818787,468
901.93512,484
902.051331,467
902.167603,461
902.283875,495
902.400085,486
902.516418,489
902.632629,480
902.74884,482
902.865112,495
902.981384,475
903.097595,478
903.213867,482
903.330017,481
903.446289,467
903.5625,494
903.67865,474
903.794922,485
903.911072,463
904.027344,474
904.143494,482
904.259705,467
904.375916,488
904.492065,463
904.608215,495
904.724426,470
904.840576,467
904.956726,490
905.072876,462
905.189087,484
905.305176,480
905.421387,477
905.537537,465
905.653687,467
905.769775,486
905.885925,475
906.002014,468
906.118164,453
906.234314,481
906.350403,479
906.466492,480
906.582642,476
906.69873,475
906.814758,476
906.930908,469
907.046936,473
907.163086,469
907.279175,482
907.395264,475
907.511353,475
907.62738,486
907.743408,474
907.859497,474
907.975525,480
908.091553,469
908.207703,473
908.32373,461
908.439758,493
908.555786,479
908.671814,482
908.787842,485
908.90387,472
909.019775,461
909.135864,493
909.251892,499
909.367859,484
909.483826,488
909.599854,474
909.715881,468
909.831848,483
909.947815,477
910.063782,483
910.179749,490
910.295776,465
910.411743,503
910.527649,467
910.643616,475
910.759583,494
910.875488,456
910.991455,481
911.107361,471
911.223267,485
911.339294,481
911.4552,469
911.571106,472
911.687073,482
911.802979,464
911.918823,472
912.034729,480
912.150635,483
912.266602,482
912.382446,463
912.498352,462
912.614197,478
912.730103,480
912.846008,474
792.44574,610
792.56488,596
792.68396,687
792.80304,668
792.92218,601
793.041199,592
793.160339,594
793.279419,603
793.398499,624
793.517578,569
793.636658,585
793.755737,613
793.874817,628
793.993896,626
794.112976,592
794.232056,604
794.351074,576
794.470215,604
794.589233,589
794.708313,552
794.827393,596
794.946411,594
795.065552,593
795.18457,592
795.303589,575
795.422668,574
795.541687,584
795.660767,568
795.779846,583
795.898865,573
796.017883,586
796.136963,595
796.255981,582
796.375061,564
796.49408,577
796.613037,570
796.732117,616
796.851135,553
796.970154,581
797.089233,565
797.208191,561
797.327271,560
797.446228,582
797.565186,571
797.684265,574
797.803223,570
797.922241,577
798.04126,573
798.160278,553
798.279297,557
798.398315,556
798.517273,563
798.636292,587
798.75531,569
798.874268,574
798.993286,593
799.112244,594
799.231323,587
799.350281,555
799.469238,552
799.588257,554
799.707153,573
799.826111,569
799.945129,583
800.064087,585
800.183044,586
800.302063,584
800.421021,575
800.539978,567
800.658936,552
800.777893,562
800.896912,554
801.015747,543
801.134705,559
801.253723,572
801.37262,582
801.491638,588
801.610535,569
801.729492,586
801.84845,574
801.967407,557
802.086243,575
802.205261,578
802.324158,562
802.443115,580
802.562073,572
802.680969,588
802.799927,595
802.918762,591
803.037659,574
803.156677,584
803.275574,577
803.39447,611
803.513428,592
803.632263,598
803.751221,576
803.870117,586
803.989014,578
804.107971,589
804.226746,550
804.345642,595
804.4646,592
804.583496,591
804.702393,585
804.821228,599
804.940125,596
805.059021,593
805.177917,585
805.296814,592
805.415649,599
805.534546,610
805.653442,577
805.772278,607
805.891113,604
806.01001,588
806.128906,593
806.247742,604
806.366577,601
806.485413,587
806.604309,585
806.723145,612
806.84198,625
806.960876,581
807.079712,606
807.198486,630
807.317383,619
807.436218,586
807.554993,611
807.673889,600
807.792725,589
807.91156,610
808.030396,590
808.14917,601
808.268005,610
808.386841,594
808.505676,596
808.624451,610
808.743286,611
808.862122,608
808.980896,617
809.099731,613
809.218506,598
809.337341,618
809.456116,614
809.57489,586
809.693726,602
809.8125,617
809.931274,608
810.050049,622
810.168884,615
810.287659,626
810.406372,633
810.525269,608
810.643982,623
810.762756,631
810.881531,608
811.000305,635
811.11908,637
811.237854,618
811.356567,586
811.475403,629
811.594116,621
811.71283,621
811.831604,591
811.950378,624
812.069153,618
812.187927,606
812.30658,640
812.425415,612
812.544128,606
812.662781,633
812.781616,623
812.900269,620
813.019043,614
813.137756,622
813.256531,597
813.375244,633
813.493896,622
813.612671,630
813.731384,618
813.850037,618
813.96875,635
814.087524,624
814.206238,588
814.324951,615
814.443604,593
814.562256,638
814.68103,624
814.799683,608
814.918335,607
815.037109,610
815.155762,620
815.274475,620
815.393188,610
815.511841,597
815.630554,589
815.749146,613
815.867859,591
815.986572,568
816.105164,611
816.223877,598
816.342529,600
816.461182,592
816.579895,590
816.698486,610
816.817139,599
816.935791,607
817.054504,622
817.173096,577
817.291748,571
817.4104,600
817.529053,611
817.647644,570
817.766235,567
817.884949,570
818.00354,564
818.122192,566
818.240845,556
818.359436,545
818.478088,539
818.59668,518
818.715271,525
818.833923,509
818.952515,530
819.071106,514
819.189758,512
819.30835,497
819.426941,480
819.545532,508
819.664124,501
819.782715,501
819.901306,515
820.019897,496
820.138489,486
820.25708,511
820.375671,486
820.494202,512
820.612732,516
820.731384,496
820.849915,483
820.968506,507
821.087097,487
821.205627,479
821.324158,479
821.442749,487
821.561279,493
821.679871,497
821.798401,482
821.916931,494
822.035461,461
822.154053,493
822.272583,474
822.391174,493
822.509583,467
822.628174,492
822.746704,489
822.865234,472
822.983765,478
823.102295,479
823.220825,478
823.339294,491
823.457825,479
823.576355,487
823.694824,475
823.813354,490
823.931885,465
824.050354,479
824.168884,481
824.287354,475
824.405823,492
824.524353,506
824.642822,507
824.761353,483
824.879822,486
824.998291,482
825.116699,503
825.235291,476
825.353699,474
825.472168,479
825.590637,475
825.709106,471
825.827576,482
825.946045,477
826.064453,472
826.182983,486
826.301392,453
826.4198,476
826.53833,472
826.656738,470
826.775208,459
826.893677,469
827.012024,484
827.130493,479
827.248962,461
827.36731,465
827.485779,464
827.604248,471
827.722595,464
827.841064,457
827.959412,454
828.077942,467
828.196289,466
828.314636,483
828.433105,456
828.551514,465
828.669861,462
828.78833,461
828.906677,456
829.025085,456
829.143433,443
829.261841,449
829.38031,461
829.498657,466
829.617004,452
829.735413,452
829.85376,463
829.972107,455
830.090515,453
830.208862,461
830.327209,453
830.445557,445
830.563904,439
830.682312,438
830.800659,457
830.919006,453
831.037354,442
831.155701,465
831.274048,452
831.392395,462
831.51062,441
831.629028,455
831.747314,468
831.865662,450
831.984009,467
832.102356,455
832.220642,461
832.338928,452
832.457275,445
832.575623,464
832.693909,460
832.812134,474
832.930481,444
833.048828,443
833.167114,443
833.2854,450
833.403687,488
833.521973,446
833.640259,455
833.758545,474
833.876831,440
833.995056,465
834.113281,456
834.231628,470
834.349915,440
834.468201,446
834.586426,466
834.704651,451
834.822998,460
834.941162,470
835.059448,461
835.177673,455
835.295959,453
835.414246,477
835.53241,457
835.650635,449
835.768921,470
835.887146,478
836.005371,479
836.123596,472
836.241821,457
836.360046,473
836.478271,467
836.596497,492
836.714722,462
836.832886,484
836.95105,484
837.069336,497
837.1875,474
837.305725,474
837.423889,446
837.542053,467
837.660339,473
837.778503,476
837.896667,479
838.014832,465
838.132996,473
838.25116,471
838.369385,479
838.487488,462
838.605713,467
838.723877,475
838.84198,468
838.960205,496
839.078308,456
839.196472,456
839.314636,475
839.4328,462
839.550964,468
839.669067,476
839.787231,494
839.905396,460
840.023499,458
840.141602,462
840.259766,471
840.377869,471
840.495972,459
840.614136,476
840.732239,471
840.850342,472
840.968445,450
841.086548,464
841.204651,474
841.322754,456
841.440918,444
841.55896,468
841.677002,465
841.795166,471
841.913208,460
842.031311,460
842.149353,459
842.267456,452
842.385498,476
842.503601,455
842.621643,450
842.739746,465
842.857788,442
842.97583,453
843.093933,447
843.211975,451
843.330017,456
843.44812,430
843.566101,447
843.684204,456
843.802246,436
843.920227,470
844.038269,446
844.156311,450
844.274292,455
844.392395,462
844.510376,437
844.628357,464
844.74646,462
844.864441,431
844.982422,440
845.100403,483
845.218384,459
845.336426,472
845.454468,458
845.572449,447
845.69043,458
845.808411,454
845.926453,452
846.044373,447
846.162354,449
846.280396,452
846.398315,459
846.516296,444
846.634216,449
846.752197,456
846.870178,456
846.988098,453
847.106079,460
847.22406,441
847.34198,452
847.4599,459
847.577881,451
847.695801,467
847.813782,465
847.931641,462
848.049561,452
848.167603,436
848.285461,443
848.403381,466
848.521362,430
848.639221,447
848.75708,447
848.875,448
848.99292,434
849.110901,443
849.22876,434
849.34668,429
849.464539,448
849.582458,443
849.700317,450
849.818176,457
849.936096,450
850.053955,454
850.171875,451
850.289673,466
850.407593,457
850.525452,461
850.643311,443
850.761169,453
850.878967,463
850.996887,452
851.114746,455
851.232544,447
851.350403,462
851.468262,452
851.58606,438
851.703979,461
851.821777,441
851.939636,448
852.057434,464
852.175232,457
852.293091,468
852.410889,455
852.528687,486
852.646545,452
852.764343,452
852.88208,463
852.999939,452
853.117676,464
853.235535,449
853.353271,445
853.471069,479
853.588928,447
853.706604,467
853.824402,456
853.9422,437
854.059998,445
854.177734,441
854.295532,454
854.413269,450
854.531006,452
854.648804,445
854.766541,455
854.884277,446
855.002014,456
855.119751,461
855.237549,466
855.355225,474
855.473022,470
855.590698,448
855.708435,455
855.826172,439
855.943848,461
856.061646,471
856.179321,438
856.296997,460
856.414795,459
856.53241,463
856.650085,472
856.767822,469
856.885559,470
857.003174,438
857.120911,456
857.238586,447
857.356201,449
857.473938,466
857.591614,470
857.709351,451
857.826965,463
857.944641,459
858.062317,456
858.179993,467
858.297668,453
858.415283,468
858.532959,472
858.650574,439
858.768188,459
858.885803,457
859.003479,459
859.121094,464
859.23877,456
859.356384,451
859.473999,445
859.591675,460
859.709229,471
859.826843,455
859.944458,458
860.062012,439
860.179626,468
860.297302,447
860.414856,453
860.532471,441
860.650024,439
860.767639,443
860.885193,447
861.002808,453
861.120361,462
861.237976,455
861.35553,482
861.473022,444
861.590698,461
861.708191,467
861.825745,430
861.943298,447
862.060852,470
862.178406,451
862.295959,455
862.413513,448
862.531006,466
862.64856,463
862.766113,446
862.883667,435
863.00116,460
863.118713,460
863.236206,465
863.353699,444
863.471252,464
863.588745,457
863.706177,461
863.82373,438
863.941162,454
864.058716,416
864.176208,450
864.29364,458
864.411194,462
864.528687,449
864.646118,471
864.763611,437
864.881042,447
864.998535,443
865.116028,471
865.233459,445
865.350891,461
865.468384,453
865.585754,477
865.703308,456
865.820679,486
865.938171,461
866.055542,464
866.173035,461
866.290466,448
866.407837,430
866.52533,445
866.6427,469
866.760071,459
866.877563,443
866.994934,448
867.112305,464
867.229736,490
867.347107,472
867.464539,454
867.58197,466
867.699341,452
867.81665,441
867.934082,456
868.051453,454
868.168823,461
868.286194,474
868.403564,476
868.520935,451
868.638306,461
868.755676,448
868.872986,459
868.990295,461
869.107727,461
869.225037,455
869.342346,470
869.459717,457
869.577026,468
869.694336,472
869.811707,460
869.929016,455
870.046326,440
870.163635,471
870.280945,460
870.398254,458
870.515564,443
870.632812,446
870.750183,455
870.867432,459
870.984741,455
871.102051,446
871.219299,462
871.336609,476
871.453918,448
871.571106,438
871.688416,454
871.805664,437
871.922852,469
872.040222,453
872.157471,472
872.274719,435
872.391968,466
872.509155,451
872.626465,490
872.743652,441
872.860962,466
872.978149,470
873.095337,471
873.212646,456
873.329834,465
873.44696,452
873.564209,464
873.681396,453
873.798645,462
873.915894,447
874.03302,445
874.150208,444
874.267456,435
874.384583,435
874.501831,465
874.618958,451
874.736145,467
874.853333,453
874.970459,452
875.087646,456
875.204834,481
875.32196,431
875.439148,481
875.556274,457
875.673401,479
875.790527,480
875.907715,439
876.024841,482
876.141968,454
876.259094,441
876.376282,485
876.493347,469
876.610474,458
876.7276,429
876.844727,456
876.961853,455
877.078918,470
877.195984,472
877.313171,470
877.430237,472
877.547302,485
877.664368,452
877.781433,456
877.898499,442
878.015625,453
878.13269,457
878.249695,466
878.366821,456
878.483887,462
878.600952,445
878.717957,462
878.834961,469
878.952087,464
879.069092,455
879.186157,471
879.303162,461
879.420227,445
879.537231,466
879.654236,460
879.77124,448
879.888306,460
880.005249,460
880.122314,469
880.239319,444
880.356323,472
880.473328,440
880.590271,479
880.707275,468
880.824341,459
880.941284,464
881.058228,486
881.175232,460
881.292236,465
881.40918,455
881.526123,458
881.643066,446
881.760071,464
881.877014,461
881.993958,475
882.11084,453
882.227783,478
882.344727,478
882.46167,466
882.578613,447
882.695618,460
882.812439,472
882.929382,442
883.046326,457
883.163208,475
883.280151,474
883.397034,473
883.513916,460
883.630798,460
883.747742,471
883.864563,482
883.981506,484
884.098389,465
884.21521,470
884.332153,460
884.448975,457
884.565796,472
884.682678,423
884.7995,464
884.916443,480
885.033264,481
885.150085,473
885.266968,472
885.383789,459
885.500671,483
885.617493,444
885.734314,461
885.851196,462
885.967896,451
886.084717,451
886.201599,475
886.318359,470
886.435181,480
886.552002,455
886.668762,490
886.785645,459
886.902344,480
887.019165,462
887.135925,469
887.252747,462
887.369446,465
887.486267,468
887.603027,474
887.719788,479
887.836548,461
887.953247,463
888.070068,471
888.186829,463
888.303528,463
888.420288,459
888.536987,452
888.653687,458
888.770447,459
888.887146,458
889.003967,454
889.120667,470
889.237305,474
889.354065,470
889.470703,489
889.587463,462
889.704163,484
889.820862,461
889.937561,468
890.054199,463
890.170837,457
890.287598,454
890.404236,462
890.520874,468
890.637634,461
890.754211,481
890.87085,464
890.987549,474
891.104187,470
891.220886,472
891.337463,482
891.454102,463
891.57074,471
891.687378,466
891.804077,474
891.920654,470
892.037231,457
892.15387,489
892.270447,454
892.387085,483
892.503723,466
892.6203,456
892.736877,459
892.853516,471
892.970032,483
893.08667,472
893.203186,476
893.319763,470
893.43634,474
893.552917,463
893.669556,481
893.786011,444
893.902588,467
894.019165,474
894.135681,487
894.252197,462
894.368835,478
894.485291,459
894.601868,466
894.718384,474
894.8349,475
894.951355,469
895.067932,476
895.184448,465
895.300964,477
895.417419,464
895.533936,466
895.650452,452
895.766907,479
895.883423,490
895.999878,476
896.116333,471
896.232849,486
896.349304,469
896.465759,485
896.582214,481
896.698669,492
896.815125,469
896.931641,458
897.048035,463
897.164551,471
897.280884,477
897.397339,452
897.513794,473
897.630249,473
897.746582,460
897.863098,496
897.979431,475
898.095886,465
898.212341,459
898.328674,498
898.445129,471
898.561462,494
898.677795,444
898.794312,475
898.910645,464
899.026978,465
899.143433,470
899.259766,489
899.37616,485
899.492493,473
899.608765,464
899.725159,478
899.841553,459
899.957947,462
900.07428,473
900.190552,470
900.306946,477
900.423157,494
900.53949,467
900.655884,476
900.772156,455
900.888489,476
901.004822,469
901.121033,497
901.237366,473
901.353699,486
901.46991,477
901.586304,485
901.702515,477
901.818787,489
901.93512,470
902.051331,494
902.167603,482
902.283875,487
902.400085,459
902.516418,482
902.632629,467
902.74884,479
902.865112,468
902.981384,482
903.097595,452
903.213867,481
903.330017,476
903.446289,483
903.5625,475
903.67865,479
903.794922,481
903.911072,467
904.027344,481
904.143494,501
904.259705,461
904.375916,483
904.492065,467
904.608215,508
904.724426,464
904.840576,454
904.956726,477
905.072876,486
905.189087,478
905.305176,482
905.421387,467
905.537537,489
905.653687,477
905.769775,463
905.885925,462
906.002014,472
906.118164,469
906.234314,465
906.350403,485
906.466492,491
906.582642,483
906.69873,486
906.814758,483
906.930908,460
907.046936,464
907.163086,462
907.279175,461
907.395264,473
907.511353,482
907.62738,493
907.743408,483
907.859497,489
907.975525,480
908.091553,483
908.207703,485
908.32373,471
908.439758,475
908.555786,474
908.671814,483
908.787842,472
908.90387,460
909.019775,498
909.135864,456
909.251892,485
909.367859,490
909.483826,471
909.599854,471
909.715881,470
909.831848,487
909.947815,476
910.063782,487
910.179749,478
910.295776,487
910.411743,486
910.527649,487
910.643616,488
910.759583,481
910.875488,480
910.991455,481
911.107361,500
911.223267,496
911.339294,502
911.4552,474
911.571106,506
911.687073,473
911.802979,496
911.918823,480
912.034729,475
912.150635,505
912.266602,492
912.382446,479
912.498352,475
912.614197,455
912.730103,474
912.846008,477
792.44574,594
792.56488,644
792.68396,677
792.80304,672
792.92218,607
793.041199,609
793.160339,588
793.279419,606
793.398499,611
793.517578,573
793.636658,611
793.755737,577
793.874817,593
793.993896,620
794.112976,606
794.232056,583
794.351074,580
794.470215,595
794.589233,606
794.708313,565
794.827393,584
794.946411,602
795.065552,593
795.18457,582
795.303589,596
795.422668,603
795.541687,594
795.660767,593
795.779846,588
795.898865,578
796.017883,609
796.136963,545
796.255981,573
796.375061,593
796.49408,573
796.613037,574
796.732117,587
796.851135,590
796.970154,586
797.089233,570
797.208191,583
797.327271,569
797.446228,558
797.565186,562
797.684265,564
797.803223,573
797.922241,573
798.04126,557
798.160278,547
798.279297,568
798.398315,570
798.517273,540
798.636292,587
798.75531,560
798.874268,562
798.993286,589
799.112244,574
799.231323,559
799.350281,569
799.469238,582
799.588257,573
799.707153,569
799.826111,565
799.945129,591
800.064087,574
800.183044,541
800.302063,584
800.421021,571
800.539978,581
800.658936,562
800.777893,567
800.896912,547
801.015747,586
801.134705,567
801.253723,580
801.37262,562
801.491638,602
801.610535,572
801.729492,581
801.84845,570
801.967407,578
802.086243,588
802.205261,565
802.324158,586
802.443115,603
802.562073,581
802.680969,590
802.799927,576
802.918762,605
803.037659,573
803.156677,596
803.275574,591
803.39447,573
803.513428,588
803.632263,587
803.751221,589
803.870117,621
803.989014,590
804.107971,582
804.226746,592
804.345642,599
804.4646,578
804.583496,580
804.702393,591
804.821228,597
804.940125,593
805.059021,595
805.177917,590
805.296814,583
805.415649,602
805.534546,614
805.653442,600
805.772278,625
805.891113,587
806.01001,585
806.128906,609
806.247742,601
806.366577,586
806.485413,604
806.604309,623
806.723145,599
806.84198,570
806.960876,588
807.079712,595
807.198486,584
807.317383,608
807.436218,618
807.554993,569
807.673889,616
807.792725,590
807.91156,610
808.030396,615
808.14917,603
808.268005,599
808.386841,620
808.505676,593
808.624451,618
808.743286,610
808.862122,614
808.980896,589
809.099731,638
809.218506,615
809.337341,621
809.456116,630
809.57489,612
809.693726,609
809.8125,611
809.931274,630
810.050049,608
810.168884,623
810.287659,603
810.406372,634
810.525269,628
810.643982,610
810.762756,621
810.881531,627
811.000305,621
811.11908,624
811.237854,614
811.356567,622
811.475403,620
811.594116,624
811.71283,586
811.831604,620
811.950378,616
812.069153,618
812.187927,645
812.30658,626
812.425415,612
812.544128,610
812.662781,637
812.781616,618
812.900269,611
813.019043,625
813.137756,632
813.256531,624
813.375244,628
813.493896,613
813.612671,632
813.731384,626
813.850037,649
813.96875,609
814.087524,603
814.206238,611
814.324951,605
814.443604,634
814.562256,638
814.68103,614
814.799683,620
814.918335,628
815.037109,622
815.155762,637
815.274475,620
815.393188,600
815.511841,595
815.630554,608
815.749146,615
815.867859,581
815.986572,589
816.105164,586
816.223877,591
816.342529,595
816.461182,604
816.579895,598
816.698486,635
816.817139,603
816.935791,615
817.054504,589
817.173096,609
817.291748,587
817.4104,608
817.529053,597
817.647644,591
817.766235,569
817.884949,572
818.00354,584
818.122192,568
818.240845,553
818.359436,546
818.478088,552
818.59668,554
818.715271,519
818.833923,524
818.952515,524
819.071106,489
819.189758,516
819.30835,508
819.426941,512
819.545532,533
819.664124,510
819.782715,500
819.901306,508
820.019897,504
820.138489,513
820.25708,491
820.375671,494
820.494202,481
820.612732,486
820.731384,511
820.849915,486
820.968506,482
821.087097,503
821.205627,486
821.324158,486
821.442749,493
821.561279,481
821.679871,495
821.798401,490
821.916931,492
822.035461,470
822.154053,488
822.272583,495
822.391174,482
822.509583,474
822.628174,467
822.746704,476
822.865234,475
822.983765,472
823.102295,492
823.220825,482
823.339294,480
823.457825,481
823.576355,493
823.694824,452
823.813354,482
823.931885,490
824.050354,481
824.168884,496
824.287354,494
824.405823,479
824.524353,483
824.642822,478
824.761353,476
824.879822,473
824.998291,485
825.116699,495
825.235291,466
825.353699,454
825.472168,488
825.590637,488
825.709106,482
825.827576,471
825.946045,461
826.064453,470
826.182983,462
826.301392,460
826.4198,467
826.53833,469
826.656738,489
826.775208,469
826.893677,464
827.012024,475
827.130493,476
827.248962,467
827.36731,461
827.485779,442
827.604248,469
827.722595,448
827.841064,453
827.959412,459
828.077942,463
828.196289,462
828.314636,475
828.433105,476
828.551514,461
828.669861,481
828.78833,464
828.906677,451
829.025085,464
829.143433,473
829.261841,471
829.38031,471
829.498657,438
829.617004,473
829.735413,463
829.85376,447
829.972107,448
830.090515,462
830.208862,462
830.327209,463
830.445557,480
830.563904,456
830.682312,454
830.800659,456
830.919006,441
831.037354,462
831.155701,475
831.274048,472
831.392395,439
831.51062,455
831.629028,472
831.747314,458
831.865662,470
831.984009,453
832.102356,446
832.220642,465
832.338928,459
832.457275,449
832.575623,456
832.693909,452
832.812134,473
832.930481,454
833.048828,476
833.167114,467
833.2854,478
833.403687,470
833.521973,460
833.640259,454
833.758545,470
833.876831,452
833.995056,454
834.113281,437
834.231628,456
834.349915,466
834.468201,462
834.586426,457
834.704651,457
834.822998,471
834.941162,458
835.059448,469
835.177673,477
835.295959,451
835.414246,461
835.53241,464
835.650635,452
835.768921,472
835.887146,455
836.005371,473
836.123596,456
836.241821,461
836.360046,456
836.478271,462
836.596497,481
836.714722,460
836.832886,492
836.95105,469
837.069336,467
837.1875,462
837.305725,489
837.423889,468
837.542053,499
837.660339,492
837.778503,481
837.896667,468
838.014832,482
838.132996,464
838.25116,464
838.369385,470
838.487488,462
838.605713,469
838.723877,486
838.84198,463
838.960205,480
839.078308,454
839.196472,489
839.314636,473
839.4328,467
839.550964,463
839.669067,487
839.787231,478
839.905396,479
840.023499,449
840.141602,460
840.259766,483
840.377869,479
840.495972,463
840.614136,474
840.732239,477
840.850342,466
840.968445,462
841.086548,467
841.204651,485
841.322754,498
841.440918,453
841.55896,458
841.677002,475
841.795166,453
841.913208,465
842.031311,466
842.149353,479
842.267456,457
842.385498,467
842.503601,453
842.621643,467
842.739746,464
842.857788,431
842.97583,474
843.093933,449
843.211975,467
843.330017,441
843.44812,454
843.566101,443
843.684204,468
843.802246,441
843.920227,465
844.038269,450
844.156311,469
844.274292,436
844.392395,453
844.510376,470
844.628357,444
844.74646,448
844.864441,460
844.982422,441
845.100403,463
845.218384,474
845.336426,471
845.454468,453
845.572449,463
845.69043,474
845.808411,455
845.926453,464
846.044373,446
846.162354,452
846.280396,441
846.398315,441
846.516296,446
846.634216,447
846.752197,450
846.870178,461
846.988098,467
847.106079,467
847.22406,434
847.34198,465
847.4599,457
847.577881,448
847.695801,446
847.813782,459
847.931641,440
848.049561,438
848.167603,452
848.285461,453
848.403381,444
848.521362,443
848.639221,463
848.75708,446
848.875,459
848.99292,436
849.110901,454
849.22876,436
849.34668,444
849.464539,435
849.582458,441
849.700317,458
849.818176,474
849.936096,441
850.053955,461
850.171875,457
850.289673,430
850.407593,442
850.525452,450
850.643311,459
850.761169,462
850.878967,445
850.996887,470
851.114746,454
851.232544,444
851.350403,452
851.468262,451
851.58606,443
851.703979,446
851.821777,452
851.939636,443
852.057434,442
852.175232,476
852.293091,461
852.410889,447
852.528687,439
852.646545,468
852.764343,436
852.88208,458
852.999939,465
853.117676,451
853.235535,465
853.353271,447
853.471069,459
853.588928,459
853.706604,446
853.824402,436
853.9422,464
854.059998,447
854.177734,458
854.295532,461
854.413269,464
854.531006,464
854.648804,459
854.766541,441
854.884277,445
855.002014,458
855.119751,461
855.237549,449
855.355225,446
855.473022,449
855.590698,458
855.708435,471
855.826172,455
855.943848,470
856.061646,446
856.179321,460
856.296997,459
856.414795,457
856.53241,470
856.650085,445
856.767822,449
856.885559,466
857.003174,449
857.120911,477
857.238586,447
857.356201,465
857.473938,446
857.591614,464
857.709351,471
857.826965,446
857.944641,478
858.062317,461
858.179993,474
858.297668,471
858.415283,450
858.532959,462
858.650574,432
858.768188,465
858.885803,453
859.003479,462
859.121094,479
859.23877,469
859.356384,462
859.473999,453
859.591675,444
859.709229,461
859.826843,459
859.944458,434
860.062012,451
860.179626,453
860.297302,443
860.414856,432
860.532471,455
860.650024,469
860.767639,438
860.885193,444
861.002808,452
861.120361,446
861.237976,474
861.35553,458
861.473022,452
861.590698,449
861.708191,451
861.825745,472
861.943298,438
862.060852,460
862.178406,453
862.295959,462
862.413513,442
862.531006,452
862.64856,426
862.766113,469
862.883667,444
863.00116,457
863.118713,453
863.236206,460
863.353699,442
863.471252,451
863.588745,442
863.706177,454
863.82373,451
863.941162,450
864.058716,449
864.176208,456
864.29364,459
864.411194,460
864.528687,444
864.646118,461
864.763611,473
864.881042,455
864.998535,466
865.116028,459
865.233459,475
865.350891,433
865.468384,452
865.585754,460
865.703308,471
865.820679,470
865.938171,471
866.055542,448
866.173035,457
866.290466,468
866.407837,439
866.52533,462
866.6427,446
866.760071,466
866.877563,444
866.994934,464
867.112305,461
867.229736,465
867.347107,456
867.464539,474
867.58197,451
867.699341,454
867.81665,456
867.934082,489
868.051453,456
868.168823,466
868.286194,452
868.403564,452
868.520935,453
868.638306,479
868.755676,456
868.872986,461
868.990295,460
869.107727,488
869.225037,454
869.342346,464
869.459717,464
869.577026,479
869.694336,460
869.811707,467
869.929016,454
870.046326,456
870.163635,451
870.280945,459
870.398254,451
870.515564,479
870.632812,462
870.750183,464
870.867432,452
870.984741,454
871.102051,431
871.219299,453
871.336609,446
871.453918,473
871.571106,474
871.688416,478
871.805664,480
871.922852,468
872.040222,458
872.157471,454
872.274719,456
872.391968,451
872.509155,469
872.626465,463
872.743652,453
872.860962,457
872.978149,462
873.095337,451
873.212646,467
873.329834,454
873.44696,453
873.564209,475
873.681396,434
873.798645,457
873.915894,456
874.03302,470
874.150208,443
874.267456,459
874.384583,454
874.501831,467
874.618958,462
874.736145,455
874.853333,449
874.970459,467
875.087646,464
875.204834,457
875.32196,460
875.439148,458
875.556274,459
875.673401,461
875.790527,446
875.907715,492
876.024841,452
876.141968,476
876.259094,445
876.376282,474
876.493347,454
876.610474,464
876.7276,460
876.844727,465
876.961853,465
877.078918,458
877.195984,459
877.313171,459
877.430237,473
877.547302,461
877.664368,455
877.781433,461
877.898499,460
878.015625,465
878.13269,455
878.249695,487
878.366821,451
878.483887,486
878.600952,467
878.717957,470
878.834961,459
878.952087,448
879.069092,456
879.186157,469
879.303162,447
879.420227,468
879.537231,456
879.654236,477
879.77124,465
879.888306,455
880.005249,461
880.122314,481
880.239319,460
880.356323,462
880.473328,457
880.590271,471
880.707275,462
880.824341,453
880.941284,452
881.058228,464
881.175232,459
881.292236,448
881.40918,462
881.526123,456
881.643066,469
881.760071,450
881.877014,445
881.993958,462
882.11084,482
882.227783,476
882.344727,456
882.46167,461
882.578613,463
882.695618,467
882.812439,444
882.929382,453
883.046326,447
883.163208,467
883.280151,463
883.397034,466
883.513916,476
883.630798,459
883.747742,455
883.864563,456
883.981506,482
884.098389,473
884.21521,463
884.332153,478
884.448975,450
884.565796,480
884.682678,459
884.7995,480
884.916443,467
885.033264,455
885.150085,452
885.266968,455
885.383789,465
885.500671,502
885.617493,450
885.734314,466
885.851196,462
885.967896,458
886.084717,468
886.201599,479
886.318359,459
886.435181,487
886.552002,468
886.668762,468
886.785645,502
886.902344,482
887.019165,471
887.135925,467
887.252747,471
887.369446,468
887.486267,471
887.603027,470
887.719788,468
887.836548,470
887.953247,457
888.070068,481
888.186829,468
888.303528,460
888.420288,484
888.536987,476
888.653687,481
888.770447,449
888.887146,470
889.003967,476
889.120667,461
889.237305,483
889.354065,482
889.470703,456
889.587463,480
889.704163,466
889.820862,466
889.937561,480
890.054199,472
890.170837,471
890.287598,461
890.404236,478
890.520874,468
890.637634,470
890.754211,501
890.87085,481
890.987549,462
891.104187,470
891.220886,481
891.337463,473
891.454102,468
891.57074,460
891.687378,469
891.804077,489
891.920654,480
892.037231,469
892.15387,490
892.270447,480
892.387085,465
892.503723,488
892.6203,482
892.736877,469
892.853516,464
892.970032,472
893.08667,452
893.203186,467
893.319763,473
893.43634,489
893.552917,461
893.669556,475
893.786011,462
893.902588,486
894.019165,467
894.135681,483
894.252197,481
894.368835,479
894.485291,464
894.601868,476
894.718384,465
894.8349,464
894.951355,463
895.067932,475
895.184448,473
895.300964,478
895.417419,466
895.533936,474
895.650452,478
895.766907,473
895.883423,475
895.999878,476
896.116333,478
896.232849,486
896.349304,473
896.465759,472
896.582214,476
896.698669,496
896.815125,471
896.931641,473
897.048035,467
897.164551,501
897.280884,468
897.397339,487
897.513794,484
897.630249,489
897.746582,461
897.863098,474
897.979431,479
898.095886,486
898.212341,462
898.328674,486
898.445129,457
898.561462,486
898.677795,469
898.794312,463
898.910645,469
899.026978,478
899.143433,464
899.259766,480
899.37616,478
899.492493,487
899.608765,495
899.725159,482
899.841553,471
899.957947,484
900.07428,494
900.190552,482
900.306946,475
900.423157,493
900.53949,472
900.655884,473
900.772156,458
900.888489,473
901.004822,453
901.121033,486
901.237366,467
901.353699,494
901.46991,478
901.586304,489
901.702515,471
901.818787,485
901.93512,484
902.051331,474
902.167603,494
902.283875,482
902.400085,467
902.516418,493
902.632629,469
902.74884,492
902.865112,473
902.981384,472
903.097595,472
903.213867,483
903.330017,480
903.446289,473
903.5625,487
903.67865,489
903.794922,460
903.911072,482
904.027344,476
904.143494,485
904.259705,490
904.375916,468
904.492065,470
904.608215,482
904.724426,482
904.840576,487
904.956726,475
905.072876,474
905.189087,461
905.305176,486
905.421387,482
905.537537,490
905.653687,489
905.769775,494
905.885925,488
906.002014,471
906.118164,515
906.234314,495
906.350403,478
906.466492,474
906.582642,473
906.69873,472
906.814758,467
906.930908,495
907.046936,485
907.163086,465
907.279175,482
907.395264,473
907.511353,466
907.62738,465
907.743408,469
907.859497,475
907.975525,472
908.091553,489
908.207703,463
908.32373,498
908.439758,486
908.555786,464
908.671814,464
908.787842,483
908.90387,490
909.019775,480
909.135864,488
909.251892,475
909.367859,455
909.483826,491
909.599854,487
909.715881,482
909.831848,480
909.947815,493
910.063782,470
910.179749,481
910.295776,485
910.411743,472
910.527649,486
910.643616,470
910.759583,484
910.875488,496
910.991455,488
911.107361,510
911.223267,492
911.339294,490
911.4552,496
911.571106,466
911.687073,466
911.802979,469
911.918823,484
912.034729,508
912.150635,480
912.266602,491
912.382446,478
912.498352,470
912.614197,475
912.730103,481
912.846008,491
