792.44574,592
792.56488,633
792.68396,694
792.80304,673
792.92218,625
793.041199,574
793.160339,589
793.279419,611
793.398499,617
793.517578,567
793.636658,582
793.755737,604
793.874817,599
793.993896,611
794.112976,595
794.232056,580
794.351074,595
794.470215,608
794.589233,610
794.708313,588
794.827393,566
794.946411,595
795.065552,594
795.18457,601
795.303589,605
795.422668,573
795.541687,572
795.660767,568
795.779846,567
795.898865,578
796.017883,589
796.136963,558
796.255981,575
796.375061,569
796.49408,597
796.613037,583
796.732117,572
796.851135,571
796.970154,574
797.089233,568
797.208191,564
797.327271,570
797.446228,568
797.565186,567
797.684265,564
797.803223,577
797.922241,572
798.04126,565
798.160278,553
798.279297,558
798.398315,575
798.517273,558
798.636292,558
798.75531,571
798.874268,564
798.993286,562
799.112244,582
799.231323,579
799.350281,559
799.469238,562
799.588257,563
799.707153,562
799.826111,569
799.945129,568
800.064087,589
800.183044,559
800.302063,587
800.421021,553
800.539978,566
800.658936,541
800.777893,564
800.896912,554
801.015747,579
801.134705,588
801.253723,590
801.37262,574
801.491638,594
801.610535,560
801.729492,554
801.84845,562
801.967407,584
802.086243,570
802.205261,573
802.324158,567
802.443115,569
802.562073,589
802.680969,587
802.799927,545
802.918762,578
803.037659,577
803.156677,576
803.275574,585
803.39447,586
803.513428,592
803.632263,602
803.751221,570
803.870117,580
803.989014,590
804.107971,584
804.226746,570
804.345642,606
804.4646,592
804.583496,610
804.702393,568
804.821228,571
804.940125,586
805.059021,601
805.177917,582
805.296814,592
805.415649,585
805.534546,599
805.653442,591
805.772278,613
805.891113,598
806.01001,618
806.128906,585
806.247742,607
806.366577,586
806.485413,608
806.604309,606
806.723145,593
806.84198,593
806.960876,600
807.079712,590
807.198486,601
807.317383,602
807.436218,590
807.554993,599
807.673889,618
807.792725,604
807.91156,638
808.030396,593
808.14917,612
808.268005,587
808.386841,620
808.505676,591
808.624451,616
808.743286,584
808.862122,620
808.980896,581
809.099731,616
809.218506,630
809.337341,615
809.456116,595
809.57489,627
809.693726,600
809.8125,620
809.931274,635
810.050049,606
810.168884,626
810.287659,626
810.406372,631
810.525269,624
810.643982,623
810.762756,627
810.881531,612
811.000305,628
811.11908,661
811.237854,651
811.356567,650
811.475403,608
811.594116,622
811.71283,615
811.831604,614
811.950378,629
812.069153,612
812.187927,622
812.30658,607
812.425415,626
812.544128,607
812.662781,630
812.781616,609
812.900269,599
813.019043,618
813.137756,638
813.256531,615
813.375244,616
813.493896,628
813.612671,631
813.731384,627
813.850037,606
813.96875,612
814.087524,605
814.206238,604
814.324951,644
814.443604,607
814.562256,594
814.68103,598
814.799683,622
814.918335,609
815.037109,615
815.155762,613
815.274475,614
815.393188,617
815.511841,615
815.630554,609
815.749146,603
815.867859,598
815.986572,628
816.105164,586
816.223877,596
816.342529,600
816.461182,597
816.579895,602
816.698486,611
816.817139,592
816.935791,629
817.054504,606
817.173096,615
817.291748,600
817.4104,612
817.529053,587
817.647644,592
817.766235,556
817.884949,555
818.00354,577
818.122192,566
818.240845,553
818.359436,579
818.478088,538
818.59668,526
818.715271,522
818.833923,537
818.952515,521
819.071106,516
819.189758,505
819.30835,511
819.426941,501
819.545532,515
819.664124,531
819.782715,503
819.901306,505
820.019897,495
820.138489,496
820.25708,513
820.375671,497
820.494202,518
820.612732,503
820.731384,501
820.849915,477
820.968506,482
821.087097,509
821.205627,480
821.324158,494
821.442749,483
821.561279,483
821.679871,490
821.798401,481
821.916931,487
822.035461,480
822.154053,474
822.272583,477
822.391174,470
822.509583,493
822.628174,489
822.746704,482
822.865234,467
822.983765,480
823.102295,479
823.220825,485
823.339294,481
823.457825,478
823.576355,497
823.694824,480
823.813354,496
823.931885,462
824.050354,499
824.168884,488
824.287354,482
824.405823,491
824.524353,520
824.642822,489
824.761353,488
824.879822,492
824.998291,501
825.116699,488
825.235291,494
825.353699,477
825.472168,496
825.590637,472
825.709106,520
825.827576,480
825.946045,476
826.064453,500
826.182983,469
826.301392,466
826.4198,475
826.53833,499
826.656738,478
826.775208,462
826.893677,475
827.012024,466
827.130493,460
827.248962,463
827.36731,451
827.485779,462
827.604248,446
827.722595,452
827.841064,464
827.959412,457
828.077942,459
828.196289,443
828.314636,463
828.433105,454
828.551514,471
828.669861,491
828.78833,469
828.906677,489
829.025085,460
829.143433,461
829.261841,468
829.38031,452
829.498657,465
829.617004,461
829.735413,474
829.85376,457
829.972107,455
830.090515,448
830.208862,461
830.327209,449
830.445557,463
830.563904,458
830.682312,461
830.800659,458
830.919006,455
831.037354,466
831.155701,462
831.274048,471
831.392395,448
831.51062,464
831.629028,477
831.747314,468
831.865662,467
831.984009,463
832.102356,482
832.220642,457
832.338928,460
832.457275,450
832.575623,476
832.693909,464
832.812134,462
832.930481,444
833.048828,481
833.167114,449
833.2854,452
833.403687,450
833.521973,464
833.640259,456
833.758545,468
833.876831,452
833.995056,464
834.113281,466
834.231628,450
834.349915,462
834.468201,471
834.586426,452
834.704651,453
834.822998,454
834.941162,447
835.059448,462
835.177673,458
835.295959,453
835.414246,452
835.53241,456
835.650635,447
835.768921,462
835.887146,466
836.005371,451
836.123596,462
836.241821,465
836.360046,473
836.478271,484
836.596497,482
836.714722,469
836.832886,477
836.95105,466
837.069336,504
837.1875,478
837.305725,473
837.423889,485
837.542053,472
837.660339,466
837.778503,484
837.896667,459
838.014832,481
838.132996,483
838.25116,492
838.369385,481
838.487488,479
838.605713,484
838.723877,480
838.84198,485
838.960205,467
839.078308,471
839.196472,467
839.314636,487
839.4328,469
839.550964,463
839.669067,488
839.787231,474
839.905396,471
840.023499,464
840.141602,468
840.259766,465
840.377869,483
840.495972,464
840.614136,473
840.732239,459
840.850342,472
840.968445,466
841.086548,490
841.204651,442
841.322754,456
841.440918,468
841.55896,480
841.677002,472
841.795166,472
841.913208,457
842.031311,462
842.149353,470
842.267456,454
842.385498,470
842.503601,436
842.621643,463
842.739746,449
842.857788,450
842.97583,460
843.093933,460
843.211975,448
843.330017,451
843.44812,447
843.566101,463
843.684204,467
843.802246,444
843.920227,466
844.038269,461
844.156311,461
844.274292,457
844.392395,438
844.510376,463
844.628357,448
844.74646,436
844.864441,466
844.982422,443
845.100403,455
845.218384,470
845.336426,458
845.454468,471
845.572449,469
845.69043,457
845.808411,468
845.926453,447
846.044373,463
846.162354,460
846.280396,454
846.398315,457
846.516296,449
846.634216,445
846.752197,453
846.870178,456
846.988098,468
847.106079,449
847.22406,466
847.34198,447
847.4599,449
847.577881,450
847.695801,462
847.813782,453
847.931641,454
848.049561,460
848.167603,453
848.285461,449
848.403381,442
848.521362,460
848.639221,473
848.75708,445
848.875,464
848.99292,442
849.110901,450
849.22876,451
849.34668,451
849.464539,463
849.582458,462
849.700317,449
849.818176,454
849.936096,445
850.053955,480
850.171875,443
850.289673,438
850.407593,458
850.525452,461
850.643311,452
850.761169,446
850.878967,471
850.996887,458
851.114746,453
851.232544,447
851.350403,450
851.468262,476
851.58606,440
851.703979,459
851.821777,465
851.939636,467
852.057434,449
852.175232,469
852.293091,459
852.410889,448
852.528687,446
852.646545,459
852.764343,452
852.88208,468
852.999939,436
853.117676,458
853.235535,473
853.353271,472
853.471069,451
853.588928,460
853.706604,446
853.824402,440
853.9422,462
854.059998,453
854.177734,470
854.295532,462
854.413269,472
854.531006,460
854.648804,446
854.766541,459
854.884277,472
855.002014,458
855.119751,452
855.237549,456
855.355225,464
855.473022,448
855.590698,467
855.708435,448
855.826172,476
855.943848,472
856.061646,452
856.179321,465
856.296997,461
856.414795,465
856.53241,473
856.650085,453
856.767822,446
856.885559,471
857.003174,458
857.120911,456
857.238586,457
857.356201,474
857.473938,451
857.591614,489
857.709351,467
857.826965,459
857.944641,467
858.062317,451
858.179993,463
858.297668,478
858.415283,464
858.532959,457
858.650574,453
858.768188,469
858.885803,459
859.003479,446
859.121094,460
859.23877,467
859.356384,474
859.473999,451
859.591675,451
859.709229,480
859.826843,451
859.944458,466
860.062012,451
860.179626,468
860.297302,469
860.414856,458
860.532471,454
860.650024,456
860.767639,434
860.885193,456
861.002808,462
861.120361,441
861.237976,457
861.35553,467
861.473022,443
861.590698,460
861.708191,458
861.825745,449
861.943298,448
862.060852,453
862.178406,461
862.295959,473
862.413513,448
862.531006,481
862.64856,459
862.766113,453
862.883667,454
863.00116,475
863.118713,447
863.236206,467
863.353699,467
863.471252,471
863.588745,464
863.706177,465
863.82373,477
863.941162,464
864.058716,473
864.176208,464
864.29364,443
864.411194,469
864.528687,450
864.646118,468
864.763611,451
864.881042,481
864.998535,481
865.116028,470
865.233459,471
865.350891,465
865.468384,452
865.585754,468
865.703308,457
865.820679,482
865.938171,458
866.055542,479
866.173035,476
866.290466,464
866.407837,457
866.52533,468
866.6427,441
866.760071,459
866.877563,468
866.994934,465
867.112305,475
867.229736,458
867.347107,455
867.464539,453
867.58197,470
867.699341,474
867.81665,458
867.934082,472
868.051453,464
868.168823,472
868.286194,480
868.403564,464
868.520935,442
868.638306,456
868.755676,476
868.872986,452
868.990295,463
869.107727,469
869.225037,455
869.342346,463
869.459717,458
869.577026,486
869.694336,458
869.811707,489
869.929016,467
870.046326,452
870.163635,473
870.280945,466
870.398254,458
870.515564,481
870.632812,465
870.750183,472
870.867432,469
870.984741,467
871.102051,467
871.219299,471
871.336609,460
871.453918,469
871.571106,470
871.688416,499
871.805664,444
871.922852,451
872.040222,461
872.157471,482
872.274719,469
872.391968,470
872.509155,474
872.626465,456
872.743652,448
872.860962,463
872.978149,455
873.095337,472
873.212646,472
873.329834,487
873.44696,461
873.564209,463
873.681396,456
873.798645,461
873.915894,460
874.03302,468
874.150208,481
874.267456,479
874.384583,460
874.501831,461
874.618958,473
874.736145,452
874.853333,476
874.970459,476
875.087646,462
875.204834,479
875.32196,459
875.439148,472
875.556274,457
875.673401,462
875.790527,467
875.907715,466
876.024841,450
876.141968,474
876.259094,475
876.376282,466
876.493347,481
876.610474,461
876.7276,458
876.844727,466
876.961853,466
877.078918,475
877.195984,453
877.313171,459
877.430237,475
877.547302,463
877.664368,471
877.781433,468
877.898499,489
878.015625,487
878.13269,477
878.249695,460
878.366821,468
878.483887,461
878.600952,460
878.717957,466
878.834961,464
878.952087,470
879.069092,475
879.186157,457
879.303162,466
879.420227,464
879.537231,463
879.654236,464
879.77124,463
879.888306,465
880.005249,483
880.122314,464
880.239319,478
880.356323,481
880.473328,471
880.590271,455
880.707275,485
880.824341,466
880.941284,471
881.058228,461
881.175232,459
881.292236,478
881.40918,461
881.526123,466
881.643066,473
881.760071,498
881.877014,463
881.993958,473
882.11084,471
882.227783,488
882.344727,486
882.46167,466
882.578613,451
882.695618,483
882.812439,468
882.929382,452
883.046326,457
883.163208,461
883.280151,477
883.397034,472
883.513916,461
883.630798,451
883.747742,472
883.864563,476
883.981506,465
884.098389,480
884.21521,469
884.332153,483
884.448975,471
884.565796,471
884.682678,491
884.7995,468
884.916443,463
885.033264,491
885.150085,482
885.266968,469
885.383789,466
885.500671,485
885.617493,480
885.734314,492
885.851196,493
885.967896,481
886.084717,474
886.201599,485
886.318359,484
886.435181,486
886.552002,484
886.668762,489
886.785645,470
886.902344,483
887.019165,466
887.135925,486
887.252747,479
887.369446,464
887.486267,484
887.603027,491
887.719788,469
887.836548,486
887.953247,481
888.070068,482
888.186829,462
888.303528,479
888.420288,509
888.536987,468
888.653687,473
888.770447,473
888.887146,471
889.003967,484
889.120667,497
889.237305,481
889.354065,484
889.470703,495
889.587463,464
889.704163,479
889.820862,470
889.937561,506
890.054199,474
890.170837,461
890.287598,472
890.404236,478
890.520874,464
890.637634,483
890.754211,495
890.87085,475
890.987549,486
891.104187,473
891.220886,487
891.337463,482
891.454102,467
891.57074,474
891.687378,479
891.804077,472
891.920654,483
892.037231,477
892.15387,469
892.270447,476
892.387085,470
892.503723,470
892.6203,489
892.736877,482
892.853516,469
892.970032,461
893.08667,461
893.203186,473
893.319763,462
893.43634,491
893.552917,474
893.669556,504
893.786011,456
893.902588,474
894.019165,473
894.135681,487
894.252197,484
894.368835,475
894.485291,456
894.601868,477
894.718384,486
894.8349,493
894.951355,471
895.067932,495
895.184448,496
895.300964,463
895.417419,478
895.533936,477
895.650452,481
895.766907,476
895.883423,483
895.999878,481
896.116333,466
896.232849,480
896.349304,485
896.465759,489
896.582214,487
896.698669,484
896.815125,498
896.931641,480
897.048035,472
897.164551,495
897.280884,475
897.397339,481
897.513794,480
897.630249,485
897.746582,492
897.863098,487
897.979431,484
898.095886,500
898.212341,483
898.328674,486
898.445129,470
898.561462,474
898.677795,476
898.794312,472
898.910645,476
899.026978,473
899.143433,464
899.259766,487
899.37616,479
899.492493,493
899.608765,473
899.725159,502
899.841553,471
899.957947,470
900.07428,491
900.190552,499
900.306946,487
900.423157,487
900.53949,479
900.655884,474
900.772156,486
900.888489,488
901.004822,478
901.121033,491
901.237366,479
901.353699,497
901.46991,486
901.586304,476
901.702515,478
901.818787,488
901.93512,463
902.051331,483
902.167603,499
902.283875,485
902.400085,492
902.516418,459
902.632629,491
902.74884,487
902.865112,491
902.981384,491
903.097595,485
903.213867,481
903.330017,477
903.446289,500
903.5625,491
903.67865,493
903.794922,487
903.911072,489
904.027344,482
904.143494,509
904.259705,477
904.375916,487
904.492065,472
904.608215,474
904.724426,474
904.840576,478
904.956726,493
905.072876,485
905.189087,494
905.305176,475
905.421387,488
905.537537,488
905.653687,479
905.769775,480
905.885925,504
906.002014,480
906.118164,471
906.234314,478
906.350403,474
906.466492,501
906.582642,493
906.69873,494
906.814758,477
906.930908,495
907.046936,480
907.163086,474
907.279175,476
907.395264,495
907.511353,483
907.62738,481
907.743408,488
907.859497,490
907.975525,465
908.091553,496
908.207703,475
908.32373,479
908.439758,505
908.555786,503
908.671814,477
908.787842,490
908.90387,498
909.019775,494
909.135864,489
909.251892,474
909.367859,455
909.483826,485
909.599854,510
909.715881,477
909.831848,472
909.947815,477
910.063782,479
910.179749,510
910.295776,490
910.411743,507
910.527649,507
910.643616,482
910.759583,458
910.875488,503
910.991455,484
911.107361,501
911.223267,490
911.339294,485
911.4552,500
911.571106,498
911.687073,489
911.802979,499
911.918823,491
912.034729,477
912.150635,484
912.266602,477
912.382446,468
912.498352,493
912.614197,480
912.730103,488
912.846008,507
792.44574,607
792.56488,658
792.68396,687
792.80304,647
792.92218,611
793.041199,602
793.160339,590
793.279419,602
793.398499,619
793.517578,604
793.636658,596
793.755737,590
793.874817,616
793.993896,585
794.112976,613
794.232056,582
794.351074,598
794.470215,614
794.589233,581
794.708313,600
794.827393,585
794.946411,588
795.065552,592
795.18457,595
795.303589,597
795.422668,595
795.541687,604
795.660767,597
795.779846,590
795.898865,566
796.017883,588
796.136963,581
796.255981,607
796.375061,569
796.49408,604
796.613037,573
796.732117,574
796.851135,561
796.970154,581
797.089233,592
797.208191,573
797.327271,584
797.446228,587
797.565186,572
797.684265,572
797.803223,569
797.922241,551
798.04126,594
798.160278,581
798.279297,567
798.398315,578
798.517273,572
798.636292,560
798.75531,570
798.874268,572
798.993286,573
799.112244,587
799.231323,582
799.350281,579
799.469238,582
799.588257,572
799.707153,583
799.826111,601
799.945129,569
800.064087,573
800.183044,566
800.302063,574
800.421021,567
800.539978,574
800.658936,576
800.777893,586
800.896912,595
801.015747,589
801.134705,576
801.253723,589
801.37262,593
801.491638,556
801.610535,585
801.729492,597
801.84845,558
801.967407,558
802.086243,583
802.205261,592
802.324158,558
802.443115,600
802.562073,593
802.680969,589
802.799927,597
802.918762,581
803.037659,577
803.156677,588
803.275574,572
803.39447,562
803.513428,598
803.632263,587
803.751221,580
803.870117,589
803.989014,601
804.107971,593
804.226746,612
804.345642,599
804.4646,583
804.583496,587
804.702393,601
804.821228,602
804.940125,620
805.059021,594
805.177917,605
805.296814,588
805.415649,602
805.534546,606
805.653442,606
805.772278,587
805.891113,599
806.01001,603
806.128906,642
806.247742,625
806.366577,603
806.485413,604
806.604309,611
806.723145,577
806.84198,611
806.960876,597
807.079712,610
807.198486,625
807.317383,611
807.436218,598
807.554993,587
807.673889,611
807.792725,592
807.91156,606
808.030396,615
808.14917,594
808.268005,615
808.386841,583
808.505676,631
808.624451,625
808.743286,611
808.862122,605
808.980896,629
809.099731,611
809.218506,628
809.337341,623
809.456116,607
809.57489,613
809.693726,643
809.8125,608
809.931274,625
810.050049,613
810.168884,632
810.287659,611
810.406372,603
810.525269,612
810.643982,596
810.762756,629
810.881531,634
811.000305,616
811.11908,632
811.237854,609
811.356567,630
811.475403,626
811.594116,624
811.71283,613
811.831604,620
811.950378,626
812.069153,612
812.187927,660
812.30658,600
812.425415,643
812.544128,657
812.662781,617
812.781616,613
812.900269,606
813.019043,647
813.137756,627
813.256531,619
813.375244,658
813.493896,617
813.612671,640
813.731384,622
813.850037,609
813.96875,618
814.087524,634
814.206238,601
814.324951,609
814.443604,605
814.562256,624
814.68103,620
814.799683,622
814.918335,625
815.037109,619
815.155762,633
815.274475,615
815.393188,629
815.511841,622
815.630554,635
815.749146,611
815.867859,624
815.986572,593
816.105164,597
816.223877,612
816.342529,609
816.461182,591
816.579895,595
816.698486,625
816.817139,621
816.935791,618
817.054504,625
817.173096,610
817.291748,614
817.4104,605
817.529053,612
817.647644,576
817.766235,585
817.884949,574
818.00354,532
818.122192,569
818.240845,554
818.359436,530
818.478088,524
818.59668,539
818.715271,544
818.833923,533
818.952515,527
819.071106,502
819.189758,504
819.30835,530
819.426941,503
819.545532,507
819.664124,527
819.782715,493
819.901306,514
820.019897,523
820.138489,495
820.25708,524
820.375671,487
820.494202,514
820.612732,517
820.731384,503
820.849915,503
820.968506,500
821.087097,492
821.205627,499
821.324158,476
821.442749,484
821.561279,480
821.679871,486
821.798401,503
821.916931,493
822.035461,491
822.154053,476
822.272583,504
822.391174,452
822.509583,512
822.628174,465
822.746704,485
822.865234,489
822.983765,492
823.102295,471
823.220825,490
823.339294,473
823.457825,486
823.576355,507
823.694824,496
823.813354,498
823.931885,499
824.050354,492
824.168884,514
824.287354,486
824.405823,460
824.524353,491
824.642822,481
824.761353,476
824.879822,500
824.998291,486
825.116699,498
825.235291,482
825.353699,474
825.472168,485
825.590637,460
825.709106,473
825.827576,493
825.946045,476
826.064453,467
826.182983,464
826.301392,479
826.4198,478
826.53833,489
826.656738,465
826.775208,468
826.893677,483
827.012024,487
827.130493,470
827.248962,470
827.36731,464
827.485779,476
827.604248,463
827.722595,454
827.841064,459
827.959412,466
828.077942,457
828.196289,465
828.314636,467
828.433105,451
828.551514,467
828.669861,458
828.78833,458
828.906677,458
829.025085,471
829.143433,468
829.261841,466
829.38031,454
829.498657,455
829.617004,491
829.735413,462
829.85376,462
829.972107,462
830.090515,452
830.208862,471
830.327209,448
830.445557,458
830.563904,484
830.682312,448
830.800659,468
830.919006,456
831.037354,447
831.155701,459
831.274048,450
831.392395,481
831.51062,457
831.629028,466
831.747314,468
831.865662,454
831.984009,460
832.102356,466
832.220642,475
832.338928,450
832.457275,452
832.575623,467
832.693909,468
832.812134,477
832.930481,447
833.048828,443
833.167114,467
833.2854,458
833.403687,472
833.521973,457
833.640259,455
833.758545,472
833.876831,464
833.995056,457
834.113281,451
834.231628,445
834.349915,455
834.468201,470
834.586426,464
834.704651,464
834.822998,474
834.941162,478
835.059448,451
835.177673,467
835.295959,466
835.414246,478
835.53241,473
835.650635,463
835.768921,473
835.887146,453
836.005371,465
836.123596,482
836.241821,475
836.360046,505
836.478271,486
836.596497,491
836.714722,470
836.832886,481
836.95105,483
837.069336,478
837.1875,483
837.305725,493
837.423889,473
837.542053,480
837.660339,464
837.778503,468
837.896667,479
838.014832,493
838.132996,490
838.25116,474
838.369385,467
838.487488,493
838.605713,503
838.723877,489
838.84198,481
838.960205,469
839.078308,500
839.196472,459
839.314636,455
839.4328,462
839.550964,471
839.669067,481
839.787231,487
839.905396,480
840.023499,483
840.141602,480
840.259766,479
840.377869,454
840.495972,474
840.614136,479
840.732239,468
840.850342,468
840.968445,471
841.086548,466
841.204651,467
841.322754,455
841.440918,488
841.55896,464
841.677002,482
841.795166,472
841.913208,451
842.031311,465
842.149353,480
842.267456,475
842.385498,455
842.503601,445
842.621643,457
842.739746,438
842.857788,464
842.97583,449
843.093933,476
843.211975,458
843.330017,453
843.44812,467
843.566101,457
843.684204,461
843.802246,456
843.920227,475
844.038269,468
844.156311,453
844.274292,457
844.392395,463
844.510376,436
844.628357,466
844.74646,477
844.864441,444
844.982422,472
845.100403,462
845.218384,446
845.336426,465
845.454468,454
845.572449,450
845.69043,460
845.808411,459
845.926453,450
846.044373,477
846.162354,473
846.280396,459
846.398315,459
846.516296,468
846.634216,483
846.752197,459
846.870178,467
846.988098,474
847.106079,441
847.22406,464
847.34198,448
847.4599,474
847.577881,464
847.695801,439
847.813782,460
847.931641,463
848.049561,466
848.167603,460
848.285461,460
848.403381,456
848.521362,465
848.639221,439
848.75708,470
848.875,453
848.99292,457
849.110901,446
849.22876,477
849.34668,460
849.464539,464
849.582458,472
849.700317,467
849.818176,455
849.936096,465
850.053955,456
850.171875,442
850.289673,477
850.407593,478
850.525452,460
850.643311,442
850.761169,459
850.878967,481
850.996887,455
851.114746,443
851.232544,450
851.350403,441
851.468262,452
851.58606,445
851.703979,471
851.821777,454
851.939636,472
852.057434,468
852.175232,466
852.293091,459
852.410889,464
852.528687,476
852.646545,456
852.764343,467
852.88208,465
852.999939,467
853.117676,460
853.235535,465
853.353271,459
853.471069,468
853.588928,463
853.706604,468
853.824402,456
853.9422,448
854.059998,444
854.177734,464
854.295532,470
854.413269,446
854.531006,478
854.648804,464
854.766541,454
854.884277,471
855.002014,449
855.119751,466
855.237549,469
855.355225,499
855.473022,446
855.590698,469
855.708435,469
855.826172,477
855.943848,437
856.061646,446
856.179321,459
856.296997,457
856.414795,473
856.53241,449
856.650085,462
856.767822,481
856.885559,455
857.003174,456
857.120911,459
857.238586,477
857.356201,463
857.473938,456
857.591614,469
857.709351,464
857.826965,453
857.944641,469
858.062317,470
858.179993,486
858.297668,448
858.415283,470
858.532959,489
858.650574,478
858.768188,452
858.885803,446
859.003479,459
859.121094,488
859.23877,453
859.356384,479
859.473999,460
859.591675,468
859.709229,481
859.826843,477
859.944458,457
860.062012,455
860.179626,456
860.297302,462
860.414856,490
860.532471,463
860.650024,464
860.767639,481
860.885193,456
861.002808,469
861.120361,455
861.237976,480
861.35553,459
861.473022,468
861.590698,472
861.708191,453
861.825745,461
861.943298,443
862.060852,449
862.178406,470
862.295959,468
862.413513,466
862.531006,461
862.64856,457
862.766113,459
862.883667,475
863.00116,457
863.118713,459
863.236206,469
863.353699,463
863.471252,454
863.588745,480
863.706177,434
863.82373,461
863.941162,469
864.058716,483
864.176208,465
864.29364,481
864.411194,469
864.528687,463
864.646118,473
864.763611,479
864.881042,478
864.998535,485
865.116028,465
865.233459,460
865.350891,471
865.468384,446
865.585754,481
865.703308,460
865.820679,457
865.938171,472
866.055542,466
866.173035,486
866.290466,465
866.407837,468
866.52533,446
866.6427,472
866.760071,482
866.877563,481
866.994934,475
867.112305,467
867.229736,463
867.347107,479
867.464539,464
867.58197,478
867.699341,484
867.81665,477
867.934082,465
868.051453,468
868.168823,469
868.286194,468
868.403564,474
868.520935,477
868.638306,471
868.755676,452
868.872986,470
868.990295,470
869.107727,487
869.225037,451
869.342346,460
869.459717,468
869.577026,446
869.694336,466
869.811707,473
869.929016,464
870.046326,461
870.163635,483
870.280945,467
870.398254,461
870.515564,477
870.632812,468
870.750183,456
870.867432,461
870.984741,480
871.102051,474
871.219299,471
871.336609,481
871.453918,477
871.571106,474
871.688416,479
871.805664,468
871.922852,450
872.040222,469
872.157471,468
872.274719,475
872.391968,456
872.509155,478
872.626465,466
872.743652,471
872.860962,464
872.978149,462
873.095337,470
873.212646,471
873.329834,483
873.44696,462
873.564209,477
873.681396,470
873.798645,462
873.915894,473
874.03302,468
874.150208,444
874.267456,465
874.384583,461
874.501831,473
874.618958,478
874.736145,485
874.853333,475
874.970459,466
875.087646,474
875.204834,473
875.32196,460
875.439148,450
875.556274,479
875.673401,480
875.790527,456
875.907715,458
876.024841,460
876.141968,483
876.259094,473
876.376282,453
876.493347,474
876.610474,467
876.7276,466
876.844727,461
876.961853,454
877.078918,465
877.195984,463
877.313171,478
877.430237,450
877.547302,469
877.664368,469
877.781433,455
877.898499,467
878.015625,475
878.13269,463
878.249695,461
878.366821,466
878.483887,479
878.600952,469
878.717957,456
878.834961,480
878.952087,504
879.069092,484
879.186157,468
879.303162,483
879.420227,482
879.537231,486
879.654236,467
879.77124,467
879.888306,486
880.005249,466
880.122314,452
880.239319,476
880.356323,464
880.473328,467
880.590271,474
880.707275,477
880.824341,478
880.941284,467
881.058228,438
881.175232,485
881.292236,475
881.40918,485
881.526123,468
881.643066,465
881.760071,464
881.877014,480
881.993958,472
882.11084,462
882.227783,478
882.344727,474
882.46167,462
882.578613,478
882.695618,461
882.812439,470
882.929382,474
883.046326,486
883.163208,475
883.280151,466
883.397034,456
883.513916,474
883.630798,509
883.747742,478
883.864563,439
883.981506,497
884.098389,480
884.21521,482
884.332153,469
884.448975,475
884.565796,469
884.682678,492
884.7995,471
884.916443,488
885.033264,480
885.150085,470
885.266968,486
885.383789,468
885.500671,483
885.617493,477
885.734314,484
885.851196,476
885.967896,491
886.084717,489
886.201599,479
886.318359,465
886.435181,477
886.552002,480
886.668762,477
886.785645,469
886.902344,482
887.019165,468
887.135925,472
887.252747,473
887.369446,473
887.486267,469
887.603027,481
887.719788,471
887.836548,466
887.953247,474
888.070068,458
888.186829,494
888.303528,476
888.420288,511
888.536987,468
888.653687,484
888.770447,482
888.887146,494
889.003967,470
889.120667,494
889.237305,465
889.354065,476
889.470703,469
889.587463,462
889.704163,454
889.820862,485
889.937561,490
890.054199,476
890.170837,458
890.287598,487
890.404236,486
890.520874,482
890.637634,479
890.754211,510
890.87085,491
890.987549,464
891.104187,489
891.220886,508
891.337463,506
891.454102,478
891.57074,487
891.687378,494
891.804077,480
891.920654,465
892.037231,491
892.15387,495
892.270447,479
892.387085,491
892.503723,489
892.6203,480
892.736877,490
892.853516,475
892.970032,492
893.08667,476
893.203186,485
893.319763,493
893.43634,482
893.552917,493
893.669556,490
893.786011,498
893.902588,469
894.019165,484
894.135681,450
894.252197,492
894.368835,488
894.485291,467
894.601868,478
894.718384,470
894.8349,485
894.951355,489
895.067932,493
895.184448,482
895.300964,486
895.417419,494
895.533936,492
895.650452,479
895.766907,490
895.883423,478
895.999878,483
896.116333,482
896.232849,469
896.349304,488
896.465759,471
896.582214,499
896.698669,482
896.815125,480
896.931641,499
897.048035,500
897.164551,479
897.280884,492
897.397339,474
897.513794,509
897.630249,481
897.746582,497
897.863098,498
897.979431,484
898.095886,497
898.212341,489
898.328674,476
898.445129,483
898.561462,488
898.677795,474
898.794312,483
898.910645,494
899.026978,461
899.143433,501
899.259766,497
899.37616,483
899.492493,486
899.608765,484
899.725159,487
899.841553,490
899.957947,476
900.07428,475
900.190552,475
900.306946,489
900.423157,491
900.53949,493
900.655884,493
900.772156,481
900.888489,479
901.004822,478
901.121033,478
901.237366,475
901.353699,465
901.46991,492
901.586304,485
901.702515,496
901.818787,488
901.93512,493
902.051331,500
902.167603,473
902.283875,480
902.400085,497
902.516418,484
902.632629,505
902.74884,482
902.865112,502
902.981384,484
903.097595,510
903.213867,496
903.330017,470
903.446289,492
903.5625,500
903.67865,496
903.794922,491
903.911072,487
904.027344,502
904.143494,493
904.259705,517
904.375916,481
904.492065,476
904.608215,498
904.724426,486
904.840576,494
904.956726,506
905.072876,487
905.189087,487
905.305176,485
905.421387,482
905.537537,484
905.653687,488
905.769775,489
905.885925,484
906.002014,502
906.118164,479
906.234314,487
906.350403,508
906.466492,490
906.582642,484
906.69873,474
906.814758,492
906.930908,490
907.046936,488
907.163086,509
907.279175,497
907.395264,487
907.511353,483
907.62738,487
907.743408,505
907.859497,459
907.975525,505
908.091553,481
908.207703,503
908.32373,495
908.439758,501
908.555786,509
908.671814,486
908.787842,501
908.90387,477
909.019775,496
909.135864,486
909.251892,481
909.367859,498
909.483826,500
909.599854,499
909.715881,482
909.831848,510
909.947815,473
910.063782,505
910.179749,513
910.295776,478
910.411743,505
910.527649,496
910.643616,494
910.759583,499
910.875488,478
910.991455,501
911.107361,500
911.223267,504
911.339294,494
911.4552,498
911.571106,500
911.687073,514
911.802979,481
911.918823,484
912.034729,493
912.150635,497
912.266602,480
912.382446,510
912.498352,484
912.614197,486
912.730103,486
912.846008,476
792.44574,601
792.56488,663
792.68396,661
792.80304,658
792.92218,610
793.041199,591
793.160339,596
793.279419,623
793.398499,600
793.517578,597
793.636658,598
793.755737,605
793.874817,623
793.993896,605
794.112976,599
794.232056,580
794.351074,572
794.470215,621
794.589233,582
794.708313,582
794.827393,559
794.946411,591
795.065552,589
795.18457,571
795.303589,597
795.422668,594
795.541687,585
795.660767,606
795.779846,577
795.898865,587
796.017883,597
796.136963,612
796.255981,590
796.375061,588
796.49408,587
796.613037,586
796.732117,598
796.851135,599
796.970154,585
797.089233,590
797.208191,569
797.327271,555
797.446228,550
797.565186,585
797.684265,559
797.803223,589
797.922241,542
798.04126,579
798.160278,561
798.279297,588
798.398315,592
798.517273,570
798.636292,538
798.75531,597
798.874268,597
798.993286,577
799.112244,588
799.231323,578
799.350281,575
799.469238,567
799.588257,565
799.707153,549
799.826111,574
799.945129,569
800.064087,589
800.183044,590
800.302063,581
800.421021,587
800.539978,556
800.658936,597
800.777893,580
800.896912,566
801.015747,583
801.134705,599
801.253723,559
801.37262,587
801.491638,590
801.610535,572
801.729492,575
801.84845,570
801.967407,575
802.086243,600
802.205261,554
802.324158,567
802.443115,602
802.562073,593
802.680969,573
802.799927,588
802.918762,587
803.037659,583
803.156677,600
803.275574,598
803.39447,627
803.513428,574
803.632263,614
803.751221,598
803.870117,601
803.989014,565
804.107971,575
804.226746,614
804.345642,612
804.4646,592
804.583496,606
804.702393,615
804.821228,603
804.940125,594
805.059021,579
805.177917,620
805.296814,595
805.415649,625
805.534546,606
805.653442,621
805.772278,565
805.891113,609
806.01001,620
806.128906,617
806.247742,608
806.366577,611
806.485413,604
806.604309,610
806.723145,611
806.84198,597
806.960876,578
807.079712,601
807.198486,614
807.317383,609
807.436218,619
807.554993,603
807.673889,649
807.792725,629
807.91156,608
808.030396,587
808.14917,626
808.268005,601
808.386841,600
808.505676,602
808.624451,623
808.743286,622
808.862122,620
808.980896,624
809.099731,602
809.218506,638
809.337341,635
809.456116,618
809.57489,608
809.693726,606
809.8125,616
809.931274,629
810.050049,632
810.168884,643
810.287659,615
810.406372,632
810.525269,636
810.643982,611
810.762756,607
810.881531,623
811.000305,627
811.11908,633
811.237854,610
811.356567,636
811.475403,640
811.594116,629
811.71283,636
811.831604,615
811.950378,608
812.069153,619
812.187927,608
812.30658,608
812.425415,624
812.544128,628
812.662781,639
812.781616,657
812.900269,636
813.019043,634
813.137756,628
813.256531,630
813.375244,639
813.493896,631
813.612671,635
813.731384,634
813.850037,638
813.96875,609
814.087524,635
814.206238,612
814.324951,625
814.443604,602
814.562256,624
814.68103,619
814.799683,651
814.918335,643
815.037109,616
815.155762,614
815.274475,618
815.393188,606
815.511841,614
815.630554,602
815.749146,629
815.867859,596
815.986572,613
816.105164,611
816.223877,615
816.342529,636
816.461182,586
816.579895,628
816.698486,624
816.817139,605
816.935791,627
817.054504,629
817.173096,624
817.291748,595
817.4104,596
817.529053,606
817.647644,607
817.766235,574
817.884949,575
818.00354,560
818.122192,569
818.240845,542
818.359436,544
818.478088,558
818.59668,535
818.715271,549
818.833923,538
818.952515,524
819.071106,522
819.189758,491
819.30835,554
819.426941,509
819.545532,507
819.664124,500
819.782715,507
819.901306,503
820.019897,477
820.138489,504
820.25708,497
820.375671,501
820.494202,488
820.612732,485
820.731384,512
820.849915,510
820.968506,478
821.087097,506
821.205627,481
821.324158,504
821.442749,488
821.561279,504
821.679871,489
821.798401,474
821.916931,490
822.035461,481
822.154053,471
822.272583,503
822.391174,486
822.509583,486
822.628174,509
822.746704,488
822.865234,485
822.983765,496
823.102295,499
823.220825,475
823.339294,494
823.457825,467
823.576355,482
823.694824,494
823.813354,483
823.931885,505
824.050354,494
824.168884,466
824.287354,476
824.405823,490
824.524353,484
824.642822,507
824.761353,483
824.879822,486
824.998291,478
825.116699,505
825.235291,491
825.353699,482
825.472168,483
825.590637,484
825.709106,465
825.827576,474
825.946045,480
826.064453,476
826.182983,464
826.301392,477
826.4198,477
826.53833,467
826.656738,454
826.775208,464
826.893677,468
827.012024,470
827.130493,480
827.248962,465
827.36731,471
827.485779,460
827.604248,468
827.722595,464
827.841064,470
827.959412,450
828.077942,475
828.196289,462
828.314636,505
828.433105,460
828.551514,469
828.669861,466
828.78833,469
828.906677,447
829.025085,460
829.143433,446
829.261841,452
829.38031,467
829.498657,475
829.617004,447
829.735413,471
829.85376,462
829.972107,456
830.090515,466
830.208862,460
830.327209,474
830.445557,466
830.563904,462
830.682312,473
830.800659,478
830.919006,459
831.037354,464
831.155701,477
831.274048,466
831.392395,457
831.51062,476
831.629028,460
831.747314,455
831.865662,459
831.984009,472
832.102356,458
832.220642,465
832.338928,480
832.457275,461
832.575623,467
832.693909,474
832.812134,454
832.930481,466
833.048828,456
833.167114,470
833.2854,458
833.403687,468
833.521973,453
833.640259,476
833.758545,467
833.876831,468
833.995056,472
834.113281,474
834.231628,455
834.349915,452
834.468201,458
834.586426,476
834.704651,468
834.822998,469
834.941162,445
835.059448,462
835.177673,465
835.295959,472
835.414246,469
835.53241,463
835.650635,461
835.768921,471
835.887146,458
836.005371,471
836.123596,473
836.241821,469
836.360046,480
836.478271,483
836.596497,494
836.714722,469
836.832886,486
836.95105,463
837.069336,488
837.1875,489
837.305725,494
837.423889,486
837.542053,480
837.660339,495
837.778503,471
837.896667,474
838.014832,478
838.132996,498
838.25116,485
838.369385,478
838.487488,493
838.605713,471
838.723877,495
838.84198,496
838.960205,487
839.078308,470
839.196472,471
839.314636,470
839.4328,472
839.550964,483
839.669067,463
839.787231,466
839.905396,491
840.023499,475
840.141602,468
840.259766,480
840.377869,496
840.495972,492
840.614136,485
840.732239,477
840.850342,476
840.968445,481
841.086548,470
841.204651,483
841.322754,460
841.440918,462
841.55896,444
841.677002,455
841.795166,489
841.913208,469
842.031311,474
842.149353,477
842.267456,464
842.385498,476
842.503601,466
842.621643,455
842.739746,457
842.857788,451
842.97583,463
843.093933,482
843.211975,468
843.330017,471
843.44812,462
843.566101,465
843.684204,472
843.802246,463
843.920227,465
844.038269,451
844.156311,468
844.274292,474
844.392395,445
844.510376,450
844.628357,455
844.74646,481
844.864441,470
844.982422,462
845.100403,463
845.218384,481
845.336426,464
845.454468,462
845.572449,448
845.69043,442
845.808411,471
845.926453,464
846.044373,442
846.162354,462
846.280396,469
846.398315,458
846.516296,442
846.634216,455
846.752197,471
846.870178,463
846.988098,447
847.106079,460
847.22406,454
847.34198,435
847.4599,451
847.577881,454
847.695801,460
847.813782,470
847.931641,442
848.049561,465
848.167603,445
848.285461,465
848.403381,439
848.521362,463
848.639221,453
848.75708,469
848.875,462
848.99292,476
849.110901,459
849.22876,458
849.34668,462
849.464539,463
849.582458,440
849.700317,457
849.818176,473
849.936096,449
850.053955,462
850.171875,463
850.289673,472
850.407593,455
850.525452,454
850.643311,461
850.761169,440
850.878967,454
850.996887,451
851.114746,477
851.232544,463
851.350403,455
851.468262,458
851.58606,478
851.703979,448
851.821777,469
851.939636,462
852.057434,456
852.175232,459
852.293091,474
852.410889,443
852.528687,454
852.646545,458
852.764343,446
852.88208,462
852.999939,471
853.117676,459
853.235535,463
853.353271,463
853.471069,456
853.588928,465
853.706604,465
853.824402,454
853.9422,467
854.059998,458
854.177734,481
854.295532,460
854.413269,474
854.531006,473
854.648804,459
854.766541,460
854.884277,472
855.002014,462
855.119751,463
855.237549,457
855.355225,455
855.473022,453
855.590698,447
855.708435,476
855.826172,452
855.943848,479
856.061646,479
856.179321,447
856.296997,475
856.414795,463
856.53241,463
856.650085,465
856.767822,476
856.885559,463
857.003174,466
857.120911,475
857.238586,485
857.356201,475
857.473938,466
857.591614,473
857.709351,464
857.826965,447
857.944641,463
858.062317,466
858.179993,495
858.297668,462
858.415283,464
858.532959,458
858.650574,482
858.768188,454
858.885803,466
859.003479,468
859.121094,457
859.23877,459
859.356384,468
859.473999,472
859.591675,487
859.709229,443
859.826843,474
859.944458,460
860.062012,486
860.179626,459
860.297302,466
860.414856,470
860.532471,469
860.650024,473
860.767639,471
860.885193,465
861.002808,473
861.120361,473
861.237976,454
861.35553,475
861.473022,460
861.590698,464
861.708191,472
861.825745,451
861.943298,448
862.060852,445
862.178406,451
862.295959,466
862.413513,454
862.531006,478
862.64856,457
862.766113,452
862.883667,461
863.00116,485
863.118713,463
863.236206,444
863.353699,481
863.471252,473
863.588745,465
863.706177,478
863.82373,478
863.941162,452
864.058716,465
864.176208,478
864.29364,451
864.411194,462
864.528687,480
864.646118,477
864.763611,470
864.881042,482
864.998535,469
865.116028,448
865.233459,463
865.350891,454
865.468384,487
865.585754,469
865.703308,466
865.820679,467
865.938171,477
866.055542,463
866.173035,461
866.290466,476
866.407837,477
866.52533,469
866.6427,482
866.760071,454
866.877563,473
866.994934,459
867.112305,462
867.229736,468
867.347107,467
867.464539,487
867.58197,479
867.699341,475
867.81665,454
867.934082,474
868.051453,472
868.168823,464
868.286194,485
868.403564,471
868.520935,456
868.638306,471
868.755676,461
868.872986,469
868.990295,490
869.107727,466
869.225037,474
869.342346,461
869.459717,465
869.577026,457
869.694336,477
869.811707,464
869.929016,451
870.046326,457
870.163635,490
870.280945,477
870.398254,477
870.515564,456
870.632812,467
870.750183,464
870.867432,457
870.984741,445
871.102051,457
871.219299,455
871.336609,461
871.453918,458
871.571106,475
871.688416,466
871.805664,474
871.922852,473
872.040222,460
872.157471,470
872.274719,473
872.391968,470
872.509155,471
872.626465,475
872.743652,471
872.860962,461
872.978149,478
873.095337,476
873.212646,478
873.329834,486
873.44696,490
873.564209,464
873.681396,472
873.798645,455
873.915894,477
874.03302,463
874.150208,481
874.267456,490
874.384583,463
874.501831,467
874.618958,470
874.736145,470
874.853333,483
874.970459,471
875.087646,470
875.204834,452
875.32196,484
875.439148,476
875.556274,479
875.673401,476
875.790527,461
875.907715,461
876.024841,475
876.141968,480
876.259094,488
876.376282,451
876.493347,484
876.610474,461
876.7276,473
876.844727,473
876.961853,483
877.078918,499
877.195984,477
877.313171,468
877.430237,475
877.547302,473
877.664368,477
877.781433,477
877.898499,477
878.015625,454
878.13269,462
878.249695,473
878.366821,487
878.483887,452
878.600952,476
878.717957,490
878.834961,477
878.952087,474
879.069092,481
879.186157,501
879.303162,457
879.420227,470
879.537231,470
879.654236,470
879.77124,459
879.888306,487
880.005249,493
880.122314,483
880.239319,460
880.356323,468
880.473328,480
880.590271,476
880.707275,476
880.824341,468
880.941284,484
881.058228,460
881.175232,476
881.292236,462
881.40918,467
881.526123,466
881.643066,448
881.760071,459
881.877014,466
881.993958,480
882.11084,471
882.227783,461
882.344727,486
882.46167,459
882.578613,451
882.695618,469
882.812439,489
882.929382,468
883.046326,488
883.163208,462
883.280151,491
883.397034,470
883.513916,482
883.630798,459
883.747742,481
883.864563,488
883.981506,465
884.098389,461
884.21521,472
884.332153,461
884.448975,471
884.565796,485
884.682678,494
884.7995,463
884.916443,486
885.033264,465
885.150085,486
885.266968,467
885.383789,479
885.500671,472
885.617493,480
885.734314,470
885.851196,476
885.967896,494
886.084717,487
886.201599,477
886.318359,504
886.435181,472
886.552002,474
886.668762,464
886.785645,484
886.902344,467
887.019165,494
887.135925,467
887.252747,475
887.369446,483
887.486267,474
887.603027,475
887.719788,488
887.836548,496
887.953247,466
888.070068,469
888.186829,490
888.303528,465
888.420288,470
888.536987,455
888.653687,483
888.770447,465
888.887146,481
889.003967,485
889.120667,485
889.237305,483
889.354065,476
889.470703,458
889.587463,476
889.704163,488
889.820862,485
889.937561,492
890.054199,498
890.170837,458
890.287598,490
890.404236,484
890.520874,489
890.637634,496
890.754211,478
890.87085,493
890.987549,487
891.104187,485
891.220886,499
891.337463,481
891.454102,498
891.57074,480
891.687378,487
891.804077,490
891.920654,470
892.037231,495
892.15387,489
892.270447,489
892.387085,488
892.503723,471
892.6203,489
892.736877,482
892.853516,482
892.970032,476
893.08667,501
893.203186,470
893.319763,480
893.43634,473
893.552917,486
893.669556,467
893.786011,480
893.902588,517
894.019165,486
894.135681,486
894.252197,506
894.368835,500
894.485291,469
894.601868,508
894.718384,491
894.8349,480
894.951355,501
895.067932,474
895.184448,485
895.300964,491
895.417419,501
895.533936,488
895.650452,485
895.766907,490
895.883423,488
895.999878,467
896.116333,480
896.232849,461
896.349304,489
896.465759,478
896.582214,501
896.698669,484
896.815125,488
896.931641,488
897.048035,503
897.164551,503
897.280884,485
897.397339,489
897.513794,472
897.630249,483
897.746582,484
897.863098,504
897.979431,484
898.095886,511
898.212341,478
898.328674,478
898.445129,478
898.561462,461
898.677795,498
898.794312,494
898.910645,501
899.026978,488
899.143433,474
899.259766,493
899.37616,509
899.492493,497
899.608765,480
899.725159,472
899.841553,498
899.957947,484
900.07428,499
900.190552,504
900.306946,506
900.423157,476
900.53949,520
900.655884,496
900.772156,492
900.888489,472
901.004822,476
901.121033,487
901.237366,491
901.353699,488
901.46991,495
901.586304,476
901.702515,480
901.818787,489
901.93512,489
902.051331,490
902.167603,502
902.283875,495
902.400085,479
902.516418,497
902.632629,506
902.74884,505
902.865112,513
902.981384,495
903.097595,501
903.213867,488
903.330017,509
903.446289,490
903.5625,497
903.67865,498
903.794922,482
903.911072,492
904.027344,517
904.143494,503
904.259705,494
904.375916,500
904.492065,489
904.608215,494
904.724426,488
904.840576,500
904.956726,472
905.072876,499
905.189087,498
905.305176,493
905.421387,487
905.537537,509
905.653687,495
905.769775,490
905.885925,498
906.002014,503
906.118164,504
906.234314,489
906.350403,535
906.466492,478
906.582642,481
906.69873,505
906.814758,475
906.930908,488
907.046936,509
907.163086,498
907.279175,495
907.395264,491
907.511353,500
907.62738,481
907.743408,490
907.859497,496
907.975525,510
908.091553,480
908.207703,492
908.32373,507
908.439758,491
908.555786,498
908.671814,521
908.787842,499
908.90387,492
909.019775,500
909.135864,498
909.251892,483
909.367859,488
909.483826,504
909.599854,484
909.715881,502
909.831848,460
909.947815,482
910.063782,480
910.179749,503
910.295776,515
910.411743,479
910.527649,529
910.643616,494
910.759583,490
910.875488,511
910.991455,507
911.107361,495
911.223267,509
911.339294,500
911.4552,516
911.571106,476
911.687073,496
911.802979,482
911.918823,495
912.034729,487
912.150635,492
912.266602,506
912.382446,489
912.498352,492
912.614197,504
912.730103,516
912.846008,510
