792.44574,710
792.56488,758
792.68396,751
792.80304,771
792.92218,691
793.041199,678
793.160339,663
793.279419,677
793.398499,673
793.517578,651
793.636658,646
793.755737,644
793.874817,664
793.993896,634
794.112976,660
794.232056,607
794.351074,610
794.470215,614
794.589233,612
794.708313,623
794.827393,581
794.946411,585
795.065552,623
795.18457,608
795.303589,589
795.422668,593
795.541687,610
795.660767,590
795.779846,579
795.898865,580
796.017883,574
796.136963,586
796.255981,566
796.375061,575
796.49408,563
796.613037,575
796.732117,568
796.851135,560
796.970154,584
797.089233,572
797.208191,587
797.327271,573
797.446228,556
797.565186,555
797.684265,547
797.803223,554
797.922241,556
798.04126,550
798.160278,565
798.279297,553
798.398315,544
798.517273,548
798.636292,560
798.75531,547
798.874268,554
798.993286,533
799.112244,547
799.231323,564
799.350281,546
799.469238,505
799.588257,559
799.707153,527
799.826111,546
799.945129,525
800.064087,542
800.183044,508
800.302063,553
800.421021,545
800.539978,554
800.658936,537
800.777893,552
800.896912,535
801.015747,530
801.134705,539
801.253723,534
801.37262,523
801.491638,543
801.610535,537
801.729492,542
801.84845,526
801.967407,536
802.086243,545
802.205261,549
802.324158,532
802.443115,514
802.562073,537
802.680969,539
802.799927,530
802.918762,522
803.037659,505
803.156677,522
803.275574,505
803.39447,536
803.513428,524
803.632263,533
803.751221,526
803.870117,507
803.989014,499
804.107971,531
804.226746,522
804.345642,525
804.4646,521
804.583496,505
804.702393,517
804.821228,517
804.940125,526
805.059021,526
805.177917,523
805.296814,537
805.415649,533
805.534546,535
805.653442,504
805.772278,523
805.891113,507
806.01001,516
806.128906,499
806.247742,507
806.366577,523
806.485413,535
806.604309,532
806.723145,537
806.84198,524
806.960876,507
807.079712,520
807.198486,520
807.317383,529
807.436218,504
807.554993,517
807.673889,513
807.792725,517
807.91156,535
808.030396,521
808.14917,533
808.268005,509
808.386841,492
808.505676,513
808.624451,532
808.743286,508
808.862122,504
808.980896,517
809.099731,513
809.218506,506
809.337341,517
809.456116,519
809.57489,512
809.693726,537
809.8125,513
809.931274,531
810.050049,537
810.168884,508
810.287659,512
810.406372,511
810.525269,517
810.643982,540
810.762756,513
810.881531,520
811.000305,507
811.11908,513
811.237854,508
811.356567,520
811.475403,541
811.594116,491
811.71283,520
811.831604,510
811.950378,532
812.069153,540
812.187927,532
812.30658,530
812.425415,527
812.544128,516
812.662781,520
812.781616,512
812.900269,533
813.019043,517
813.137756,498
813.256531,503
813.375244,520
813.493896,506
813.612671,524
813.731384,496
813.850037,534
813.96875,514
814.087524,518
814.206238,501
814.324951,513
814.443604,480
814.562256,525
814.68103,506
814.799683,513
814.918335,498
815.037109,528
815.155762,506
815.274475,522
815.393188,514
815.511841,493
815.630554,511
815.749146,513
815.867859,509
815.986572,510
816.105164,526
816.223877,510
816.342529,511
816.461182,516
816.579895,516
816.698486,527
816.817139,488
816.935791,526
817.054504,512
817.173096,519
817.291748,498
817.4104,502
817.529053,507
817.647644,502
817.766235,491
817.884949,496
818.00354,497
818.122192,495
818.240845,497
818.359436,515
818.478088,491
818.59668,490
818.715271,500
818.833923,523
818.952515,481
819.071106,487
819.189758,485
819.30835,494
819.426941,485
819.545532,493
819.664124,467
819.782715,480
819.901306,489
820.019897,484
820.138489,463
820.25708,484
820.375671,484
820.494202,492
820.612732,491
820.731384,479
820.849915,479
820.968506,493
821.087097,500
821.205627,463
821.324158,460
821.442749,477
821.561279,460
821.679871,493
821.798401,474
821.916931,469
822.035461,464
822.154053,460
822.272583,484
822.391174,489
822.509583,474
822.628174,479
822.746704,469
822.865234,453
822.983765,487
823.102295,452
823.220825,479
823.339294,472
823.457825,473
823.576355,491
823.694824,451
823.813354,466
823.931885,491
824.050354,499
824.168884,462
824.287354,458
824.405823,475
824.524353,465
824.642822,486
824.761353,478
824.879822,471
824.998291,472
825.116699,461
825.235291,477
825.353699,480
825.472168,489
825.590637,469
825.709106,488
825.827576,482
825.946045,464
826.064453,457
826.182983,458
826.301392,482
826.4198,471
826.53833,463
826.656738,474
826.775208,467
826.893677,460
827.012024,470
827.130493,470
827.248962,442
827.36731,477
827.485779,467
827.604248,462
827.722595,462
827.841064,443
827.959412,470
828.077942,470
828.196289,452
828.314636,467
828.433105,462
828.551514,485
828.669861,472
828.78833,447
828.906677,464
829.025085,462
829.143433,468
829.261841,472
829.38031,476
829.498657,482
829.617004,450
829.735413,461
829.85376,470
829.972107,455
830.090515,482
830.208862,465
830.327209,462
830.445557,466
830.563904,452
830.682312,455
830.800659,459
830.919006,482
831.037354,464
831.155701,467
831.274048,474
831.392395,485
831.51062,464
831.629028,472
831.747314,460
831.865662,470
831.984009,461
832.102356,455
832.220642,447
832.338928,482
832.457275,469
832.575623,469
832.693909,475
832.812134,448
832.930481,465
833.048828,464
833.167114,458
833.2854,445
833.403687,471
833.521973,440
833.640259,479
833.758545,488
833.876831,464
833.995056,477
834.113281,456
834.231628,472
834.349915,459
834.468201,470
834.586426,460
834.704651,460
834.822998,471
834.941162,470
835.059448,447
835.177673,469
835.295959,456
835.414246,470
835.53241,453
835.650635,449
835.768921,454
835.887146,453
836.005371,467
836.123596,481
836.241821,452
836.360046,468
836.478271,440
836.596497,467
836.714722,450
836.832886,459
836.95105,455
837.069336,478
837.1875,449
837.305725,450
837.423889,469
837.542053,468
837.660339,466
837.778503,476
837.896667,457
838.014832,466
838.132996,449
838.25116,474
838.369385,481
838.487488,499
838.605713,455
838.723877,466
838.84198,483
838.960205,470
839.078308,457
839.196472,465
839.314636,457
839.4328,468
839.550964,455
839.669067,477
839.787231,477
839.905396,477
840.023499,463
840.141602,475
840.259766,466
840.377869,478
840.495972,454
840.614136,498
840.732239,477
840.850342,464
840.968445,487
841.086548,471
841.204651,493
841.322754,479
841.440918,474
841.55896,470
841.677002,458
841.795166,485
841.913208,469
842.031311,456
842.149353,488
842.267456,495
842.385498,473
842.503601,465
842.621643,468
842.739746,495
842.857788,480
842.97583,473
843.093933,487
843.211975,485
843.330017,465
843.44812,496
843.566101,475
843.684204,469
843.802246,481
843.920227,471
844.038269,469
844.156311,482
844.274292,488
844.392395,482
844.510376,480
844.628357,484
844.74646,471
844.864441,470
844.982422,450
845.100403,460
845.218384,481
845.336426,465
845.454468,462
845.572449,479
845.69043,456
845.808411,469
845.926453,484
846.044373,472
846.162354,464
846.280396,478
846.398315,454
846.516296,460
846.634216,471
846.752197,466
846.870178,470
846.988098,462
847.106079,476
847.22406,483
847.34198,490
847.4599,478
847.577881,456
847.695801,467
847.813782,451
847.931641,480
848.049561,481
848.167603,481
848.285461,464
848.403381,465
848.521362,463
848.639221,480
848.75708,452
848.875,480
848.99292,472
849.110901,463
849.22876,474
849.34668,489
849.464539,479
849.582458,491
849.700317,496
849.818176,479
849.936096,475
850.053955,500
850.171875,486
850.289673,467
850.407593,485
850.525452,473
850.643311,486
850.761169,480
850.878967,488
850.996887,478
851.114746,478
851.232544,463
851.350403,453
851.468262,472
851.58606,472
851.703979,468
851.821777,479
851.939636,486
852.057434,471
852.175232,480
852.293091,494
852.410889,486
852.528687,493
852.646545,480
852.764343,484
852.88208,501
852.999939,467
853.117676,479
853.235535,475
853.353271,475
853.471069,470
853.588928,473
853.706604,457
853.824402,455
853.9422,479
854.059998,443
854.177734,462
854.295532,468
854.413269,482
854.531006,494
854.648804,477
854.766541,509
854.884277,476
855.002014,470
855.119751,445
855.237549,482
855.355225,457
855.473022,463
855.590698,466
855.708435,470
855.826172,454
855.943848,452
856.061646,464
856.179321,482
856.296997,471
856.414795,470
856.53241,488
856.650085,455
856.767822,479
856.885559,473
857.003174,470
857.120911,483
857.238586,489
857.356201,484
857.473938,476
857.591614,472
857.709351,484
857.826965,483
857.944641,465
858.062317,501
858.179993,477
858.297668,460
858.415283,491
858.532959,465
858.650574,479
858.768188,474
858.885803,485
859.003479,481
859.121094,468
859.23877,477
859.356384,477
859.473999,491
859.591675,499
859.709229,477
859.826843,472
859.944458,469
860.062012,476
860.179626,475
860.297302,458
860.414856,455
860.532471,470
860.650024,469
860.767639,476
860.885193,485
861.002808,459
861.120361,482
861.237976,473
861.35553,491
861.473022,481
861.590698,466
861.708191,472
861.825745,470
861.943298,470
862.060852,471
862.178406,477
862.295959,472
862.413513,465
862.531006,477
862.64856,470
862.766113,490
862.883667,451
863.00116,454
863.118713,452
863.236206,472
863.353699,464
863.471252,468
863.588745,466
863.706177,482
863.82373,457
863.941162,482
864.058716,461
864.176208,467
864.29364,493
864.411194,478
864.528687,463
864.646118,460
864.763611,483
864.881042,462
864.998535,471
865.116028,462
865.233459,476
865.350891,477
865.468384,468
865.585754,467
865.703308,459
865.820679,474
865.938171,454
866.055542,485
866.173035,472
866.290466,459
866.407837,494
866.52533,460
866.6427,479
866.760071,473
866.877563,460
866.994934,463
867.112305,465
867.229736,476
867.347107,453
867.464539,474
867.58197,471
867.699341,471
867.81665,467
867.934082,488
868.051453,457
868.168823,472
868.286194,491
868.403564,473
868.520935,467
868.638306,466
868.755676,475
868.872986,471
868.990295,476
869.107727,470
869.225037,454
869.342346,488
869.459717,474
869.577026,465
869.694336,480
869.811707,488
869.929016,479
870.046326,494
870.163635,470
870.280945,494
870.398254,469
870.515564,487
870.632812,482
870.750183,503
870.867432,456
870.984741,476
871.102051,495
871.219299,501
871.336609,484
871.453918,487
871.571106,480
871.688416,495
871.805664,491
871.922852,476
872.040222,475
872.157471,488
872.274719,494
872.391968,498
872.509155,503
872.626465,473
872.743652,493
872.860962,481
872.978149,468
873.095337,459
873.212646,480
873.329834,488
873.44696,468
873.564209,465
873.681396,478
873.798645,480
873.915894,491
874.03302,481
874.150208,473
874.267456,510
874.384583,474
874.501831,487
874.618958,474
874.736145,509
874.853333,504
874.970459,501
875.087646,505
875.204834,460
875.32196,483
875.439148,469
875.556274,483
875.673401,477
875.790527,487
875.907715,485
876.024841,492
876.141968,483
876.259094,478
876.376282,470
876.493347,476
876.610474,490
876.7276,456
876.844727,479
876.961853,472
877.078918,490
877.195984,476
877.313171,478
877.430237,483
877.547302,477
877.664368,480
877.781433,481
877.898499,464
878.015625,467
878.13269,469
878.249695,476
878.366821,469
878.483887,472
878.600952,474
878.717957,454
878.834961,465
878.952087,476
879.069092,483
879.186157,486
879.303162,443
879.420227,467
879.537231,463
879.654236,472
879.77124,470
879.888306,470
880.005249,477
880.122314,465
880.239319,462
880.356323,482
880.473328,451
880.590271,485
880.707275,452
880.824341,475
880.941284,461
881.058228,480
881.175232,454
881.292236,483
881.40918,469
881.526123,455
881.643066,463
881.760071,467
881.877014,460
881.993958,461
882.11084,466
882.227783,452
882.344727,483
882.46167,470
882.578613,438
882.695618,484
882.812439,480
882.929382,475
883.046326,469
883.163208,467
883.280151,465
883.397034,468
883.513916,475
883.630798,496
883.747742,473
883.864563,464
883.981506,475
884.098389,480
884.21521,484
884.332153,503
884.448975,468
884.565796,482
884.682678,480
884.7995,499
884.916443,511
885.033264,524
885.150085,500
885.266968,510
885.383789,538
885.500671,536
885.617493,507
885.734314,525
885.851196,535
885.967896,492
886.084717,503
886.201599,507
886.318359,502
886.435181,513
886.552002,485
886.668762,503
886.785645,507
886.902344,519
887.019165,508
887.135925,493
887.252747,468
887.369446,514
887.486267,491
887.603027,493
887.719788,504
887.836548,483
887.953247,476
888.070068,482
888.186829,480
888.303528,476
888.420288,472
888.536987,466
888.653687,481
888.770447,491
888.887146,475
889.003967,469
889.120667,450
889.237305,457
889.354065,480
889.470703,457
889.587463,471
889.704163,466
889.820862,466
889.937561,492
890.054199,461
890.170837,452
890.287598,454
890.404236,472
890.520874,444
890.637634,489
890.754211,454
890.87085,463
890.987549,463
891.104187,457
891.220886,477
891.337463,476
891.454102,458
891.57074,467
891.687378,480
891.804077,464
891.920654,466
892.037231,490
892.15387,458
892.270447,465
892.387085,475
892.503723,467
892.6203,480
892.736877,475
892.853516,492
892.970032,480
893.08667,467
893.203186,457
893.319763,446
893.43634,481
893.552917,461
893.669556,467
893.786011,463
893.902588,468
894.019165,450
894.135681,473
894.252197,464
894.368835,465
894.485291,473
894.601868,472
894.718384,470
894.8349,473
894.951355,477
895.067932,473
895.184448,460
895.300964,475
895.417419,461
895.533936,462
895.650452,470
895.766907,459
895.883423,460
895.999878,447
896.116333,474
896.232849,460
896.349304,455
896.465759,470
896.582214,463
896.698669,488
896.815125,468
896.931641,459
897.048035,478
897.164551,461
897.280884,468
897.397339,472
897.513794,472
897.630249,491
897.746582,461
897.863098,448
897.979431,479
898.095886,465
898.212341,479
898.328674,474
898.445129,467
898.561462,472
898.677795,465
898.794312,482
898.910645,462
899.026978,468
899.143433,458
899.259766,479
899.37616,453
899.492493,475
899.608765,455
899.725159,475
899.841553,477
899.957947,464
900.07428,449
900.190552,484
900.306946,479
900.423157,456
900.53949,470
900.655884,469
900.772156,470
900.888489,491
901.004822,476
901.121033,468
901.237366,468
901.353699,462
901.46991,470
901.586304,462
901.702515,480
901.818787,490
901.93512,471
902.051331,500
902.167603,469
902.283875,510
902.400085,481
902.516418,479
902.632629,504
902.74884,490
902.865112,494
902.981384,500
903.097595,481
903.213867,504
903.330017,495
903.446289,509
903.5625,478
903.67865,506
903.794922,483
903.911072,493
904.027344,455
904.143494,506
904.259705,475
904.375916,463
904.492065,471
904.608215,459
904.724426,452
904.840576,481
904.956726,483
905.072876,480
905.189087,473
905.305176,472
905.421387,457
905.537537,476
905.653687,459
905.769775,460
905.885925,482
906.002014,470
906.118164,477
906.234314,465
906.350403,467
906.466492,464
906.582642,468
906.69873,477
906.814758,458
906.930908,487
907.046936,467
907.163086,488
907.279175,468
907.395264,459
907.511353,471
907.62738,469
907.743408,484
907.859497,468
907.975525,470
908.091553,472
908.207703,455
908.32373,472
908.439758,476
908.555786,472
908.671814,480
908.787842,464
908.90387,475
909.019775,467
909.135864,474
909.251892,476
909.367859,460
909.483826,494
909.599854,452
909.715881,486
909.831848,474
909.947815,477
910.063782,471
910.179749,476
910.295776,468
910.411743,468
910.527649,482
910.643616,482
910.759583,472
910.875488,479
910.991455,482
911.107361,453
911.223267,488
911.339294,494
911.4552,465
911.571106,470
911.687073,477
911.802979,481
911.918823,466
912.034729,472
912.150635,462
912.266602,458
912.382446,489
912.498352,476
912.614197,475
912.730103,471
912.846008,465
792.44574,733
792.56488,734
792.68396,751
792.80304,750
792.92218,715
793.041199,678
793.160339,680
793.279419,670
793.398499,651
793.517578,655
793.636658,673
793.755737,646
793.874817,644
793.993896,632
794.112976,641
794.232056,614
794.351074,627
794.470215,636
794.589233,648
794.708313,628
794.827393,615
794.946411,615
795.065552,621
795.18457,602
795.303589,596
795.422668,594
795.541687,591
795.660767,609
795.779846,587
795.898865,570
796.017883,583
796.136963,580
796.255981,578
796.375061,587
796.49408,580
796.613037,573
796.732117,580
796.851135,563
796.970154,595
797.089233,565
797.208191,574
797.327271,564
797.446228,545
797.565186,546
797.684265,577
797.803223,555
797.922241,553
798.04126,558
798.160278,548
798.279297,564
798.398315,559
798.517273,542
798.636292,553
798.75531,538
798.874268,538
798.993286,545
799.112244,545
799.231323,566
799.350281,552
799.469238,551
799.588257,546
799.707153,565
799.826111,527
799.945129,533
800.064087,530
800.183044,531
800.302063,533
800.421021,557
800.539978,516
800.658936,530
800.777893,549
800.896912,534
801.015747,547
801.134705,534
801.253723,551
801.37262,533
801.491638,511
801.610535,539
801.729492,530
801.84845,531
801.967407,534
802.086243,542
802.205261,538
802.324158,533
802.443115,527
802.562073,541
802.680969,530
802.799927,545
802.918762,533
803.037659,529
803.156677,536
803.275574,515
803.39447,527
803.513428,529
803.632263,532
803.751221,518
803.870117,529
803.989014,509
804.107971,538
804.226746,510
804.345642,538
804.4646,540
804.583496,524
804.702393,520
804.821228,520
804.940125,525
805.059021,508
805.177917,528
805.296814,539
805.415649,519
805.534546,520
805.653442,505
805.772278,515
805.891113,506
806.01001,514
806.128906,520
806.247742,520
806.366577,515
806.485413,511
806.604309,549
806.723145,518
806.84198,537
806.960876,508
807.079712,525
807.198486,522
807.317383,500
807.436218,524
807.554993,538
807.673889,522
807.792725,514
807.91156,546
808.030396,530
808.14917,543
808.268005,525
808.386841,515
808.505676,539
808.624451,537
808.743286,493
808.862122,503
808.980896,523
809.099731,525
809.218506,507
809.337341,531
809.456116,530
809.57489,525
809.693726,531
809.8125,512
809.931274,523
810.050049,524
810.168884,524
810.287659,522
810.406372,523
810.525269,521
810.643982,539
810.762756,520
810.881531,514
811.000305,533
811.11908,532
811.237854,506
811.356567,528
811.475403,538
811.594116,535
811.71283,536
811.831604,521
811.950378,531
812.069153,521
812.187927,508
812.30658,545
812.425415,531
812.544128,507
812.662781,516
812.781616,514
812.900269,519
813.019043,524
813.137756,512
813.256531,525
813.375244,525
813.493896,531
813.612671,512
813.731384,514
813.850037,505
813.96875,512
814.087524,511
814.206238,518
814.324951,512
814.443604,499
814.562256,508
814.68103,503
814.799683,504
814.918335,510
815.037109,528
815.155762,498
815.274475,509
815.393188,516
815.511841,530
815.630554,520
815.749146,505
815.867859,527
815.986572,520
816.105164,509
816.223877,479
816.342529,500
816.461182,516
816.579895,505
816.698486,503
816.817139,532
816.935791,534
817.054504,517
817.173096,529
817.291748,504
817.4104,500
817.529053,517
817.647644,486
817.766235,515
817.884949,500
818.00354,472
818.122192,505
818.240845,505
818.359436,486
818.478088,495
818.59668,487
818.715271,498
818.833923,484
818.952515,471
819.071106,498
819.189758,495
819.30835,479
819.426941,509
819.545532,483
819.664124,482
819.782715,492
819.901306,470
820.019897,487
820.138489,493
820.25708,495
820.375671,476
820.494202,464
820.612732,476
820.731384,497
820.849915,487
820.968506,478
821.087097,488
821.205627,490
821.324158,453
821.442749,482
821.561279,470
821.679871,470
821.798401,485
821.916931,498
822.035461,464
822.154053,478
822.272583,480
822.391174,471
822.509583,472
822.628174,495
822.746704,458
822.865234,482
822.983765,467
823.102295,484
823.220825,488
823.339294,457
823.457825,474
823.576355,464
823.694824,465
823.813354,489
823.931885,491
824.050354,497
824.168884,470
824.287354,502
824.405823,485
824.524353,458
824.642822,465
824.761353,475
824.879822,457
824.998291,495
825.116699,496
825.235291,484
825.353699,480
825.472168,476
825.590637,481
825.709106,460
825.827576,468
825.946045,475
826.064453,468
826.182983,448
826.301392,469
826.4198,471
826.53833,492
826.656738,460
826.775208,463
826.893677,451
827.012024,476
827.130493,474
827.248962,468
827.36731,466
827.485779,456
827.604248,463
827.722595,464
827.841064,463
827.959412,464
828.077942,466
828.196289,470
828.314636,470
828.433105,455
828.551514,471
828.669861,455
828.78833,470
828.906677,445
829.025085,471
829.143433,462
829.261841,451
829.38031,465
829.498657,459
829.617004,460
829.735413,474
829.85376,439
829.972107,467
830.090515,461
830.208862,458
830.327209,463
830.445557,453
830.563904,461
830.682312,460
830.800659,455
830.919006,481
831.037354,463
831.155701,480
831.274048,475
831.392395,468
831.51062,472
831.629028,464
831.747314,477
831.865662,459
831.984009,475
832.102356,467
832.220642,467
832.338928,474
832.457275,466
832.575623,462
832.693909,468
832.812134,462
832.930481,467
833.048828,463
833.167114,469
833.2854,470
833.403687,484
833.521973,461
833.640259,480
833.758545,455
833.876831,472
833.995056,468
834.113281,477
834.231628,485
834.349915,463
834.468201,454
834.586426,469
834.704651,471
834.822998,482
834.941162,456
835.059448,468
835.177673,469
835.295959,477
835.414246,457
835.53241,458
835.650635,490
835.768921,470
835.887146,466
836.005371,484
836.123596,474
836.241821,477
836.360046,470
836.478271,463
836.596497,457
836.714722,464
836.832886,458
836.95105,456
837.069336,466
837.1875,465
837.305725,456
837.423889,468
837.542053,449
837.660339,463
837.778503,468
837.896667,484
838.014832,467
838.132996,452
838.25116,483
838.369385,476
838.487488,459
838.605713,480
838.723877,462
838.84198,473
838.960205,493
839.078308,470
839.196472,489
839.314636,465
839.4328,458
839.550964,463
839.669067,472
839.787231,478
839.905396,473
840.023499,493
840.141602,478
840.259766,473
840.377869,464
840.495972,468
840.614136,471
840.732239,488
840.850342,489
840.968445,465
841.086548,468
841.204651,485
841.322754,444
841.440918,476
841.55896,491
841.677002,487
841.795166,472
841.913208,470
842.031311,481
842.149353,480
842.267456,498
842.385498,501
842.503601,483
842.621643,467
842.739746,486
842.857788,472
842.97583,464
843.093933,472
843.211975,475
843.330017,469
843.44812,494
843.566101,486
843.684204,480
843.802246,475
843.920227,499
844.038269,470
844.156311,488
844.274292,479
844.392395,471
844.510376,465
844.628357,481
844.74646,468
844.864441,467
844.982422,480
845.100403,456
845.218384,482
845.336426,473
845.454468,489
845.572449,462
845.69043,458
845.808411,470
845.926453,465
846.044373,474
846.162354,459
846.280396,465
846.398315,468
846.516296,465
846.634216,460
846.752197,489
846.870178,477
846.988098,476
847.106079,486
847.22406,465
847.34198,476
847.4599,491
847.577881,476
847.695801,473
847.813782,477
847.931641,475
848.049561,477
848.167603,473
848.285461,479
848.403381,495
848.521362,467
848.639221,492
848.75708,474
848.875,468
848.99292,474
849.110901,480
849.22876,501
849.34668,469
849.464539,492
849.582458,484
849.700317,465
849.818176,474
849.936096,470
850.053955,475
850.171875,451
850.289673,484
850.407593,474
850.525452,489
850.643311,475
850.761169,474
850.878967,479
850.996887,461
851.114746,473
851.232544,487
851.350403,475
851.468262,479
851.58606,486
851.703979,495
851.821777,470
851.939636,457
852.057434,461
852.175232,456
852.293091,467
852.410889,506
852.528687,476
852.646545,477
852.764343,498
852.88208,479
852.999939,511
853.117676,482
853.235535,473
853.353271,477
853.471069,474
853.588928,482
853.706604,459
853.824402,483
853.9422,461
854.059998,466
854.177734,468
854.295532,489
854.413269,475
854.531006,471
854.648804,482
854.766541,491
854.884277,474
855.002014,480
855.119751,484
855.237549,474
855.355225,469
855.473022,471
855.590698,467
855.708435,495
855.826172,480
855.943848,467
856.061646,481
856.179321,461
856.296997,478
856.414795,454
856.53241,488
856.650085,500
856.767822,472
856.885559,480
857.003174,476
857.120911,483
857.238586,499
857.356201,479
857.473938,494
857.591614,495
857.709351,483
857.826965,487
857.944641,493
858.062317,471
858.179993,490
858.297668,476
858.415283,482
858.532959,488
858.650574,473
858.768188,491
858.885803,490
859.003479,472
859.121094,481
859.23877,498
859.356384,485
859.473999,486
859.591675,478
859.709229,478
859.826843,472
859.944458,468
860.062012,488
860.179626,467
860.297302,473
860.414856,481
860.532471,490
860.650024,479
860.767639,477
860.885193,479
861.002808,463
861.120361,473
861.237976,459
861.35553,480
861.473022,486
861.590698,502
861.708191,472
861.825745,483
861.943298,497
862.060852,482
862.178406,488
862.295959,466
862.413513,477
862.531006,466
862.64856,468
862.766113,479
862.883667,478
863.00116,478
863.118713,464
863.236206,460
863.353699,470
863.471252,485
863.588745,469
863.706177,481
863.82373,474
863.941162,436
864.058716,470
864.176208,471
864.29364,491
864.411194,481
864.528687,460
864.646118,488
864.763611,453
864.881042,470
864.998535,468
865.116028,466
865.233459,472
865.350891,444
865.468384,478
865.585754,467
865.703308,476
865.820679,478
865.938171,464
866.055542,484
866.173035,487
866.290466,460
866.407837,449
866.52533,484
866.6427,475
866.760071,465
866.877563,478
866.994934,482
867.112305,473
867.229736,478
867.347107,468
867.464539,470
867.58197,485
867.699341,487
867.81665,487
867.934082,466
868.051453,454
868.168823,491
868.286194,464
868.403564,476
868.520935,492
868.638306,471
868.755676,467
868.872986,461
868.990295,476
869.107727,447
869.225037,461
869.342346,459
869.459717,460
869.577026,480
869.694336,497
869.811707,478
869.929016,480
870.046326,478
870.163635,485
870.280945,486
870.398254,477
870.515564,485
870.632812,458
870.750183,487
870.867432,472
870.984741,478
871.102051,482
871.219299,472
871.336609,481
871.453918,450
871.571106,497
871.688416,507
871.805664,481
871.922852,486
872.040222,487
872.157471,469
872.274719,494
872.391968,490
872.509155,477
872.626465,488
872.743652,482
872.860962,479
872.978149,499
873.095337,495
873.212646,492
873.329834,501
873.44696,486
873.564209,502
873.681396,488
873.798645,470
873.915894,497
874.03302,463
874.150208,498
874.267456,495
874.384583,502
874.501831,501
874.618958,500
874.736145,509
874.853333,495
874.970459,489
875.087646,493
875.204834,472
875.32196,493
875.439148,482
875.556274,485
875.673401,495
875.790527,469
875.907715,483
876.024841,491
876.141968,474
876.259094,501
876.376282,473
876.493347,457
876.610474,475
876.7276,448
876.844727,470
876.961853,475
877.078918,483
877.195984,500
877.313171,499
877.430237,484
877.547302,505
877.664368,480
877.781433,498
877.898499,467
878.015625,475
878.13269,472
878.249695,481
878.366821,486
878.483887,480
878.600952,470
878.717957,460
878.834961,497
878.952087,470
879.069092,485
879.186157,467
879.303162,481
879.420227,467
879.537231,490
879.654236,452
879.77124,474
879.888306,460
880.005249,467
880.122314,471
880.239319,468
880.356323,467
880.473328,472
880.590271,472
880.707275,496
880.824341,459
880.941284,460
881.058228,483
881.175232,465
881.292236,463
881.40918,479
881.526123,467
881.643066,480
881.760071,456
881.877014,476
881.993958,458
882.11084,475
882.227783,467
882.344727,490
882.46167,486
882.578613,460
882.695618,461
882.812439,466
882.929382,467
883.046326,467
883.163208,460
883.280151,475
883.397034,461
883.513916,465
883.630798,480
883.747742,466
883.864563,485
883.981506,455
884.098389,482
884.21521,476
884.332153,452
884.448975,471
884.565796,471
884.682678,508
884.7995,482
884.916443,494
885.033264,515
885.150085,512
885.266968,513
885.383789,499
885.500671,539
885.617493,551
885.734314,511
885.851196,538
885.967896,528
886.084717,525
886.201599,499
886.318359,517
886.435181,505
886.552002,519
886.668762,512
886.785645,499
886.902344,521
887.019165,501
887.135925,484
887.252747,492
887.369446,499
887.486267,508
887.603027,498
887.719788,478
887.836548,492
887.953247,479
888.070068,478
888.186829,486
888.303528,495
888.420288,502
888.536987,482
888.653687,491
888.770447,454
888.887146,485
889.003967,466
889.120667,463
889.237305,473
889.354065,478
889.470703,451
889.587463,463
889.704163,463
889.820862,472
889.937561,469
890.054199,483
890.170837,454
890.287598,462
890.404236,474
890.520874,460
890.637634,453
890.754211,469
890.87085,472
890.987549,485
891.104187,464
891.220886,484
891.337463,466
891.454102,471
891.57074,462
891.687378,476
891.804077,467
891.920654,451
892.037231,460
892.15387,473
892.270447,459
892.387085,491
892.503723,464
892.6203,446
892.736877,454
892.853516,474
892.970032,484
893.08667,469
893.203186,459
893.319763,489
893.43634,467
893.552917,475
893.669556,454
893.786011,478
893.902588,486
894.019165,464
894.135681,458
894.252197,463
894.368835,476
894.485291,454
894.601868,470
894.718384,482
894.8349,461
894.951355,461
895.067932,453
895.184448,475
895.300964,474
895.417419,475
895.533936,467
895.650452,479
895.766907,464
895.883423,470
895.999878,470
896.116333,479
896.232849,467
896.349304,484
896.465759,450
896.582214,457
896.698669,451
896.815125,466
896.931641,478
897.048035,465
897.164551,473
897.280884,475
897.397339,465
897.513794,482
897.630249,464
897.746582,481
897.863098,457
897.979431,492
898.095886,480
898.212341,469
898.328674,472
898.445129,476
898.561462,469
898.677795,463
898.794312,470
898.910645,484
899.026978,457
899.143433,483
899.259766,499
899.37616,468
899.492493,455
899.608765,493
899.725159,471
899.841553,488
899.957947,479
900.07428,466
900.190552,468
900.306946,479
900.423157,470
900.53949,470
900.655884,479
900.772156,467
900.888489,473
901.004822,494
901.121033,490
901.237366,481
901.353699,496
901.46991,488
901.586304,483
901.702515,491
901.818787,467
901.93512,489
902.051331,470
902.167603,504
902.283875,487
902.400085,487
902.516418,493
902.632629,493
902.74884,505
902.865112,492
902.981384,516
903.097595,505
903.213867,499
903.330017,505
903.446289,508
903.5625,479
903.67865,491
903.794922,509
903.911072,481
904.027344,498
904.143494,475
904.259705,495
904.375916,470
904.492065,495
904.608215,477
904.724426,488
904.840576,491
904.956726,481
905.072876,479
905.189087,489
905.305176,466
905.421387,477
905.537537,476
905.653687,474
905.769775,460
905.885925,482
906.002014,473
906.118164,468
906.234314,468
906.350403,470
906.466492,464
906.582642,475
906.69873,452
906.814758,485
906.930908,494
907.046936,474
907.163086,477
907.279175,470
907.395264,475
907.511353,466
907.62738,491
907.743408,477
907.859497,481
907.975525,460
908.091553,459
908.207703,468
908.32373,468
908.439758,495
908.555786,475
908.671814,472
908.787842,487
908.90387,465
909.019775,450
909.135864,479
909.251892,458
909.367859,503
909.483826,476
909.599854,490
909.715881,467
909.831848,480
909.947815,466
910.063782,472
910.179749,460
910.295776,467
910.411743,458
910.527649,486
910.643616,467
910.759583,477
910.875488,473
910.991455,469
911.107361,486
911.223267,486
911.339294,481
911.4552,469
911.571106,482
911.687073,459
911.802979,469
911.918823,473
912.034729,468
912.150635,484
912.266602,468
912.382446,486
912.498352,481
912.614197,471
912.730103,470
912.846008,464
792.44574,708
792.56488,721
792.68396,756
792.80304,768
792.92218,698
793.041199,698
793.160339,676
793.279419,667
793.398499,672
793.517578,623
793.636658,671
793.755737,639
793.874817,674
793.993896,655
794.112976,627
794.232056,638
794.351074,642
794.470215,623
794.589233,643
794.708313,606
794.827393,611
794.946411,621
795.065552,601
795.18457,596
795.303589,622
795.422668,613
795.541687,588
795.660767,586
795.779846,604
795.898865,594
796.017883,583
796.136963,583
796.255981,578
796.375061,575
796.49408,565
796.613037,581
796.732117,589
796.851135,583
796.970154,570
797.089233,554
797.208191,579
797.327271,545
797.446228,560
797.565186,535
797.684265,572
797.803223,566
797.922241,547
798.04126,548
798.160278,562
798.279297,542
798.398315,545
798.517273,556
798.636292,549
798.75531,536
798.874268,546
798.993286,544
799.112244,543
799.231323,526
799.350281,561
799.469238,546
799.588257,546
799.707153,585
799.826111,531
799.945129,550
800.064087,546
800.183044,543
800.302063,557
800.421021,551
800.539978,527
800.658936,530
800.777893,537
800.896912,563
801.015747,551
801.134705,553
801.253723,542
801.37262,534
801.491638,549
801.610535,544
801.729492,554
801.84845,535
801.967407,558
802.086243,535
802.205261,531
802.324158,538
802.443115,504
802.562073,550
802.680969,516
802.799927,543
802.918762,531
803.037659,536
803.156677,523
803.275574,541
803.39447,530
803.513428,539
803.632263,518
803.751221,530
803.870117,516
803.989014,508
804.107971,535
804.226746,523
804.345642,523
804.4646,526
804.583496,511
804.702393,522
804.821228,534
804.940125,524
805.059021,513
805.177917,523
805.296814,529
805.415649,525
805.534546,511
805.653442,527
805.772278,517
805.891113,541
806.01001,531
806.128906,517
806.247742,527
806.366577,523
806.485413,542
806.604309,537
806.723145,528
806.84198,509
806.960876,498
807.079712,523
807.198486,540
807.317383,517
807.436218,536
807.554993,533
807.673889,504
807.792725,501
807.91156,530
808.030396,514
808.14917,509
808.268005,502
808.386841,520
808.505676,531
808.624451,516
808.743286,526
808.862122,521
808.980896,521
809.099731,525
809.218506,512
809.337341,553
809.456116,504
809.57489,543
809.693726,519
809.8125,508
809.931274,523
810.050049,511
810.168884,518
810.287659,538
810.406372,516
810.525269,503
810.643982,553
810.762756,536
810.881531,533
811.000305,523
811.11908,524
811.237854,491
811.356567,501
811.475403,537
811.594116,529
811.71283,505
811.831604,520
811.950378,537
812.069153,522
812.187927,526
812.30658,508
812.425415,529
812.544128,538
812.662781,526
812.781616,503
812.900269,522
813.019043,547
813.137756,512
813.256531,514
813.375244,522
813.493896,508
813.612671,509
813.731384,504
813.850037,511
813.96875,516
814.087524,533
814.206238,505
814.324951,503
814.443604,510
814.562256,524
814.68103,488
814.799683,530
814.918335,524
815.037109,508
815.155762,526
815.274475,527
815.393188,504
815.511841,515
815.630554,516
815.749146,514
815.867859,538
815.986572,492
816.105164,506
816.223877,499
816.342529,508
816.461182,514
816.579895,505
816.698486,508
816.817139,514
816.935791,504
817.054504,501
817.173096,514
817.291748,503
817.4104,511
817.529053,517
817.647644,482
817.766235,495
817.884949,518
818.00354,511
818.122192,487
818.240845,486
818.359436,492
818.478088,488
818.59668,525
818.715271,498
818.833923,476
818.952515,518
819.071106,478
819.189758,488
819.30835,515
819.426941,490
819.545532,485
819.664124,489
819.782715,501
819.901306,483
820.019897,488
820.138489,512
820.25708,483
820.375671,513
820.494202,481
820.612732,485
820.731384,481
820.849915,478
820.968506,486
821.087097,490
821.205627,473
821.324158,490
821.442749,479
821.561279,472
821.679871,501
821.798401,495
821.916931,485
822.035461,485
822.154053,478
822.272583,499
822.391174,462
822.509583,482
822.628174,480
822.746704,481
822.865234,473
822.983765,484
823.102295,476
823.220825,474
823.339294,465
823.457825,457
823.576355,479
823.694824,479
823.813354,484
823.931885,473
824.050354,472
824.168884,499
824.287354,446
824.405823,491
824.524353,464
824.642822,478
824.761353,497
824.879822,471
824.998291,474
825.116699,469
825.235291,487
825.353699,471
825.472168,477
825.590637,478
825.709106,478
825.827576,455
825.946045,474
826.064453,492
826.182983,484
826.301392,470
826.4198,455
826.53833,478
826.656738,450
826.775208,448
826.893677,481
827.012024,467
827.130493,473
827.248962,456
827.36731,483
827.485779,470
827.604248,476
827.722595,464
827.841064,465
827.959412,474
828.077942,455
828.196289,464
828.314636,452
828.433105,454
828.551514,462
828.669861,465
828.78833,468
828.906677,478
829.025085,455
829.143433,480
829.261841,460
829.38031,479
829.498657,475
829.617004,462
829.735413,463
829.85376,472
829.972107,446
830.090515,451
830.208862,472
830.327209,466
830.445557,457
830.563904,457
830.682312,483
830.800659,475
830.919006,500
831.037354,480
831.155701,451
831.274048,501
831.392395,477
831.51062,468
831.629028,454
831.747314,480
831.865662,481
831.984009,473
832.102356,472
832.220642,482
832.338928,459
832.457275,460
832.575623,460
832.693909,466
832.812134,477
832.930481,461
833.048828,463
833.167114,477
833.2854,469
833.403687,478
833.521973,465
833.640259,474
833.758545,467
833.876831,466
833.995056,472
834.113281,478
834.231628,453
834.349915,454
834.468201,494
834.586426,457
834.704651,465
834.822998,477
834.941162,467
835.059448,471
835.177673,488
835.295959,476
835.414246,457
835.53241,467
835.650635,462
835.768921,466
835.887146,470
836.005371,473
836.123596,480
836.241821,477
836.360046,464
836.478271,481
836.596497,460
836.714722,452
836.832886,463
836.95105,485
837.069336,457
837.1875,468
837.305725,467
837.423889,460
837.542053,470
837.660339,456
837.778503,469
837.896667,468
838.014832,487
838.132996,472
838.25116,444
838.369385,470
838.487488,480
838.605713,491
838.723877,470
838.84198,481
838.960205,475
839.078308,460
839.196472,475
839.314636,459
839.4328,481
839.550964,484
839.669067,462
839.787231,470
839.905396,452
840.023499,480
840.141602,452
840.259766,474
840.377869,484
840.495972,483
840.614136,454
840.732239,492
840.850342,485
840.968445,485
841.086548,472
841.204651,461
841.322754,483
841.440918,463
841.55896,477
841.677002,481
841.795166,501
841.913208,471
842.031311,478
842.149353,495
842.267456,467
842.385498,456
842.503601,491
842.621643,476
842.739746,468
842.857788,478
842.97583,489
843.093933,472
843.211975,472
843.330017,471
843.44812,480
843.566101,471
843.684204,475
843.802246,466
843.920227,477
844.038269,477
844.156311,460
844.274292,484
844.392395,482
844.510376,484
844.628357,469
844.74646,471
844.864441,456
844.982422,478
845.100403,478
845.218384,464
845.336426,470
845.454468,479
845.572449,484
845.69043,478
845.808411,474
845.926453,477
846.044373,469
846.162354,464
846.280396,493
846.398315,464
846.516296,477
846.634216,493
846.752197,490
846.870178,485
846.988098,472
847.106079,468
847.22406,471
847.34198,498
847.4599,485
847.577881,496
847.695801,464
847.813782,475
847.931641,481
848.049561,487
848.167603,472
848.285461,479
848.403381,475
848.521362,474
848.639221,476
848.75708,462
848.875,464
848.99292,470
849.110901,483
849.22876,475
849.34668,476
849.464539,482
849.582458,480
849.700317,483
849.818176,485
849.936096,489
850.053955,492
850.171875,466
850.289673,469
850.407593,485
850.525452,469
850.643311,487
850.761169,504
850.878967,472
850.996887,495
851.114746,473
851.232544,491
851.350403,458
851.468262,470
851.58606,477
851.703979,483
851.821777,488
851.939636,473
852.057434,478
852.175232,468
852.293091,478
852.410889,491
852.528687,491
852.646545,484
852.764343,477
852.88208,505
852.999939,476
853.117676,480
853.235535,482
853.353271,475
853.471069,483
853.588928,480
853.706604,459
853.824402,471
853.9422,475
854.059998,468
854.177734,488
854.295532,473
854.413269,489
854.531006,482
854.648804,484
854.766541,488
854.884277,487
855.002014,489
855.119751,467
855.237549,465
855.355225,453
855.473022,479
855.590698,483
855.708435,467
855.826172,473
855.943848,506
856.061646,476
856.179321,465
856.296997,472
856.414795,480
856.53241,459
856.650085,473
856.767822,476
856.885559,488
857.003174,481
857.120911,481
857.238586,487
857.356201,496
857.473938,466
857.591614,468
857.709351,473
857.826965,461
857.944641,485
858.062317,479
858.179993,502
858.297668,476
858.415283,488
858.532959,485
858.650574,518
858.768188,492
858.885803,503
859.003479,476
859.121094,484
859.23877,492
859.356384,476
859.473999,471
859.591675,468
859.709229,478
859.826843,474
859.944458,473
860.062012,475
860.179626,466
860.297302,476
860.414856,465
860.532471,460
860.650024,486
860.767639,476
860.885193,486
861.002808,488
861.120361,454
861.237976,478
861.35553,462
861.473022,491
861.590698,489
861.708191,491
861.825745,471
861.943298,476
862.060852,480
862.178406,490
862.295959,479
862.413513,478
862.531006,467
862.64856,463
862.766113,464
862.883667,477
863.00116,461
863.118713,468
863.236206,482
863.353699,472
863.471252,468
863.588745,463
863.706177,458
863.82373,465
863.941162,469
864.058716,477
864.176208,474
864.29364,482
864.411194,491
864.528687,463
864.646118,476
864.763611,474
864.881042,460
864.998535,473
865.116028,481
865.233459,470
865.350891,472
865.468384,479
865.585754,471
865.703308,486
865.820679,480
865.938171,475
866.055542,460
866.173035,480
866.290466,474
866.407837,462
866.52533,483
866.6427,477
866.760071,467
866.877563,469
866.994934,473
867.112305,453
867.229736,475
867.347107,486
867.464539,442
867.58197,493
867.699341,470
867.81665,482
867.934082,459
868.051453,479
868.168823,478
868.286194,459
868.403564,474
868.520935,478
868.638306,459
868.755676,464
868.872986,477
868.990295,471
869.107727,481
869.225037,467
869.342346,468
869.459717,479
869.577026,479
869.694336,471
869.811707,477
869.929016,497
870.046326,481
870.163635,492
870.280945,473
870.398254,480
870.515564,482
870.632812,483
870.750183,472
870.867432,479
870.984741,483
871.102051,484
871.219299,483
871.336609,502
871.453918,482
871.571106,491
871.688416,487
871.805664,498
871.922852,486
872.040222,506
872.157471,500
872.274719,486
872.391968,493
872.509155,506
872.626465,497
872.743652,512
872.860962,484
872.978149,484
873.095337,488
873.212646,491
873.329834,468
873.44696,476
873.564209,480
873.681396,506
873.798645,473
873.915894,481
874.03302,472
874.150208,484
874.267456,489
874.384583,505
874.501831,488
874.618958,481
874.736145,498
874.853333,506
874.970459,499
875.087646,499
875.204834,489
875.32196,485
875.439148,496
875.556274,471
875.673401,481
875.790527,488
875.907715,473
876.024841,489
876.141968,496
876.259094,469
876.376282,476
876.493347,486
876.610474,486
876.7276,482
876.844727,470
876.961853,501
877.078918,471
877.195984,483
877.313171,481
877.430237,474
877.547302,479
877.664368,467
877.781433,468
877.898499,498
878.015625,480
878.13269,466
878.249695,482
878.366821,450
878.483887,468
878.600952,484
878.717957,481
878.834961,475
878.952087,462
879.069092,469
879.186157,477
879.303162,487
879.420227,477
879.537231,495
879.654236,473
879.77124,497
879.888306,476
880.005249,453
880.122314,469
880.239319,468
880.356323,467
880.473328,490
880.590271,484
880.707275,441
880.824341,467
880.941284,486
881.058228,470
881.175232,480
881.292236,470
881.40918,470
881.526123,461
881.643066,465
881.760071,456
881.877014,478
881.993958,473
882.11084,468
882.227783,461
882.344727,480
882.46167,497
882.578613,469
882.695618,451
882.812439,457
882.929382,444
883.046326,467
883.163208,469
883.280151,482
883.397034,473
883.513916,482
883.630798,461
883.747742,461
883.864563,473
883.981506,473
884.098389,498
884.21521,477
884.332153,498
884.448975,507
884.565796,486
884.682678,489
884.7995,515
884.916443,504
885.033264,512
885.150085,528
885.266968,537
885.383789,507
885.500671,522
885.617493,517
885.734314,522
885.851196,520
885.967896,527
886.084717,524
886.201599,514
886.318359,530
886.435181,502
886.552002,525
886.668762,494
886.785645,521
886.902344,503
887.019165,508
887.135925,523
887.252747,524
887.369446,508
887.486267,508
887.603027,494
887.719788,491
887.836548,488
887.953247,491
888.070068,484
888.186829,497
888.303528,473
888.420288,489
888.536987,487
888.653687,477
888.770447,467
888.887146,470
889.003967,468
889.120667,493
889.237305,458
889.354065,486
889.470703,462
889.587463,469
889.704163,465
889.820862,494
889.937561,481
890.054199,486
890.170837,476
890.287598,483
890.404236,447
890.520874,470
890.637634,481
890.754211,456
890.87085,471
890.987549,478
891.104187,472
891.220886,463
891.337463,441
891.454102,480
891.57074,473
891.687378,470
891.804077,474
891.920654,473
892.037231,486
892.15387,472
892.270447,449
892.387085,470
892.503723,482
892.6203,481
892.736877,454
892.853516,477
892.970032,472
893.08667,463
893.203186,472
893.319763,467
893.43634,448
893.552917,473
893.669556,447
893.786011,463
893.902588,488
894.019165,481
894.135681,484
894.252197,472
894.368835,467
894.485291,472
894.601868,460
894.718384,486
894.8349,462
894.951355,485
895.067932,481
895.184448,460
895.300964,462
895.417419,472
895.533936,465
895.650452,450
895.766907,487
895.883423,474
895.999878,454
896.116333,473
896.232849,461
896.349304,483
896.465759,473
896.582214,468
896.698669,461
896.815125,469
896.931641,464
897.048035,463
897.164551,471
897.280884,459
897.397339,472
897.513794,455
897.630249,485
897.746582,458
897.863098,458
897.979431,469
898.095886,463
898.212341,464
898.328674,479
898.445129,498
898.561462,451
898.677795,480
898.794312,485
898.910645,476
899.026978,494
899.143433,462
899.259766,485
899.37616,469
899.492493,457
899.608765,477
899.725159,490
899.841553,461
899.957947,480
900.07428,460
900.190552,456
900.306946,460
900.423157,470
900.53949,483
900.655884,476
900.772156,476
900.888489,477
901.004822,471
901.121033,486
901.237366,476
901.353699,466
901.46991,479
901.586304,494
901.702515,481
901.818787,488
901.93512,503
902.051331,471
902.167603,471
902.283875,493
902.400085,478
902.516418,478
902.632629,502
902.74884,503
902.865112,519
902.981384,496
903.097595,488
903.213867,491
903.330017,494
903.446289,514
903.5625,494
903.67865,515
903.794922,512
903.911072,492
904.027344,512
904.143494,506
904.259705,488
904.375916,493
904.492065,493
904.608215,478
904.724426,490
904.840576,465
904.956726,485
905.072876,490
905.189087,482
905.305176,469
905.421387,484
905.537537,473
905.653687,485
905.769775,481
905.885925,463
906.002014,459
906.118164,482
906.234314,491
906.350403,490
906.466492,465
906.582642,476
906.69873,469
906.814758,482
906.930908,476
907.046936,468
907.163086,472
907.279175,472
907.395264,487
907.511353,474
907.62738,469
907.743408,488
907.859497,479
907.975525,478
908.091553,469
908.207703,477
908.32373,482
908.439758,494
908.555786,471
908.671814,459
908.787842,453
908.90387,465
909.019775,497
909.135864,482
909.251892,464
909.367859,493
909.483826,473
909.599854,484
909.715881,477
909.831848,488
909.947815,473
910.063782,480
910.179749,492
910.295776,488
910.411743,475
910.527649,460
910.643616,488
910.759583,475
910.875488,484
910.991455,480
911.107361,474
911.223267,479
911.339294,492
911.4552,474
911.571106,483
911.687073,475
911.802979,455
911.918823,489
912.034729,468
912.150635,464
912.266602,482
912.382446,468
912.498352,464
912.614197,476
912.730103,468
912.846008,477
