792.44574,711
792.56488,735
792.68396,795
792.80304,776
792.92218,689
793.041199,668
793.160339,687
793.279419,715
793.398499,676
793.517578,685
793.636658,624
793.755737,694
793.874817,688
793.993896,671
794.112976,684
794.232056,616
794.351074,616
794.470215,650
794.589233,640
794.708313,654
794.827393,606
794.946411,635
795.065552,656
795.18457,611
795.303589,621
795.422668,632
795.541687,637
795.660767,609
795.779846,605
795.898865,618
796.017883,592
796.136963,586
796.255981,605
796.375061,609
796.49408,605
796.613037,609
796.732117,595
796.851135,578
796.970154,570
797.089233,600
797.208191,586
797.327271,591
797.446228,582
797.565186,580
797.684265,583
797.803223,579
797.922241,597
798.04126,604
798.160278,600
798.279297,567
798.398315,571
798.517273,581
798.636292,581
798.75531,565
798.874268,574
798.993286,548
799.112244,586
799.231323,593
799.350281,598
799.469238,607
799.588257,575
799.707153,558
799.826111,580
799.945129,560
800.064087,567
800.183044,605
800.302063,579
800.421021,559
800.539978,561
800.658936,585
800.777893,587
800.896912,611
801.015747,567
801.134705,582
801.253723,559
801.37262,562
801.491638,558
801.610535,589
801.729492,583
801.84845,592
801.967407,547
802.086243,579
802.205261,562
802.324158,558
802.443115,563
802.562073,555
802.680969,570
802.799927,567
802.918762,590
803.037659,566
803.156677,582
803.275574,579
803.39447,554
803.513428,572
803.632263,592
803.751221,557
803.870117,568
803.989014,553
804.107971,570
804.226746,575
804.345642,561
804.4646,579
804.583496,569
804.702393,584
804.821228,580
804.940125,569
805.059021,577
805.177917,571
805.296814,586
805.415649,600
805.534546,580
805.653442,558
805.772278,585
805.891113,561
806.01001,588
806.128906,576
806.247742,591
806.366577,563
806.485413,589
806.604309,592
806.723145,568
806.84198,558
806.960876,570
807.079712,589
807.198486,584
807.317383,598
807.436218,582
807.554993,575
807.673889,571
807.792725,585
807.91156,597
808.030396,611
808.14917,570
808.268005,575
808.386841,596
808.505676,583
808.624451,584
808.743286,580
808.862122,585
808.980896,583
809.099731,576
809.218506,599
809.337341,569
809.456116,588
809.57489,558
809.693726,593
809.8125,591
809.931274,574
810.050049,589
810.168884,600
810.287659,586
810.406372,604
810.525269,601
810.643982,594
810.762756,584
810.881531,584
811.000305,579
811.11908,604
811.237854,600
811.356567,561
811.475403,573
811.594116,600
811.71283,579
811.831604,583
811.950378,588
812.069153,605
812.187927,576
812.30658,602
812.425415,594
812.544128,601
812.662781,595
812.781616,594
812.900269,591
813.019043,576
813.137756,581
813.256531,599
813.375244,597
813.493896,582
813.612671,580
813.731384,590
813.850037,612
813.96875,604
814.087524,604
814.206238,590
814.324951,591
814.443604,560
814.562256,591
814.68103,569
814.799683,567
814.918335,578
815.037109,572
815.155762,599
815.274475,580
815.393188,586
815.511841,586
815.630554,562
815.749146,569
815.867859,583
815.986572,578
816.105164,581
816.223877,563
816.342529,581
816.461182,550
816.579895,576
816.698486,581
816.817139,586
816.935791,590
817.054504,591
817.173096,599
817.291748,590
817.4104,580
817.529053,542
817.647644,541
817.766235,569
817.884949,552
818.00354,549
818.122192,539
818.240845,529
818.359436,512
818.478088,513
818.59668,522
818.715271,515
818.833923,514
818.952515,515
819.071106,497
819.189758,502
819.30835,512
819.426941,511
819.545532,485
819.664124,475
819.782715,493
819.901306,500
820.019897,476
820.138489,493
820.25708,493
820.375671,501
820.494202,478
820.612732,493
820.731384,476
820.849915,505
820.968506,479
821.087097,477
821.205627,502
821.324158,475
821.442749,483
821.561279,491
821.679871,477
821.798401,482
821.916931,471
822.035461,480
822.154053,472
822.272583,475
822.391174,468
822.509583,482
822.628174,460
822.746704,487
822.865234,473
822.983765,466
823.102295,467
823.220825,471
823.339294,490
823.457825,448
823.576355,485
823.694824,464
823.813354,479
823.931885,485
824.050354,495
824.168884,477
824.287354,492
824.405823,485
824.524353,465
824.642822,484
824.761353,491
824.879822,482
824.998291,481
825.116699,470
825.235291,493
825.353699,473
825.472168,476
825.590637,484
825.709106,479
825.827576,498
825.946045,458
826.064453,495
826.182983,466
826.301392,489
826.4198,476
826.53833,469
826.656738,465
826.775208,451
826.893677,474
827.012024,464
827.130493,454
827.248962,477
827.36731,472
827.485779,484
827.604248,482
827.722595,478
827.841064,479
827.959412,477
828.077942,467
828.196289,475
828.314636,434
828.433105,476
828.551514,461
828.669861,458
828.78833,454
828.906677,455
829.025085,454
829.143433,455
829.261841,459
829.38031,478
829.498657,462
829.617004,479
829.735413,470
829.85376,449
829.972107,450
830.090515,458
830.208862,469
830.327209,457
830.445557,449
830.563904,467
830.682312,462
830.800659,473
830.919006,457
831.037354,473
831.155701,464
831.274048,471
831.392395,460
831.51062,473
831.629028,476
831.747314,448
831.865662,471
831.984009,458
832.102356,474
832.220642,460
832.338928,466
832.457275,459
832.575623,453
832.693909,475
832.812134,465
832.930481,472
833.048828,470
833.167114,451
833.2854,461
833.403687,458
833.521973,469
833.640259,467
833.758545,428
833.876831,473
833.995056,448
834.113281,459
834.231628,458
834.349915,473
834.468201,463
834.586426,465
834.704651,467
834.822998,478
834.941162,459
835.059448,485
835.177673,442
835.295959,490
835.414246,479
835.53241,457
835.650635,451
835.768921,456
835.887146,456
836.005371,453
836.123596,463
836.241821,474
836.360046,477
836.478271,487
836.596497,474
836.714722,474
836.832886,447
836.95105,473
837.069336,486
837.1875,454
837.305725,483
837.423889,493
837.542053,463
837.660339,471
837.778503,469
837.896667,477
838.014832,481
838.132996,481
838.25116,476
838.369385,488
838.487488,462
838.605713,493
838.723877,480
838.84198,464
838.960205,469
839.078308,481
839.196472,469
839.314636,473
839.4328,481
839.550964,466
839.669067,464
839.787231,482
839.905396,468
840.023499,484
840.141602,464
840.259766,492
840.377869,453
840.495972,485
840.614136,474
840.732239,468
840.850342,483
840.968445,474
841.086548,487
841.204651,494
841.322754,475
841.440918,483
841.55896,465
841.677002,460
841.795166,478
841.913208,480
842.031311,466
842.149353,474
842.267456,467
842.385498,485
842.503601,467
842.621643,459
842.739746,493
842.857788,479
842.97583,463
843.093933,469
843.211975,473
843.330017,488
843.44812,469
843.566101,470
843.684204,456
843.802246,468
843.920227,458
844.038269,475
844.156311,479
844.274292,457
844.392395,461
844.510376,464
844.628357,476
844.74646,456
844.864441,458
844.982422,469
845.100403,453
845.218384,457
845.336426,462
845.454468,463
845.572449,461
845.69043,458
845.808411,457
845.926453,467
846.044373,472
846.162354,449
846.280396,456
846.398315,468
846.516296,453
846.634216,456
846.752197,476
846.870178,478
846.988098,451
847.106079,476
847.22406,455
847.34198,474
847.4599,456
847.577881,460
847.695801,430
847.813782,467
847.931641,459
848.049561,453
848.167603,467
848.285461,459
848.403381,449
848.521362,458
848.639221,470
848.75708,459
848.875,483
848.99292,456
849.110901,460
849.22876,472
849.34668,462
849.464539,458
849.582458,448
849.700317,472
849.818176,477
849.936096,466
850.053955,474
850.171875,461
850.289673,461
850.407593,474
850.525452,452
850.643311,470
850.761169,433
850.878967,457
850.996887,461
851.114746,453
851.232544,451
851.350403,486
851.468262,457
851.58606,454
851.703979,463
851.821777,457
851.939636,477
852.057434,474
852.175232,482
852.293091,474
852.410889,482
852.528687,477
852.646545,489
852.764343,476
852.88208,460
852.999939,474
853.117676,454
853.235535,475
853.353271,473
853.471069,457
853.588928,457
853.706604,486
853.824402,474
853.9422,468
854.059998,488
854.177734,460
854.295532,444
854.413269,476
854.531006,466
854.648804,448
854.766541,473
854.884277,459
855.002014,478
855.119751,459
855.237549,467
855.355225,460
855.473022,462
855.590698,504
855.708435,464
855.826172,480
855.943848,450
856.061646,483
856.179321,467
856.296997,476
856.414795,471
856.53241,476
856.650085,473
856.767822,478
856.885559,479
857.003174,480
857.120911,477
857.238586,494
857.356201,481
857.473938,455
857.591614,456
857.709351,472
857.826965,456
857.944641,481
858.062317,484
858.179993,463
858.297668,443
858.415283,453
858.532959,455
858.650574,465
858.768188,459
858.885803,492
859.003479,471
859.121094,462
859.23877,467
859.356384,469
859.473999,486
859.591675,453
859.709229,478
859.826843,474
859.944458,469
860.062012,468
860.179626,456
860.297302,468
860.414856,451
860.532471,479
860.650024,450
860.767639,475
860.885193,466
861.002808,465
861.120361,458
861.237976,470
861.35553,454
861.473022,485
861.590698,463
861.708191,459
861.825745,461
861.943298,483
862.060852,474
862.178406,465
862.295959,470
862.413513,456
862.531006,460
862.64856,474
862.766113,456
862.883667,478
863.00116,462
863.118713,467
863.236206,463
863.353699,462
863.471252,446
863.588745,465
863.706177,461
863.82373,486
863.941162,462
864.058716,481
864.176208,478
864.29364,471
864.411194,449
864.528687,454
864.646118,470
864.763611,476
864.881042,463
864.998535,472
865.116028,477
865.233459,457
865.350891,462
865.468384,483
865.585754,474
865.703308,481
865.820679,467
865.938171,476
866.055542,467
866.173035,477
866.290466,468
866.407837,448
866.52533,456
866.6427,474
866.760071,460
866.877563,478
866.994934,462
867.112305,470
867.229736,461
867.347107,470
867.464539,470
867.58197,464
867.699341,469
867.81665,456
867.934082,460
868.051453,462
868.168823,454
868.286194,454
868.403564,467
868.520935,476
868.638306,473
868.755676,465
868.872986,479
868.990295,468
869.107727,448
869.225037,478
869.342346,462
869.459717,468
869.577026,456
869.694336,476
869.811707,459
869.929016,465
870.046326,462
870.163635,486
870.280945,474
870.398254,462
870.515564,464
870.632812,465
870.750183,470
870.867432,485
870.984741,468
871.102051,493
871.219299,473
871.336609,472
871.453918,475
871.571106,471
871.688416,492
871.805664,481
871.922852,472
872.040222,464
872.157471,471
872.274719,482
872.391968,495
872.509155,498
872.626465,480
872.743652,475
872.860962,474
872.978149,471
873.095337,467
873.212646,487
873.329834,472
873.44696,476
873.564209,484
873.681396,466
873.798645,456
873.915894,490
874.03302,475
874.150208,477
874.267456,473
874.384583,477
874.501831,461
874.618958,478
874.736145,469
874.853333,503
874.970459,475
875.087646,492
875.204834,455
875.32196,490
875.439148,472
875.556274,477
875.673401,478
875.790527,477
875.907715,494
876.024841,490
876.141968,485
876.259094,469
876.376282,455
876.493347,473
876.610474,473
876.7276,482
876.844727,472
876.961853,484
877.078918,471
877.195984,477
877.313171,472
877.430237,480
877.547302,459
877.664368,472
877.781433,465
877.898499,479
878.015625,485
878.13269,475
878.249695,475
878.366821,478
878.483887,481
878.600952,461
878.717957,461
878.834961,490
878.952087,471
879.069092,451
879.186157,468
879.303162,468
879.420227,495
879.537231,457
879.654236,462
879.77124,461
879.888306,457
880.005249,451
880.122314,454
880.239319,481
880.356323,457
880.473328,469
880.590271,463
880.707275,467
880.824341,497
880.941284,466
881.058228,488
881.175232,457
881.292236,451
881.40918,485
881.526123,463
881.643066,462
881.760071,470
881.877014,456
881.993958,458
882.11084,483
882.227783,469
882.344727,481
882.46167,467
882.578613,466
882.695618,484
882.812439,473
882.929382,479
883.046326,462
883.163208,470
883.280151,463
883.397034,463
883.513916,458
883.630798,465
883.747742,466
883.864563,464
883.981506,458
884.098389,458
884.21521,482
884.332153,472
884.448975,479
884.565796,479
884.682678,501
884.7995,487
884.916443,487
885.033264,483
885.150085,481
885.266968,491
885.383789,506
885.500671,508
885.617493,496
885.734314,510
885.851196,495
885.967896,480
886.084717,513
886.201599,504
886.318359,495
886.435181,487
886.552002,490
886.668762,494
886.785645,508
886.902344,490
887.019165,481
887.135925,487
887.252747,484
887.369446,471
887.486267,484
887.603027,477
887.719788,485
887.836548,461
887.953247,478
888.070068,480
888.186829,469
888.303528,488
888.420288,479
888.536987,487
888.653687,463
888.770447,478
888.887146,475
889.003967,481
889.120667,458
889.237305,459
889.354065,471
889.470703,471
889.587463,451
889.704163,479
889.820862,456
889.937561,477
890.054199,464
890.170837,489
890.287598,467
890.404236,454
890.520874,458
890.637634,463
890.754211,490
890.87085,476
890.987549,470
891.104187,459
891.220886,464
891.337463,470
891.454102,476
891.57074,448
891.687378,460
891.804077,486
891.920654,459
892.037231,472
892.15387,470
892.270447,473
892.387085,463
892.503723,478
892.6203,472
892.736877,466
892.853516,480
892.970032,471
893.08667,478
893.203186,483
893.319763,473
893.43634,471
893.552917,457
893.669556,457
893.786011,457
893.902588,489
894.019165,471
894.135681,487
894.252197,473
894.368835,475
894.485291,482
894.601868,463
894.718384,476
894.8349,479
894.951355,481
895.067932,483
895.184448,464
895.300964,487
895.417419,479
895.533936,470
895.650452,495
895.766907,480
895.883423,460
895.999878,482
896.116333,473
896.232849,469
896.349304,465
896.465759,467
896.582214,487
896.698669,455
896.815125,474
896.931641,466
897.048035,468
897.164551,475
897.280884,466
897.397339,474
897.513794,472
897.630249,468
897.746582,467
897.863098,468
897.979431,483
898.095886,468
898.212341,469
898.328674,463
898.445129,475
898.561462,488
898.677795,479
898.794312,469
898.910645,466
899.026978,488
899.143433,471
899.259766,453
899.37616,485
899.492493,468
899.608765,493
899.725159,459
899.841553,459
899.957947,465
900.07428,472
900.190552,489
900.306946,475
900.423157,481
900.53949,454
900.655884,484
900.772156,485
900.888489,480
901.004822,472
901.121033,473
901.237366,493
901.353699,488
901.46991,460
901.586304,469
901.702515,482
901.818787,461
901.93512,478
902.051331,460
902.167603,505
902.283875,501
902.400085,501
902.516418,491
902.632629,500
902.74884,504
902.865112,493
902.981384,494
903.097595,501
903.213867,480
903.330017,509
903.446289,494
903.5625,491
903.67865,487
903.794922,511
903.911072,481
904.027344,500
904.143494,490
904.259705,484
904.375916,483
904.492065,477
904.608215,477
904.724426,467
904.840576,474
904.956726,461
905.072876,463
905.189087,473
905.305176,473
905.421387,492
905.537537,484
905.653687,468
905.769775,484
905.885925,483
906.002014,461
906.118164,491
906.234314,455
906.350403,456
906.466492,482
906.582642,486
906.69873,466
906.814758,460
906.930908,469
907.046936,484
907.163086,471
907.279175,485
907.395264,467
907.511353,477
907.62738,481
907.743408,482
907.859497,460
907.975525,492
908.091553,475
908.207703,473
908.32373,476
908.439758,480
908.555786,442
908.671814,473
908.787842,470
908.90387,485
909.019775,479
909.135864,466
909.251892,483
909.367859,481
909.483826,472
909.599854,472
909.715881,466
909.831848,471
909.947815,466
910.063782,478
910.179749,463
910.295776,470
910.411743,470
910.527649,483
910.643616,473
910.759583,474
910.875488,480
910.991455,466
911.107361,490
911.223267,489
911.339294,481
911.4552,471
911.571106,463
911.687073,472
911.802979,461
911.918823,496
912.034729,460
912.150635,475
912.266602,470
912.382446,487
912.498352,469
912.614197,474
912.730103,463
912.846008,474
792.44574,731
792.56488,762
792.68396,789
792.80304,737
792.92218,701
793.041199,714
793.160339,681
793.279419,668
793.398499,702
793.517578,693
793.636658,639
793.755737,686
793.874817,688
793.993896,671
794.112976,663
794.232056,637
794.351074,656
794.470215,659
794.589233,636
794.708313,655
794.827393,635
794.946411,638
795.065552,650
795.18457,634
795.303589,624
795.422668,608
795.541687,606
795.660767,625
795.779846,617
795.898865,614
796.017883,605
796.136963,624
796.255981,600
796.375061,609
796.49408,608
796.613037,608
796.732117,581
796.851135,602
796.970154,600
797.089233,612
797.208191,570
797.327271,593
797.446228,586
797.565186,603
797.684265,568
797.803223,596
797.922241,611
798.04126,594
798.160278,579
798.279297,592
798.398315,558
798.517273,594
798.636292,589
798.75531,581
798.874268,592
798.993286,582
799.112244,585
799.231323,595
799.350281,557
799.469238,574
799.588257,567
799.707153,576
799.826111,578
799.945129,583
800.064087,602
800.183044,568
800.302063,580
800.421021,573
800.539978,561
800.658936,576
800.777893,570
800.896912,566
801.015747,576
801.134705,541
801.253723,576
801.37262,572
801.491638,568
801.610535,579
801.729492,578
801.84845,578
801.967407,564
802.086243,560
802.205261,598
802.324158,564
802.443115,593
802.562073,548
802.680969,589
802.799927,573
802.918762,558
803.037659,579
803.156677,571
803.275574,556
803.39447,564
803.513428,568
803.632263,569
803.751221,584
803.870117,589
803.989014,588
804.107971,587
804.226746,580
804.345642,567
804.4646,582
804.583496,567
804.702393,572
804.821228,575
804.940125,558
805.059021,562
805.177917,581
805.296814,567
805.415649,585
805.534546,573
805.653442,554
805.772278,603
805.891113,563
806.01001,590
806.128906,568
806.247742,597
806.366577,585
806.485413,588
806.604309,571
806.723145,591
806.84198,554
806.960876,597
807.079712,547
807.198486,612
807.317383,578
807.436218,588
807.554993,555
807.673889,590
807.792725,576
807.91156,574
808.030396,584
808.14917,596
808.268005,571
808.386841,578
808.505676,569
808.624451,575
808.743286,571
808.862122,583
808.980896,575
809.099731,576
809.218506,587
809.337341,598
809.456116,574
809.57489,591
809.693726,582
809.8125,566
809.931274,591
810.050049,601
810.168884,571
810.287659,582
810.406372,602
810.525269,584
810.643982,582
810.762756,592
810.881531,567
811.000305,584
811.11908,588
811.237854,584
811.356567,561
811.475403,610
811.594116,585
811.71283,590
811.831604,570
811.950378,577
812.069153,579
812.187927,603
812.30658,588
812.425415,568
812.544128,579
812.662781,592
812.781616,598
812.900269,589
813.019043,587
813.137756,584
813.256531,597
813.375244,579
813.493896,559
813.612671,585
813.731384,578
813.850037,600
813.96875,572
814.087524,606
814.206238,579
814.324951,583
814.443604,563
814.562256,582
814.68103,585
814.799683,611
814.918335,589
815.037109,585
815.155762,561
815.274475,568
815.393188,569
815.511841,576
815.630554,588
815.749146,566
815.867859,555
815.986572,570
816.105164,571
816.223877,570
816.342529,559
816.461182,581
816.579895,561
816.698486,584
816.817139,570
816.935791,582
817.054504,593
817.173096,575
817.291748,575
817.4104,552
817.529053,555
817.647644,561
817.766235,535
817.884949,552
818.00354,520
818.122192,542
818.240845,554
818.359436,533
818.478088,499
818.59668,517
818.715271,529
818.833923,522
818.952515,505
819.071106,501
819.189758,513
819.30835,507
819.426941,513
819.545532,497
819.664124,493
819.782715,491
819.901306,483
820.019897,512
820.138489,497
820.25708,512
820.375671,481
820.494202,520
820.612732,495
820.731384,476
820.849915,488
820.968506,491
821.087097,497
821.205627,480
821.324158,483
821.442749,487
821.561279,483
821.679871,486
821.798401,488
821.916931,485
822.035461,482
822.154053,472
822.272583,452
822.391174,488
822.509583,467
822.628174,500
822.746704,442
822.865234,478
822.983765,456
823.102295,451
823.220825,464
823.339294,489
823.457825,479
823.576355,496
823.694824,470
823.813354,469
823.931885,483
824.050354,491
824.168884,487
824.287354,484
824.405823,468
824.524353,473
824.642822,487
824.761353,501
824.879822,475
824.998291,484
825.116699,478
825.235291,490
825.353699,487
825.472168,472
825.590637,477
825.709106,486
825.827576,484
825.946045,491
826.064453,477
826.182983,478
826.301392,474
826.4198,477
826.53833,446
826.656738,462
826.775208,460
826.893677,484
827.012024,464
827.130493,464
827.248962,467
827.36731,467
827.485779,463
827.604248,484
827.722595,491
827.841064,466
827.959412,453
828.077942,468
828.196289,469
828.314636,470
828.433105,460
828.551514,467
828.669861,465
828.78833,471
828.906677,448
829.025085,452
829.143433,436
829.261841,482
829.38031,454
829.498657,488
829.617004,466
829.735413,468
829.85376,452
829.972107,492
830.090515,460
830.208862,464
830.327209,456
830.445557,470
830.563904,471
830.682312,446
830.800659,426
830.919006,457
831.037354,473
831.155701,470
831.274048,480
831.392395,473
831.51062,469
831.629028,452
831.747314,459
831.865662,481
831.984009,450
832.102356,459
832.220642,470
832.338928,466
832.457275,460
832.575623,460
832.693909,471
832.812134,479
832.930481,468
833.048828,457
833.167114,469
833.2854,466
833.403687,453
833.521973,457
833.640259,474
833.758545,488
833.876831,472
833.995056,480
834.113281,470
834.231628,468
834.349915,434
834.468201,465
834.586426,458
834.704651,479
834.822998,456
834.941162,466
835.059448,468
835.177673,471
835.295959,456
835.414246,471
835.53241,469
835.650635,446
835.768921,465
835.887146,474
836.005371,456
836.123596,456
836.241821,456
836.360046,465
836.478271,468
836.596497,465
836.714722,472
836.832886,481
836.95105,471
837.069336,477
837.1875,474
837.305725,475
837.423889,482
837.542053,494
837.660339,488
837.778503,477
837.896667,461
838.014832,462
838.132996,476
838.25116,465
838.369385,468
838.487488,469
838.605713,482
838.723877,499
838.84198,495
838.960205,458
839.078308,457
839.196472,468
839.314636,471
839.4328,467
839.550964,468
839.669067,476
839.787231,474
839.905396,473
840.023499,488
840.141602,481
840.259766,481
840.377869,485
840.495972,475
840.614136,480
840.732239,470
840.850342,486
840.968445,470
841.086548,473
841.204651,485
841.322754,475
841.440918,461
841.55896,479
841.677002,455
841.795166,483
841.913208,471
842.031311,482
842.149353,482
842.267456,479
842.385498,473
842.503601,467
842.621643,464
842.739746,477
842.857788,469
842.97583,492
843.093933,498
843.211975,465
843.330017,467
843.44812,468
843.566101,452
843.684204,465
843.802246,480
843.920227,501
844.038269,465
844.156311,457
844.274292,449
844.392395,475
844.510376,488
844.628357,460
844.74646,451
844.864441,466
844.982422,470
845.100403,468
845.218384,479
845.336426,465
845.454468,469
845.572449,474
845.69043,454
845.808411,454
845.926453,457
846.044373,457
846.162354,477
846.280396,489
846.398315,473
846.516296,463
846.634216,461
846.752197,471
846.870178,463
846.988098,461
847.106079,452
847.22406,459
847.34198,458
847.4599,455
847.577881,462
847.695801,469
847.813782,468
847.931641,467
848.049561,451
848.167603,472
848.285461,472
848.403381,455
848.521362,455
848.639221,478
848.75708,461
848.875,475
848.99292,464
849.110901,450
849.22876,493
849.34668,456
849.464539,460
849.582458,465
849.700317,441
849.818176,476
849.936096,449
850.053955,476
850.171875,465
850.289673,460
850.407593,457
850.525452,461
850.643311,477
850.761169,482
850.878967,464
850.996887,472
851.114746,466
851.232544,494
851.350403,455
851.468262,458
851.58606,480
851.703979,469
851.821777,454
851.939636,471
852.057434,471
852.175232,471
852.293091,469
852.410889,487
852.528687,470
852.646545,479
852.764343,469
852.88208,468
852.999939,462
853.117676,487
853.235535,452
853.353271,467
853.471069,474
853.588928,471
853.706604,467
853.824402,466
853.9422,446
854.059998,467
854.177734,455
854.295532,483
854.413269,462
854.531006,459
854.648804,469
854.766541,485
854.884277,476
855.002014,470
855.119751,471
855.237549,465
855.355225,471
855.473022,462
855.590698,475
855.708435,480
855.826172,466
855.943848,467
856.061646,495
856.179321,467
856.296997,470
856.414795,464
856.53241,483
856.650085,484
856.767822,468
856.885559,481
857.003174,452
857.120911,462
857.238586,456
857.356201,488
857.473938,466
857.591614,473
857.709351,484
857.826965,456
857.944641,461
858.062317,485
858.179993,467
858.297668,496
858.415283,488
858.532959,478
858.650574,475
858.768188,485
858.885803,460
859.003479,479
859.121094,445
859.23877,462
859.356384,484
859.473999,479
859.591675,474
859.709229,465
859.826843,474
859.944458,466
860.062012,469
860.179626,475
860.297302,465
860.414856,496
860.532471,448
860.650024,474
860.767639,461
860.885193,471
861.002808,455
861.120361,488
861.237976,468
861.35553,476
861.473022,444
861.590698,471
861.708191,470
861.825745,450
861.943298,454
862.060852,480
862.178406,448
862.295959,467
862.413513,452
862.531006,470
862.64856,452
862.766113,481
862.883667,461
863.00116,460
863.118713,474
863.236206,455
863.353699,445
863.471252,454
863.588745,460
863.706177,466
863.82373,484
863.941162,466
864.058716,463
864.176208,475
864.29364,463
864.411194,474
864.528687,455
864.646118,475
864.763611,471
864.881042,446
864.998535,455
865.116028,488
865.233459,462
865.350891,471
865.468384,469
865.585754,461
865.703308,469
865.820679,457
865.938171,467
866.055542,470
866.173035,472
866.290466,474
866.407837,463
866.52533,478
866.6427,465
866.760071,467
866.877563,464
866.994934,453
867.112305,461
867.229736,474
867.347107,491
867.464539,463
867.58197,462
867.699341,471
867.81665,494
867.934082,471
868.051453,481
868.168823,474
868.286194,450
868.403564,485
868.520935,453
868.638306,476
868.755676,478
868.872986,490
868.990295,474
869.107727,460
869.225037,476
869.342346,454
869.459717,448
869.577026,480
869.694336,466
869.811707,475
869.929016,473
870.046326,472
870.163635,470
870.280945,491
870.398254,464
870.515564,485
870.632812,467
870.750183,471
870.867432,462
870.984741,459
871.102051,465
871.219299,476
871.336609,483
871.453918,487
871.571106,466
871.688416,484
871.805664,486
871.922852,463
872.040222,477
872.157471,495
872.274719,475
872.391968,493
872.509155,482
872.626465,475
872.743652,462
872.860962,484
872.978149,484
873.095337,468
873.212646,467
873.329834,470
873.44696,477
873.564209,477
873.681396,481
873.798645,493
873.915894,478
874.03302,484
874.150208,475
874.267456,475
874.384583,451
874.501831,483
874.618958,472
874.736145,489
874.853333,493
874.970459,492
875.087646,494
875.204834,467
875.32196,470
875.439148,479
875.556274,465
875.673401,485
875.790527,479
875.907715,464
876.024841,484
876.141968,480
876.259094,482
876.376282,471
876.493347,484
876.610474,473
876.7276,476
876.844727,464
876.961853,458
877.078918,484
877.195984,480
877.313171,470
877.430237,476
877.547302,458
877.664368,489
877.781433,447
877.898499,443
878.015625,480
878.13269,464
878.249695,453
878.366821,494
878.483887,465
878.600952,446
878.717957,462
878.834961,477
878.952087,493
879.069092,460
879.186157,472
879.303162,472
879.420227,475
879.537231,477
879.654236,462
879.77124,470
879.888306,463
880.005249,466
880.122314,453
880.239319,451
880.356323,449
880.473328,469
880.590271,468
880.707275,475
880.824341,474
880.941284,456
881.058228,479
881.175232,454
881.292236,464
881.40918,473
881.526123,475
881.643066,468
881.760071,467
881.877014,471
881.993958,474
882.11084,464
882.227783,475
882.344727,442
882.46167,485
882.578613,460
882.695618,458
882.812439,473
882.929382,474
883.046326,454
883.163208,465
883.280151,462
883.397034,459
883.513916,477
883.630798,469
883.747742,470
883.864563,496
883.981506,482
884.098389,476
884.21521,465
884.332153,483
884.448975,474
884.565796,464
884.682678,493
884.7995,478
884.916443,492
885.033264,489
885.150085,485
885.266968,512
885.383789,485
885.500671,490
885.617493,475
885.734314,504
885.851196,495
885.967896,513
886.084717,483
886.201599,485
886.318359,510
886.435181,503
886.552002,497
886.668762,485
886.785645,492
886.902344,475
887.019165,495
887.135925,485
887.252747,473
887.369446,502
887.486267,486
887.603027,500
887.719788,476
887.836548,480
887.953247,481
888.070068,481
888.186829,471
888.303528,487
888.420288,468
888.536987,463
888.653687,464
888.770447,480
888.887146,468
889.003967,470
889.120667,460
889.237305,456
889.354065,465
889.470703,504
889.587463,457
889.704163,462
889.820862,472
889.937561,475
890.054199,465
890.170837,463
890.287598,453
890.404236,458
890.520874,478
890.637634,468
890.754211,460
890.87085,486
890.987549,468
891.104187,468
891.220886,478
891.337463,479
891.454102,472
891.57074,480
891.687378,472
891.804077,475
891.920654,464
892.037231,489
892.15387,458
892.270447,485
892.387085,468
892.503723,470
892.6203,459
892.736877,472
892.853516,496
892.970032,465
893.08667,463
893.203186,464
893.319763,455
893.43634,494
893.552917,461
893.669556,475
893.786011,479
893.902588,471
894.019165,461
894.135681,469
894.252197,475
894.368835,447
894.485291,462
894.601868,473
894.718384,465
894.8349,472
894.951355,459
895.067932,470
895.184448,462
895.300964,471
895.417419,472
895.533936,490
895.650452,460
895.766907,475
895.883423,451
895.999878,460
896.116333,462
896.232849,472
896.349304,457
896.465759,475
896.582214,478
896.698669,471
896.815125,470
896.931641,471
897.048035,463
897.164551,464
897.280884,458
897.397339,464
897.513794,469
897.630249,469
897.746582,471
897.863098,484
897.979431,468
898.095886,493
898.212341,473
898.328674,476
898.445129,485
898.561462,477
898.677795,466
898.794312,485
898.910645,471
899.026978,476
899.143433,486
899.259766,485
899.37616,468
899.492493,470
899.608765,465
899.725159,476
899.841553,475
899.957947,491
900.07428,443
900.190552,483
900.306946,482
900.423157,466
900.53949,472
900.655884,497
900.772156,472
900.888489,450
901.004822,483
901.121033,494
901.237366,478
901.353699,483
901.46991,485
901.586304,484
901.702515,463
901.818787,477
901.93512,478
902.051331,501
902.167603,482
902.283875,482
902.400085,492
902.516418,488
902.632629,490
902.74884,499
902.865112,489
902.981384,480
903.097595,493
903.213867,483
903.330017,478
903.446289,493
903.5625,475
903.67865,506
903.794922,476
903.911072,497
904.027344,458
904.143494,491
904.259705,490
904.375916,476
904.492065,495
904.608215,494
904.724426,483
904.840576,488
904.956726,479
905.072876,469
905.189087,471
905.305176,469
905.421387,461
905.537537,484
905.653687,451
905.769775,482
905.885925,484
906.002014,482
906.118164,463
906.234314,459
906.350403,483
906.466492,469
906.582642,491
906.69873,498
906.814758,489
906.930908,473
907.046936,473
907.163086,459
907.279175,463
907.395264,479
907.511353,473
907.62738,495
907.743408,466
907.859497,452
907.975525,472
908.091553,493
908.207703,474
908.32373,473
908.439758,476
908.555786,457
908.671814,470
908.787842,484
908.90387,478
909.019775,478
909.135864,470
909.251892,453
909.367859,472
909.483826,453
909.599854,498
909.715881,475
909.831848,482
909.947815,485
910.063782,483
910.179749,472
910.295776,491
910.411743,488
910.527649,485
910.643616,490
910.759583,463
910.875488,485
910.991455,478
911.107361,459
911.223267,487
911.339294,470
911.4552,476
911.571106,481
911.687073,468
911.802979,478
911.918823,455
912.034729,485
912.150635,480
912.266602,491
912.382446,476
912.498352,490
912.614197,459
912.730103,480
912.846008,469
792.44574,746
792.56488,755
792.68396,792
792.80304,744
792.92218,694
793.041199,688
793.160339,702
793.279419,688
793.398499,705
793.517578,667
793.636658,654
793.755737,674
793.874817,680
793.993896,677
794.112976,652
794.232056,636
794.351074,616
794.470215,653
794.589233,627
794.708313,639
794.827393,623
794.946411,644
795.065552,639
795.18457,639
795.303589,616
795.422668,637
795.541687,627
795.660767,645
795.779846,593
795.898865,596
796.017883,592
796.136963,642
796.255981,625
796.375061,596
796.49408,595
796.613037,613
796.732117,581
796.851135,586
796.970154,595
797.089233,591
797.208191,600
797.327271,583
797.446228,606
797.565186,580
797.684265,561
797.803223,595
797.922241,572
798.04126,583
798.160278,570
798.279297,596
798.398315,558
798.517273,578
798.636292,559
798.75531,557
798.874268,578
798.993286,584
799.112244,588
799.231323,584
799.350281,560
799.469238,564
799.588257,588
799.707153,575
799.826111,590
799.945129,570
800.064087,595
800.183044,585
800.302063,575
800.421021,578
800.539978,590
800.658936,593
800.777893,560
800.896912,561
801.015747,565
801.134705,568
801.253723,576
801.37262,579
801.491638,568
801.610535,576
801.729492,562
801.84845,570
801.967407,571
802.086243,580
802.205261,570
802.324158,574
802.443115,586
802.562073,577
802.680969,583
802.799927,577
802.918762,562
803.037659,575
803.156677,584
803.275574,575
803.39447,562
803.513428,585
803.632263,566
803.751221,551
803.870117,587
803.989014,552
804.107971,578
804.226746,570
804.345642,566
804.4646,587
804.583496,581
804.702393,582
804.821228,593
804.940125,536
805.059021,561
805.177917,602
805.296814,554
805.415649,589
805.534546,567
805.653442,589
805.772278,556
805.891113,577
806.01001,599
806.128906,597
806.247742,571
806.366577,596
806.485413,581
806.604309,577
806.723145,586
806.84198,572
806.960876,584
807.079712,587
807.198486,587
807.317383,573
807.436218,596
807.554993,572
807.673889,584
807.792725,574
807.91156,585
808.030396,569
808.14917,568
808.268005,591
808.386841,591
808.505676,591
808.624451,593
808.743286,577
808.862122,569
808.980896,594
809.099731,585
809.218506,600
809.337341,574
809.456116,580
809.57489,580
809.693726,593
809.8125,582
809.931274,586
810.050049,614
810.168884,599
810.287659,596
810.406372,603
810.525269,564
810.643982,589
810.762756,575
810.881531,612
811.000305,576
811.11908,576
811.237854,582
811.356567,573
811.475403,604
811.594116,583
811.71283,565
811.831604,585
811.950378,598
812.069153,593
812.187927,597
812.30658,602
812.425415,565
812.544128,593
812.662781,593
812.781616,591
812.900269,566
813.019043,587
813.137756,600
813.256531,588
813.375244,580
813.493896,575
813.612671,589
813.731384,576
813.850037,577
813.96875,591
814.087524,574
814.206238,593
814.324951,588
814.443604,565
814.562256,560
814.68103,583
814.799683,590
814.918335,585
815.037109,571
815.155762,568
815.274475,554
815.393188,597
815.511841,557
815.630554,578
815.749146,577
815.867859,558
815.986572,564
816.105164,556
816.223877,574
816.342529,588
816.461182,604
816.579895,576
816.698486,603
816.817139,581
816.935791,589
817.054504,591
817.173096,574
817.291748,565
817.4104,553
817.529053,557
817.647644,577
817.766235,550
817.884949,567
818.00354,558
818.122192,539
818.240845,559
818.359436,522
818.478088,538
818.59668,537
818.715271,503
818.833923,523
818.952515,522
819.071106,504
819.189758,503
819.30835,499
819.426941,493
819.545532,506
819.664124,516
819.782715,486
819.901306,522
820.019897,483
820.138489,484
820.25708,507
820.375671,499
820.494202,496
820.612732,494
820.731384,492
820.849915,499
820.968506,499
821.087097,498
821.205627,511
821.324158,482
821.442749,494
821.561279,472
821.679871,478
821.798401,474
821.916931,490
822.035461,482
822.154053,501
822.272583,489
822.391174,458
822.509583,478
822.628174,486
822.746704,461
822.865234,484
822.983765,490
823.102295,476
823.220825,490
823.339294,474
823.457825,484
823.576355,451
823.694824,498
823.813354,459
823.931885,496
824.050354,483
824.168884,509
824.287354,480
824.405823,477
824.524353,490
824.642822,502
824.761353,486
824.879822,474
824.998291,478
825.116699,488
825.235291,499
825.353699,470
825.472168,466
825.590637,493
825.709106,478
825.827576,465
825.946045,468
826.064453,469
826.182983,483
826.301392,453
826.4198,466
826.53833,450
826.656738,481
826.775208,470
826.893677,469
827.012024,466
827.130493,478
827.248962,474
827.36731,462
827.485779,477
827.604248,468
827.722595,459
827.841064,474
827.959412,467
828.077942,461
828.196289,466
828.314636,472
828.433105,461
828.551514,470
828.669861,463
828.78833,477
828.906677,456
829.025085,471
829.143433,444
829.261841,436
829.38031,468
829.498657,466
829.617004,456
829.735413,448
829.85376,474
829.972107,465
830.090515,467
830.208862,443
830.327209,475
830.445557,455
830.563904,489
830.682312,457
830.800659,466
830.919006,467
831.037354,457
831.155701,484
831.274048,483
831.392395,476
831.51062,473
831.629028,447
831.747314,465
831.865662,470
831.984009,471
832.102356,483
832.220642,476
832.338928,449
832.457275,482
832.575623,471
832.693909,473
832.812134,466
832.930481,460
833.048828,484
833.167114,455
833.2854,456
833.403687,470
833.521973,470
833.640259,466
833.758545,464
833.876831,461
833.995056,478
834.113281,463
834.231628,467
834.349915,472
834.468201,467
834.586426,470
834.704651,455
834.822998,456
834.941162,488
835.059448,481
835.177673,451
835.295959,482
835.414246,475
835.53241,486
835.650635,450
835.768921,474
835.887146,480
836.005371,469
836.123596,464
836.241821,457
836.360046,461
836.478271,477
836.596497,480
836.714722,477
836.832886,466
836.95105,470
837.069336,490
837.1875,471
837.305725,463
837.423889,475
837.542053,461
837.660339,482
837.778503,478
837.896667,490
838.014832,492
838.132996,466
838.25116,466
838.369385,502
838.487488,498
838.605713,472
838.723877,461
838.84198,477
838.960205,475
839.078308,473
839.196472,457
839.314636,467
839.4328,475
839.550964,475
839.669067,481
839.787231,476
839.905396,471
840.023499,478
840.141602,471
840.259766,496
840.377869,476
840.495972,454
840.614136,502
840.732239,473
840.850342,463
840.968445,480
841.086548,462
841.204651,479
841.322754,465
841.440918,490
841.55896,471
841.677002,476
841.795166,479
841.913208,486
842.031311,474
842.149353,516
842.267456,485
842.385498,492
842.503601,455
842.621643,466
842.739746,490
842.857788,483
842.97583,454
843.093933,479
843.211975,480
843.330017,447
843.44812,482
843.566101,459
843.684204,452
843.802246,478
843.920227,472
844.038269,476
844.156311,458
844.274292,468
844.392395,455
844.510376,475
844.628357,466
844.74646,471
844.864441,476
844.982422,456
845.100403,455
845.218384,445
845.336426,465
845.454468,473
845.572449,473
845.69043,484
845.808411,464
845.926453,475
846.044373,450
846.162354,461
846.280396,445
846.398315,482
846.516296,467
846.634216,464
846.752197,473
846.870178,456
846.988098,469
847.106079,474
847.22406,448
847.34198,468
847.4599,481
847.577881,468
847.695801,462
847.813782,489
847.931641,462
848.049561,469
848.167603,459
848.285461,464
848.403381,470
848.521362,456
848.639221,460
848.75708,471
848.875,449
848.99292,478
849.110901,466
849.22876,463
849.34668,464
849.464539,456
849.582458,461
849.700317,459
849.818176,470
849.936096,484
850.053955,470
850.171875,480
850.289673,465
850.407593,458
850.525452,475
850.643311,473
850.761169,447
850.878967,463
850.996887,465
851.114746,473
851.232544,463
851.350403,474
851.468262,481
851.58606,456
851.703979,458
851.821777,491
851.939636,475
852.057434,461
852.175232,481
852.293091,481
852.410889,476
852.528687,473
852.646545,468
852.764343,491
852.88208,473
852.999939,474
853.117676,461
853.235535,473
853.353271,486
853.471069,478
853.588928,471
853.706604,464
853.824402,468
853.9422,484
854.059998,478
854.177734,474
854.295532,462
854.413269,487
854.531006,472
854.648804,469
854.766541,468
854.884277,471
855.002014,450
855.119751,495
855.237549,460
855.355225,467
855.473022,476
855.590698,459
855.708435,475
855.826172,488
855.943848,471
856.061646,453
856.179321,466
856.296997,470
856.414795,466
856.53241,487
856.650085,449
856.767822,482
856.885559,465
857.003174,475
857.120911,477
857.238586,484
857.356201,485
857.473938,479
857.591614,475
857.709351,502
857.826965,476
857.944641,482
858.062317,479
858.179993,482
858.297668,484
858.415283,479
858.532959,472
858.650574,477
858.768188,455
858.885803,485
859.003479,470
859.121094,471
859.23877,471
859.356384,474
859.473999,474
859.591675,470
859.709229,482
859.826843,475
859.944458,469
860.062012,479
860.179626,466
860.297302,481
860.414856,449
860.532471,479
860.650024,457
860.767639,469
860.885193,457
861.002808,459
861.120361,466
861.237976,474
861.35553,478
861.473022,464
861.590698,468
861.708191,485
861.825745,466
861.943298,465
862.060852,470
862.178406,470
862.295959,468
862.413513,496
862.531006,479
862.64856,479
862.766113,455
862.883667,443
863.00116,470
863.118713,473
863.236206,452
863.353699,463
863.471252,471
863.588745,453
863.706177,462
863.82373,476
863.941162,469
864.058716,471
864.176208,476
864.29364,460
864.411194,477
864.528687,456
864.646118,473
864.763611,468
864.881042,473
864.998535,473
865.116028,469
865.233459,453
865.350891,460
865.468384,457
865.585754,478
865.703308,467
865.820679,455
865.938171,476
866.055542,481
866.173035,472
866.290466,460
866.407837,475
866.52533,481
866.6427,477
866.760071,453
866.877563,469
866.994934,470
867.112305,477
867.229736,463
867.347107,464
867.464539,453
867.58197,467
867.699341,474
867.81665,462
867.934082,458
868.051453,472
868.168823,457
868.286194,484
868.403564,462
868.520935,467
868.638306,473
868.755676,461
868.872986,462
868.990295,467
869.107727,467
869.225037,482
869.342346,469
869.459717,484
869.577026,475
869.694336,483
869.811707,487
869.929016,463
870.046326,471
870.163635,455
870.280945,475
870.398254,480
870.515564,481
870.632812,477
870.750183,486
870.867432,484
870.984741,472
871.102051,483
871.219299,478
871.336609,498
871.453918,476
871.571106,470
871.688416,491
871.805664,459
871.922852,471
872.040222,487
872.157471,484
872.274719,485
872.391968,486
872.509155,484
872.626465,476
872.743652,475
872.860962,488
872.978149,483
873.095337,481
873.212646,498
873.329834,490
873.44696,490
873.564209,480
873.681396,473
873.798645,478
873.915894,478
874.03302,485
874.150208,459
874.267456,493
874.384583,489
874.501831,487
874.618958,472
874.736145,480
874.853333,487
874.970459,495
875.087646,469
875.204834,479
875.32196,475
875.439148,473
875.556274,463
875.673401,479
875.790527,468
875.907715,476
876.024841,454
876.141968,464
876.259094,474
876.376282,475
876.493347,484
876.610474,483
876.7276,468
876.844727,461
876.961853,480
877.078918,474
877.195984,475
877.313171,494
877.430237,497
877.547302,486
877.664368,475
877.781433,474
877.898499,462
878.015625,476
878.13269,477
878.249695,492
878.366821,506
878.483887,489
878.600952,470
878.717957,463
878.834961,483
878.952087,479
879.069092,463
879.186157,473
879.303162,472
879.420227,469
879.537231,477
879.654236,471
879.77124,477
879.888306,460
880.005249,489
880.122314,469
880.239319,474
880.356323,464
880.473328,468
880.590271,480
880.707275,461
880.824341,457
880.941284,467
881.058228,450
881.175232,471
881.292236,460
881.40918,434
881.526123,485
881.643066,459
881.760071,472
881.877014,459
881.993958,478
882.11084,478
882.227783,468
882.344727,471
882.46167,478
882.578613,459
882.695618,457
882.812439,485
882.929382,483
883.046326,471
883.163208,464
883.280151,478
883.397034,493
883.513916,467
883.630798,467
883.747742,476
883.864563,464
883.981506,482
884.098389,475
884.21521,497
884.332153,480
884.448975,478
884.565796,487
884.682678,516
884.7995,485
884.916443,454
885.033264,485
885.150085,479
885.266968,507
885.383789,519
885.500671,508
885.617493,530
885.734314,509
885.851196,529
885.967896,489
886.084717,508
886.201599,491
886.318359,500
886.435181,514
886.552002,511
886.668762,493
886.785645,498
886.902344,498
887.019165,500
887.135925,483
887.252747,488
887.369446,492
887.486267,494
887.603027,480
887.719788,480
887.836548,484
887.953247,467
888.070068,467
888.186829,462
888.303528,465
888.420288,488
888.536987,467
888.653687,484
888.770447,471
888.887146,477
889.003967,471
889.120667,475
889.237305,453
889.354065,464
889.470703,455
889.587463,453
889.704163,457
889.820862,461
889.937561,486
890.054199,470
890.170837,462
890.287598,481
890.404236,489
890.520874,490
890.637634,477
890.754211,457
890.87085,474
890.987549,475
891.104187,486
891.220886,469
891.337463,472
891.454102,478
891.57074,477
891.687378,480
891.804077,466
891.920654,463
892.037231,477
892.15387,461
892.270447,456
892.387085,451
892.503723,476
892.6203,471
892.736877,476
892.853516,461
892.970032,481
893.08667,489
893.203186,473
893.319763,498
893.43634,496
893.552917,486
893.669556,463
893.786011,468
893.902588,457
894.019165,470
894.135681,465
894.252197,481
894.368835,469
894.485291,479
894.601868,486
894.718384,493
894.8349,480
894.951355,470
895.067932,475
895.184448,468
895.300964,470
895.417419,464
895.533936,486
895.650452,479
895.766907,475
895.883423,488
895.999878,469
896.116333,471
896.232849,460
896.349304,461
896.465759,479
896.582214,470
896.698669,461
896.815125,473
896.931641,480
897.048035,472
897.164551,502
897.280884,489
897.397339,470
897.513794,468
897.630249,472
897.746582,503
897.863098,448
897.979431,475
898.095886,481
898.212341,483
898.328674,512
898.445129,475
898.561462,473
898.677795,479
898.794312,465
898.910645,471
899.026978,481
899.143433,475
899.259766,481
899.37616,481
899.492493,475
899.608765,487
899.725159,466
899.841553,476
899.957947,489
900.07428,472
900.190552,489
900.306946,490
900.423157,460
900.53949,480
900.655884,489
900.772156,474
900.888489,484
901.004822,465
901.121033,491
901.237366,473
901.353699,502
901.46991,485
901.586304,500
901.702515,491
901.818787,487
901.93512,482
902.051331,468
902.167603,478
902.283875,481
902.400085,484
902.516418,489
902.632629,500
902.74884,490
902.865112,485
902.981384,486
903.097595,492
903.213867,497
903.330017,489
903.446289,491
903.5625,480
903.67865,458
903.794922,500
903.911072,489
904.027344,488
904.143494,501
904.259705,501
904.375916,481
904.492065,481
904.608215,480
904.724426,490
904.840576,490
904.956726,481
905.072876,472
905.189087,488
905.305176,494
905.421387,490
905.537537,469
905.653687,481
905.769775,464
905.885925,494
906.002014,482
906.118164,475
906.234314,475
906.350403,496
906.466492,475
906.582642,484
906.69873,484
906.814758,483
906.930908,473
907.046936,492
907.163086,478
907.279175,482
907.395264,493
907.511353,470
907.62738,487
907.743408,464
907.859497,461
907.975525,474
908.091553,482
908.207703,481
908.32373,477
908.439758,475
908.555786,466
908.671814,478
908.787842,471
908.90387,489
909.019775,462
909.135864,485
909.251892,458
909.367859,481
909.483826,487
909.599854,494
909.715881,464
909.831848,463
909.947815,460
910.063782,498
910.179749,485
910.295776,502
910.411743,485
910.527649,479
910.643616,480
910.759583,478
910.875488,493
910.991455,475
911.107361,495
911.223267,485
911.339294,463
911.4552,476
911.571106,465
911.687073,483
911.802979,475
911.918823,480
912.034729,481
912.150635,492
912.266602,474
912.382446,481
912.498352,456
912.614197,485
912.730103,483
912.846008,496
