792.44574,602
792.56488,642
792.68396,664
792.80304,654
792.92218,597
793.041199,583
793.160339,579
793.279419,603
793.398499,591
793.517578,584
793.636658,586
793.755737,591
793.874817,614
793.993896,604
794.112976,604
794.232056,591
794.351074,576
794.470215,587
794.589233,562
794.708313,572
794.827393,592
794.946411,575
795.065552,581
795.18457,602
795.303589,550
795.422668,569
795.541687,582
795.660767,589
795.779846,597
795.898865,581
796.017883,571
796.136963,569
796.255981,581
796.375061,579
796.49408,561
796.613037,566
796.732117,578
796.851135,571
796.970154,588
797.089233,574
797.208191,553
797.327271,554
797.446228,569
797.565186,565
797.684265,579
797.803223,575
797.922241,553
798.04126,577
798.160278,568
798.279297,577
798.398315,558
798.517273,569
798.636292,563
798.75531,542
798.874268,572
798.993286,563
799.112244,567
799.231323,568
799.350281,573
799.469238,573
799.588257,556
799.707153,569
799.826111,582
799.945129,575
800.064087,555
800.183044,579
800.302063,579
800.421021,572
800.539978,573
800.658936,581
800.777893,591
800.896912,574
801.015747,556
801.134705,561
801.253723,562
801.37262,581
801.491638,591
801.610535,582
801.729492,585
801.84845,559
801.967407,585
802.086243,582
802.205261,563
802.324158,548
802.443115,529
802.562073,580
802.680969,560
802.799927,595
802.918762,579
803.037659,580
803.156677,569
803.275574,573
803.39447,585
803.513428,573
803.632263,586
803.751221,566
803.870117,593
803.989014,585
804.107971,586
804.226746,563
804.345642,585
804.4646,554
804.583496,592
804.702393,589
804.821228,578
804.940125,608
805.059021,606
805.177917,598
805.296814,586
805.415649,596
805.534546,585
805.653442,595
805.772278,611
805.891113,600
806.01001,579
806.128906,622
806.247742,575
806.366577,605
806.485413,599
806.604309,584
806.723145,599
806.84198,601
806.960876,586
807.079712,594
807.198486,582
807.317383,595
807.436218,583
807.554993,582
807.673889,584
807.792725,568
807.91156,612
808.030396,588
808.14917,597
808.268005,608
808.386841,615
808.505676,604
808.624451,605
808.743286,608
808.862122,627
808.980896,591
809.099731,617
809.218506,603
809.337341,611
809.456116,596
809.57489,604
809.693726,619
809.8125,635
809.931274,613
810.050049,612
810.168884,600
810.287659,610
810.406372,643
810.525269,623
810.643982,605
810.762756,614
810.881531,595
811.000305,624
811.11908,599
811.237854,613
811.356567,609
811.475403,623
811.594116,590
811.71283,625
811.831604,613
811.950378,603
812.069153,644
812.187927,629
812.30658,602
812.425415,607
812.544128,623
812.662781,604
812.781616,621
812.900269,610
813.019043,613
813.137756,619
813.256531,637
813.375244,600
813.493896,631
813.612671,587
813.731384,631
813.850037,605
813.96875,623
814.087524,623
814.206238,608
814.324951,600
814.443604,598
814.562256,614
814.68103,617
814.799683,626
814.918335,607
815.037109,594
815.155762,619
815.274475,599
815.393188,601
815.511841,630
815.630554,588
815.749146,614
815.867859,599
815.986572,612
816.105164,596
816.223877,596
816.342529,605
816.461182,587
816.579895,620
816.698486,592
816.817139,601
816.935791,612
817.054504,581
817.173096,588
817.291748,601
817.4104,584
817.529053,582
817.647644,561
817.766235,571
817.884949,561
818.00354,552
818.122192,548
818.240845,548
818.359436,541
818.478088,508
818.59668,526
818.715271,538
818.833923,554
818.952515,533
819.071106,514
819.189758,515
819.30835,517
819.426941,512
819.545532,507
819.664124,498
819.782715,495
819.901306,491
820.019897,498
820.138489,516
820.25708,494
820.375671,490
820.494202,481
820.612732,499
820.731384,492
820.849915,490
820.968506,492
821.087097,499
821.205627,496
821.324158,482
821.442749,488
821.561279,497
821.679871,477
821.798401,488
821.916931,488
822.035461,486
822.154053,474
822.272583,474
822.391174,483
822.509583,488
822.628174,478
822.746704,478
822.865234,481
822.983765,501
823.102295,471
823.220825,480
823.339294,472
823.457825,488
823.576355,493
823.694824,483
823.813354,494
823.931885,480
824.050354,490
824.168884,490
824.287354,492
824.405823,484
824.524353,491
824.642822,494
824.761353,484
824.879822,473
824.998291,499
825.116699,483
825.235291,489
825.353699,500
825.472168,495
825.590637,475
825.709106,478
825.827576,475
825.946045,464
826.064453,492
826.182983,463
826.301392,469
826.4198,468
826.53833,475
826.656738,463
826.775208,473
826.893677,468
827.012024,465
827.130493,464
827.248962,497
827.36731,466
827.485779,479
827.604248,466
827.722595,467
827.841064,456
827.959412,451
828.077942,474
828.196289,463
828.314636,484
828.433105,465
828.551514,451
828.669861,463
828.78833,454
828.906677,446
829.025085,468
829.143433,468
829.261841,460
829.38031,476
829.498657,459
829.617004,480
829.735413,452
829.85376,465
829.972107,446
830.090515,461
830.208862,459
830.327209,482
830.445557,456
830.563904,453
830.682312,455
830.800659,449
830.919006,454
831.037354,464
831.155701,471
831.274048,465
831.392395,456
831.51062,478
831.629028,458
831.747314,461
831.865662,451
831.984009,443
832.102356,455
832.220642,460
832.338928,458
832.457275,449
832.575623,447
832.693909,478
832.812134,459
832.930481,462
833.048828,461
833.167114,467
833.2854,455
833.403687,465
833.521973,474
833.640259,446
833.758545,444
833.876831,480
833.995056,467
834.113281,474
834.231628,465
834.349915,454
834.468201,450
834.586426,463
834.704651,461
834.822998,465
834.941162,472
835.059448,468
835.177673,461
835.295959,451
835.414246,473
835.53241,469
835.650635,452
835.768921,459
835.887146,474
836.005371,465
836.123596,473
836.241821,461
836.360046,467
836.478271,483
836.596497,462
836.714722,475
836.832886,468
836.95105,484
837.069336,466
837.1875,479
837.305725,460
837.423889,475
837.542053,496
837.660339,464
837.778503,475
837.896667,468
838.014832,491
838.132996,482
838.25116,476
838.369385,470
838.487488,481
838.605713,478
838.723877,475
838.84198,483
838.960205,475
839.078308,475
839.196472,467
839.314636,481
839.4328,487
839.550964,481
839.669067,483
839.787231,483
839.905396,472
840.023499,468
840.141602,467
840.259766,478
840.377869,471
840.495972,481
840.614136,488
840.732239,460
840.850342,471
840.968445,468
841.086548,474
841.204651,498
841.322754,457
841.440918,454
841.55896,472
841.677002,472
841.795166,466
841.913208,441
842.031311,466
842.149353,454
842.267456,456
842.385498,448
842.503601,462
842.621643,456
842.739746,460
842.857788,457
842.97583,457
843.093933,469
843.211975,465
843.330017,469
843.44812,447
843.566101,466
843.684204,453
843.802246,450
843.920227,445
844.038269,480
844.156311,465
844.274292,443
844.392395,464
844.510376,450
844.628357,457
844.74646,461
844.864441,449
844.982422,459
845.100403,450
845.218384,466
845.336426,461
845.454468,461
845.572449,451
845.69043,461
845.808411,468
845.926453,440
846.044373,446
846.162354,433
846.280396,441
846.398315,456
846.516296,462
846.634216,462
846.752197,444
846.870178,450
846.988098,463
847.106079,460
847.22406,456
847.34198,463
847.4599,436
847.577881,446
847.695801,459
847.813782,459
847.931641,443
848.049561,464
848.167603,459
848.285461,456
848.403381,450
848.521362,453
848.639221,465
848.75708,452
848.875,473
848.99292,472
849.110901,459
849.22876,439
849.34668,433
849.464539,466
849.582458,462
849.700317,458
849.818176,457
849.936096,458
850.053955,440
850.171875,451
850.289673,458
850.407593,449
850.525452,477
850.643311,457
850.761169,457
850.878967,449
850.996887,466
851.114746,460
851.232544,450
851.350403,460
851.468262,484
851.58606,453
851.703979,468
851.821777,462
851.939636,458
852.057434,470
852.175232,476
852.293091,477
852.410889,455
852.528687,458
852.646545,466
852.764343,471
852.88208,459
852.999939,453
853.117676,452
853.235535,463
853.353271,456
853.471069,441
853.588928,473
853.706604,468
853.824402,458
853.9422,459
854.059998,444
854.177734,447
854.295532,432
854.413269,452
854.531006,465
854.648804,463
854.766541,457
854.884277,458
855.002014,479
855.119751,479
855.237549,460
855.355225,468
855.473022,460
855.590698,457
855.708435,460
855.826172,480
855.943848,459
856.061646,466
856.179321,450
856.296997,468
856.414795,471
856.53241,485
856.650085,475
856.767822,464
856.885559,474
857.003174,465
857.120911,468
857.238586,458
857.356201,454
857.473938,465
857.591614,478
857.709351,453
857.826965,460
857.944641,452
858.062317,452
858.179993,465
858.297668,455
858.415283,453
858.532959,454
858.650574,442
858.768188,457
858.885803,461
859.003479,472
859.121094,454
859.23877,465
859.356384,470
859.473999,458
859.591675,443
859.709229,474
859.826843,464
859.944458,471
860.062012,468
860.179626,455
860.297302,470
860.414856,453
860.532471,454
860.650024,453
860.767639,455
860.885193,455
861.002808,448
861.120361,461
861.237976,472
861.35553,451
861.473022,447
861.590698,457
861.708191,442
861.825745,467
861.943298,440
862.060852,466
862.178406,460
862.295959,464
862.413513,466
862.531006,460
862.64856,466
862.766113,460
862.883667,450
863.00116,472
863.118713,453
863.236206,458
863.353699,455
863.471252,474
863.588745,453
863.706177,485
863.82373,467
863.941162,451
864.058716,469
864.176208,449
864.29364,485
864.411194,452
864.528687,481
864.646118,476
864.763611,458
864.881042,449
864.998535,466
865.116028,449
865.233459,463
865.350891,461
865.468384,470
865.585754,467
865.703308,480
865.820679,464
865.938171,458
866.055542,469
866.173035,468
866.290466,464
866.407837,469
866.52533,450
866.6427,468
866.760071,460
866.877563,472
866.994934,488
867.112305,459
867.229736,460
867.347107,457
867.464539,468
867.58197,474
867.699341,474
867.81665,462
867.934082,476
868.051453,457
868.168823,449
868.286194,471
868.403564,457
868.520935,447
868.638306,472
868.755676,469
868.872986,472
868.990295,465
869.107727,464
869.225037,468
869.342346,467
869.459717,472
869.577026,446
869.694336,476
869.811707,467
869.929016,473
870.046326,459
870.163635,450
870.280945,465
870.398254,461
870.515564,465
870.632812,465
870.750183,463
870.867432,485
870.984741,467
871.102051,465
871.219299,468
871.336609,488
871.453918,469
871.571106,437
871.688416,469
871.805664,459
871.922852,478
872.040222,454
872.157471,459
872.274719,475
872.391968,464
872.509155,449
872.626465,466
872.743652,480
872.860962,456
872.978149,465
873.095337,487
873.212646,474
873.329834,456
873.44696,453
873.564209,474
873.681396,468
873.798645,448
873.915894,457
874.03302,454
874.150208,469
874.267456,465
874.384583,465
874.501831,461
874.618958,459
874.736145,459
874.853333,477
874.970459,456
875.087646,457
875.204834,469
875.32196,473
875.439148,464
875.556274,458
875.673401,460
875.790527,433
875.907715,465
876.024841,469
876.141968,471
876.259094,457
876.376282,440
876.493347,482
876.610474,452
876.7276,463
876.844727,464
876.961853,470
877.078918,471
877.195984,475
877.313171,476
877.430237,473
877.547302,468
877.664368,476
877.781433,461
877.898499,467
878.015625,458
878.13269,442
878.249695,478
878.366821,459
878.483887,474
878.600952,454
878.717957,470
878.834961,458
878.952087,444
879.069092,477
879.186157,485
879.303162,441
879.420227,457
879.537231,454
879.654236,451
879.77124,462
879.888306,476
880.005249,462
880.122314,462
880.239319,484
880.356323,464
880.473328,476
880.590271,492
880.707275,461
880.824341,463
880.941284,464
881.058228,476
881.175232,479
881.292236,460
881.40918,461
881.526123,464
881.643066,483
881.760071,465
881.877014,473
881.993958,439
882.11084,484
882.227783,458
882.344727,477
882.46167,468
882.578613,463
882.695618,449
882.812439,478
882.929382,478
883.046326,485
883.163208,472
883.280151,467
883.397034,462
883.513916,481
883.630798,462
883.747742,479
883.864563,462
883.981506,464
884.098389,460
884.21521,490
884.332153,459
884.448975,478
884.565796,470
884.682678,470
884.7995,467
884.916443,489
885.033264,466
885.150085,484
885.266968,480
885.383789,477
885.500671,451
885.617493,478
885.734314,503
885.851196,464
885.967896,470
886.084717,453
886.201599,463
886.318359,490
886.435181,476
886.552002,473
886.668762,456
886.785645,466
886.902344,482
887.019165,479
887.135925,464
887.252747,463
887.369446,470
887.486267,466
887.603027,466
887.719788,458
887.836548,483
887.953247,466
888.070068,482
888.186829,479
888.303528,467
888.420288,479
888.536987,491
888.653687,479
888.770447,474
888.887146,475
889.003967,493
889.120667,473
889.237305,467
889.354065,493
889.470703,473
889.587463,482
889.704163,460
889.820862,472
889.937561,463
890.054199,489
890.170837,478
890.287598,479
890.404236,487
890.520874,473
890.637634,482
890.754211,493
890.87085,481
890.987549,479
891.104187,472
891.220886,484
891.337463,452
891.454102,488
891.57074,460
891.687378,470
891.804077,470
891.920654,471
892.037231,490
892.15387,488
892.270447,461
892.387085,459
892.503723,479
892.6203,487
892.736877,482
892.853516,486
892.970032,470
893.08667,481
893.203186,473
893.319763,485
893.43634,487
893.552917,485
893.669556,485
893.786011,492
893.902588,476
894.019165,474
894.135681,490
894.252197,457
894.368835,480
894.485291,484
894.601868,471
894.718384,489
894.8349,477
894.951355,476
895.067932,481
895.184448,484
895.300964,495
895.417419,462
895.533936,487
895.650452,460
895.766907,478
895.883423,468
895.999878,477
896.116333,485
896.232849,483
896.349304,475
896.465759,471
896.582214,473
896.698669,472
896.815125,473
896.931641,472
897.048035,492
897.164551,493
897.280884,487
897.397339,480
897.513794,494
897.630249,465
897.746582,475
897.863098,466
897.979431,499
898.095886,471
898.212341,485
898.328674,476
898.445129,486
898.561462,491
898.677795,479
898.794312,467
898.910645,471
899.026978,471
899.143433,493
899.259766,487
899.37616,484
899.492493,476
899.608765,474
899.725159,496
899.841553,480
899.957947,492
900.07428,491
900.190552,486
900.306946,483
900.423157,470
900.53949,484
900.655884,466
900.772156,476
900.888489,480
901.004822,491
901.121033,479
901.237366,463
901.353699,467
901.46991,486
901.586304,479
901.702515,470
901.818787,483
901.93512,497
902.051331,493
902.167603,483
902.283875,461
902.400085,470
902.516418,477
902.632629,489
902.74884,489
902.865112,490
902.981384,488
903.097595,508
903.213867,505
903.330017,485
903.446289,466
903.5625,487
903.67865,481
903.794922,505
903.911072,480
904.027344,495
904.143494,495
904.259705,488
904.375916,484
904.492065,480
904.608215,478
904.724426,500
904.840576,486
904.956726,480
905.072876,468
905.189087,495
905.305176,491
905.421387,477
905.537537,482
905.653687,504
905.769775,463
905.885925,507
906.002014,474
906.118164,472
906.234314,476
906.350403,497
906.466492,484
906.582642,492
906.69873,488
906.814758,488
906.930908,489
907.046936,488
907.163086,495
907.279175,507
907.395264,465
907.511353,487
907.62738,476
907.743408,477
907.859497,492
907.975525,497
908.091553,487
908.207703,467
908.32373,473
908.439758,482
908.555786,489
908.671814,512
908.787842,478
908.90387,498
909.019775,479
909.135864,492
909.251892,481
909.367859,478
909.483826,508
909.599854,499
909.715881,489
909.831848,486
909.947815,488
910.063782,491
910.179749,498
910.295776,503
910.411743,478
910.527649,477
910.643616,484
910.759583,491
910.875488,490
910.991455,486
911.107361,483
911.223267,485
911.339294,495
911.4552,490
911.571106,479
911.687073,489
911.802979,495
911.918823,471
912.034729,488
912.150635,497
912.266602,489
912.382446,481
912.498352,499
912.614197,474
912.730103,483
912.846008,501
792.44574,603
792.56488,609
792.68396,663
792.80304,636
792.92218,618
793.041199,591
793.160339,582
793.279419,600
793.398499,621
793.517578,586
793.636658,596
793.755737,566
793.874817,616
793.993896,612
794.112976,597
794.232056,611
794.351074,583
794.470215,559
794.589233,570
794.708313,583
794.827393,589
794.946411,595
795.065552,591
795.18457,578
795.303589,602
795.422668,592
795.541687,588
795.660767,568
795.779846,593
795.898865,578
796.017883,579
796.136963,598
796.255981,598
796.375061,582
796.49408,580
796.613037,568
796.732117,584
796.851135,570
796.970154,605
797.089233,587
797.208191,574
797.327271,563
797.446228,584
797.565186,574
797.684265,567
797.803223,575
797.922241,558
798.04126,561
798.160278,596
798.279297,574
798.398315,571
798.517273,597
798.636292,555
798.75531,579
798.874268,572
798.993286,575
799.112244,573
799.231323,560
799.350281,550
799.469238,562
799.588257,565
799.707153,570
799.826111,590
799.945129,583
800.064087,556
800.183044,598
800.302063,580
800.421021,581
800.539978,566
800.658936,570
800.777893,572
800.896912,584
801.015747,600
801.134705,581
801.253723,585
801.37262,575
801.491638,569
801.610535,557
801.729492,573
801.84845,566
801.967407,569
802.086243,595
802.205261,590
802.324158,585
802.443115,577
802.562073,563
802.680969,595
802.799927,584
802.918762,574
803.037659,586
803.156677,588
803.275574,619
803.39447,576
803.513428,572
803.632263,602
803.751221,560
803.870117,582
803.989014,573
804.107971,579
804.226746,582
804.345642,576
804.4646,575
804.583496,572
804.702393,622
804.821228,589
804.940125,575
805.059021,596
805.177917,590
805.296814,585
805.415649,598
805.534546,602
805.653442,591
805.772278,602
805.891113,571
806.01001,608
806.128906,591
806.247742,599
806.366577,591
806.485413,576
806.604309,596
806.723145,578
806.84198,633
806.960876,609
807.079712,597
807.198486,604
807.317383,620
807.436218,617
807.554993,616
807.673889,617
807.792725,605
807.91156,606
808.030396,614
808.14917,599
808.268005,599
808.386841,605
808.505676,639
808.624451,597
808.743286,604
808.862122,633
808.980896,619
809.099731,604
809.218506,596
809.337341,606
809.456116,621
809.57489,612
809.693726,622
809.8125,627
809.931274,629
810.050049,618
810.168884,606
810.287659,627
810.406372,608
810.525269,624
810.643982,610
810.762756,612
810.881531,634
811.000305,623
811.11908,624
811.237854,605
811.356567,631
811.475403,638
811.594116,601
811.71283,634
811.831604,619
811.950378,625
812.069153,633
812.187927,603
812.30658,647
812.425415,626
812.544128,638
812.662781,599
812.781616,616
812.900269,616
813.019043,606
813.137756,644
813.256531,623
813.375244,603
813.493896,608
813.612671,599
813.731384,623
813.850037,607
813.96875,614
814.087524,617
814.206238,579
814.324951,643
814.443604,631
814.562256,614
814.68103,606
814.799683,619
814.918335,614
815.037109,605
815.155762,606
815.274475,594
815.393188,591
815.511841,625
815.630554,606
815.749146,595
815.867859,595
815.986572,600
816.105164,613
816.223877,607
816.342529,602
816.461182,600
816.579895,596
816.698486,631
816.817139,622
816.935791,614
817.054504,605
817.173096,619
817.291748,587
817.4104,601
817.529053,558
817.647644,601
817.766235,565
817.884949,584
818.00354,552
818.122192,581
818.240845,551
818.359436,569
818.478088,533
818.59668,530
818.715271,518
818.833923,515
818.952515,524
819.071106,509
819.189758,553
819.30835,498
819.426941,532
819.545532,537
819.664124,494
819.782715,504
819.901306,502
820.019897,509
820.138489,493
820.25708,497
820.375671,491
820.494202,511
820.612732,488
820.731384,485
820.849915,476
820.968506,485
821.087097,488
821.205627,500
821.324158,505
821.442749,504
821.561279,489
821.679871,501
821.798401,494
821.916931,477
822.035461,472
822.154053,486
822.272583,479
822.391174,476
822.509583,486
822.628174,485
822.746704,481
822.865234,485
822.983765,473
823.102295,497
823.220825,490
823.339294,489
823.457825,463
823.576355,482
823.694824,488
823.813354,480
823.931885,469
824.050354,479
824.168884,475
824.287354,481
824.405823,509
824.524353,479
824.642822,475
824.761353,494
824.879822,483
824.998291,479
825.116699,500
825.235291,485
825.353699,492
825.472168,482
825.590637,483
825.709106,488
825.827576,466
825.946045,505
826.064453,483
826.182983,480
826.301392,487
826.4198,477
826.53833,488
826.656738,485
826.775208,474
826.893677,473
827.012024,479
827.130493,475
827.248962,466
827.36731,490
827.485779,481
827.604248,474
827.722595,449
827.841064,487
827.959412,475
828.077942,478
828.196289,464
828.314636,472
828.433105,440
828.551514,482
828.669861,462
828.78833,461
828.906677,445
829.025085,461
829.143433,459
829.261841,474
829.38031,465
829.498657,470
829.617004,477
829.735413,455
829.85376,447
829.972107,456
830.090515,467
830.208862,481
830.327209,454
830.445557,474
830.563904,457
830.682312,481
830.800659,472
830.919006,454
831.037354,453
831.155701,465
831.274048,452
831.392395,481
831.51062,459
831.629028,455
831.747314,458
831.865662,460
831.984009,452
832.102356,461
832.220642,468
832.338928,492
832.457275,454
832.575623,457
832.693909,459
832.812134,471
832.930481,459
833.048828,477
833.167114,452
833.2854,455
833.403687,461
833.521973,459
833.640259,453
833.758545,489
833.876831,445
833.995056,468
834.113281,450
834.231628,479
834.349915,444
834.468201,467
834.586426,443
834.704651,469
834.822998,477
834.941162,451
835.059448,471
835.177673,467
835.295959,462
835.414246,468
835.53241,467
835.650635,460
835.768921,464
835.887146,469
836.005371,461
836.123596,474
836.241821,466
836.360046,470
836.478271,466
836.596497,472
836.714722,481
836.832886,493
836.95105,478
837.069336,468
837.1875,476
837.305725,484
837.423889,463
837.542053,487
837.660339,475
837.778503,471
837.896667,457
838.014832,483
838.132996,481
838.25116,481
838.369385,482
838.487488,474
838.605713,476
838.723877,511
838.84198,480
838.960205,471
839.078308,472
839.196472,506
839.314636,482
839.4328,495
839.550964,485
839.669067,478
839.787231,506
839.905396,468
840.023499,472
840.141602,475
840.259766,470
840.377869,470
840.495972,487
840.614136,498
840.732239,465
840.850342,468
840.968445,461
841.086548,476
841.204651,459
841.322754,461
841.440918,470
841.55896,459
841.677002,471
841.795166,454
841.913208,457
842.031311,485
842.149353,460
842.267456,475
842.385498,458
842.503601,463
842.621643,454
842.739746,456
842.857788,458
842.97583,465
843.093933,459
843.211975,471
843.330017,455
843.44812,465
843.566101,454
843.684204,473
843.802246,450
843.920227,453
844.038269,440
844.156311,482
844.274292,458
844.392395,462
844.510376,468
844.628357,474
844.74646,478
844.864441,462
844.982422,469
845.100403,465
845.218384,470
845.336426,452
845.454468,452
845.572449,475
845.69043,447
845.808411,451
845.926453,440
846.044373,465
846.162354,446
846.280396,477
846.398315,451
846.516296,459
846.634216,434
846.752197,481
846.870178,473
846.988098,466
847.106079,451
847.22406,451
847.34198,464
847.4599,480
847.577881,466
847.695801,463
847.813782,451
847.931641,449
848.049561,436
848.167603,456
848.285461,458
848.403381,477
848.521362,449
848.639221,456
848.75708,455
848.875,469
848.99292,458
849.110901,451
849.22876,451
849.34668,443
849.464539,472
849.582458,449
849.700317,458
849.818176,466
849.936096,453
850.053955,464
850.171875,456
850.289673,477
850.407593,440
850.525452,467
850.643311,447
850.761169,465
850.878967,462
850.996887,488
851.114746,444
851.232544,449
851.350403,463
851.468262,452
851.58606,465
851.703979,466
851.821777,471
851.939636,472
852.057434,444
852.175232,470
852.293091,458
852.410889,478
852.528687,460
852.646545,455
852.764343,459
852.88208,474
852.999939,449
853.117676,457
853.235535,441
853.353271,486
853.471069,463
853.588928,447
853.706604,449
853.824402,472
853.9422,457
854.059998,455
854.177734,436
854.295532,464
854.413269,456
854.531006,472
854.648804,465
854.766541,449
854.884277,457
855.002014,448
855.119751,469
855.237549,471
855.355225,475
855.473022,479
855.590698,453
855.708435,480
855.826172,454
855.943848,474
856.061646,491
856.179321,462
856.296997,460
856.414795,491
856.53241,457
856.650085,475
856.767822,464
856.885559,482
857.003174,464
857.120911,475
857.238586,455
857.356201,471
857.473938,475
857.591614,470
857.709351,493
857.826965,461
857.944641,458
858.062317,461
858.179993,446
858.297668,460
858.415283,447
858.532959,456
858.650574,462
858.768188,458
858.885803,463
859.003479,475
859.121094,455
859.23877,436
859.356384,449
859.473999,460
859.591675,456
859.709229,471
859.826843,443
859.944458,449
860.062012,468
860.179626,467
860.297302,464
860.414856,459
860.532471,449
860.650024,492
860.767639,467
860.885193,458
861.002808,471
861.120361,458
861.237976,473
861.35553,468
861.473022,448
861.590698,465
861.708191,462
861.825745,449
861.943298,481
862.060852,465
862.178406,462
862.295959,468
862.413513,429
862.531006,470
862.64856,452
862.766113,477
862.883667,466
863.00116,459
863.118713,447
863.236206,478
863.353699,462
863.471252,478
863.588745,467
863.706177,465
863.82373,447
863.941162,468
864.058716,462
864.176208,464
864.29364,653
864.411194,1992
864.528687,1270
864.646118,1267
864.763611,422
864.881042,459
864.998535,470
865.116028,453
865.233459,447
865.350891,467
865.468384,485
865.585754,492
865.703308,459
865.820679,455
865.938171,464
866.055542,454
866.173035,465
866.290466,457
866.407837,461
866.52533,484
866.6427,473
866.760071,486
866.877563,469
866.994934,476
867.112305,463
867.229736,472
867.347107,439
867.464539,461
867.58197,466
867.699341,477
867.81665,467
867.934082,484
868.051453,481
868.168823,477
868.286194,478
868.403564,477
868.520935,472
868.638306,466
868.755676,476
868.872986,477
868.990295,484
869.107727,461
869.225037,471
869.342346,459
869.459717,475
869.577026,483
869.694336,462
869.811707,465
869.929016,460
870.046326,483
870.163635,461
870.280945,465
870.398254,460
870.515564,458
870.632812,487
870.750183,475
870.867432,458
870.984741,466
871.102051,460
871.219299,462
871.336609,480
871.453918,503
871.571106,469
871.688416,459
871.805664,455
871.922852,474
872.040222,452
872.157471,458
872.274719,473
872.391968,452
872.509155,473
872.626465,470
872.743652,460
872.860962,463
872.978149,458
873.095337,458
873.212646,456
873.329834,481
873.44696,470
873.564209,476
873.681396,454
873.798645,486
873.915894,453
874.03302,493
874.150208,458
874.267456,467
874.384583,451
874.501831,488
874.618958,477
874.736145,460
874.853333,479
874.970459,464
875.087646,443
875.204834,477
875.32196,459
875.439148,474
875.556274,466
875.673401,481
875.790527,477
875.907715,482
876.024841,477
876.141968,478
876.259094,459
876.376282,475
876.493347,450
876.610474,482
876.7276,483
876.844727,464
876.961853,467
877.078918,471
877.195984,475
877.313171,476
877.430237,468
877.547302,467
877.664368,449
877.781433,492
877.898499,470
878.015625,479
878.13269,461
878.249695,482
878.366821,463
878.483887,464
878.600952,461
878.717957,468
878.834961,458
878.952087,458
879.069092,474
879.186157,471
879.303162,481
879.420227,479
879.537231,453
879.654236,489
879.77124,472
879.888306,475
880.005249,475
880.122314,477
880.239319,476
880.356323,464
880.473328,478
880.590271,490
880.707275,448
880.824341,477
880.941284,478
881.058228,481
881.175232,452
881.292236,482
881.40918,460
881.526123,491
881.643066,471
881.760071,487
881.877014,479
881.993958,473
882.11084,455
882.227783,479
882.344727,472
882.46167,482
882.578613,460
882.695618,487
882.812439,472
882.929382,488
883.046326,476
883.163208,474
883.280151,471
883.397034,469
883.513916,470
883.630798,474
883.747742,466
883.864563,503
883.981506,468
884.098389,464
884.21521,471
884.332153,479
884.448975,480
884.565796,480
884.682678,476
884.7995,490
884.916443,464
885.033264,489
885.150085,449
885.266968,474
885.383789,459
885.500671,483
885.617493,478
885.734314,492
885.851196,462
885.967896,460
886.084717,464
886.201599,482
886.318359,486
886.435181,485
886.552002,479
886.668762,478
886.785645,485
886.902344,490
887.019165,469
887.135925,488
887.252747,467
887.369446,482
887.486267,473
887.603027,474
887.719788,479
887.836548,457
887.953247,477
888.070068,474
888.186829,464
888.303528,478
888.420288,479
888.536987,495
888.653687,505
888.770447,484
888.887146,492
889.003967,485
889.120667,468
889.237305,480
889.354065,469
889.470703,487
889.587463,466
889.704163,486
889.820862,511
889.937561,476
890.054199,469
890.170837,487
890.287598,479
890.404236,498
890.520874,446
890.637634,489
890.754211,467
890.87085,502
890.987549,460
891.104187,479
891.220886,483
891.337463,472
891.454102,498
891.57074,475
891.687378,484
891.804077,477
891.920654,475
892.037231,489
892.15387,483
892.270447,480
892.387085,484
892.503723,473
892.6203,462
892.736877,494
892.853516,472
892.970032,491
893.08667,468
893.203186,486
893.319763,463
893.43634,466
893.552917,490
893.669556,474
893.786011,470
893.902588,468
894.019165,471
894.135681,498
894.252197,478
894.368835,480
894.485291,484
894.601868,482
894.718384,481
894.8349,483
894.951355,475
895.067932,484
895.184448,488
895.300964,497
895.417419,460
895.533936,493
895.650452,495
895.766907,485
895.883423,477
895.999878,475
896.116333,460
896.232849,480
896.349304,479
896.465759,462
896.582214,461
896.698669,492
896.815125,482
896.931641,481
897.048035,478
897.164551,485
897.280884,491
897.397339,481
897.513794,471
897.630249,480
897.746582,479
897.863098,476
897.979431,483
898.095886,510
898.212341,472
898.328674,463
898.445129,470
898.561462,503
898.677795,493
898.794312,477
898.910645,474
899.026978,463
899.143433,487
899.259766,482
899.37616,484
899.492493,486
899.608765,491
899.725159,492
899.841553,486
899.957947,497
900.07428,478
900.190552,487
900.306946,483
900.423157,486
900.53949,484
900.655884,491
900.772156,478
900.888489,493
901.004822,482
901.121033,488
901.237366,491
901.353699,466
901.46991,468
901.586304,497
901.702515,494
901.818787,499
901.93512,485
902.051331,494
902.167603,491
902.283875,478
902.400085,481
902.516418,491
902.632629,485
902.74884,496
902.865112,473
902.981384,483
903.097595,481
903.213867,480
903.330017,494
903.446289,488
903.5625,484
903.67865,494
903.794922,493
903.911072,488
904.027344,489
904.143494,491
904.259705,465
904.375916,481
904.492065,495
904.608215,494
904.724426,476
904.840576,470
904.956726,510
905.072876,501
905.189087,508
905.305176,494
905.421387,478
905.537537,497
905.653687,474
905.769775,496
905.885925,481
906.002014,479
906.118164,504
906.234314,503
906.350403,475
906.466492,508
906.582642,492
906.69873,484
906.814758,502
906.930908,504
907.046936,490
907.163086,484
907.279175,478
907.395264,486
907.511353,501
907.62738,499
907.743408,467
907.859497,507
907.975525,479
908.091553,505
908.207703,483
908.32373,504
908.439758,487
908.555786,503
908.671814,486
908.787842,495
908.90387,488
909.019775,498
909.135864,482
909.251892,485
909.367859,477
909.483826,471
909.599854,488
909.715881,498
909.831848,494
909.947815,488
910.063782,505
910.179749,475
910.295776,496
910.411743,522
910.527649,486
910.643616,513
910.759583,484
910.875488,502
910.991455,496
911.107361,496
911.223267,485
911.339294,480
911.4552,513
911.571106,510
911.687073,511
911.802979,488
911.918823,492
912.034729,511
912.150635,508
912.266602,482
912.382446,486
912.498352,490
912.614197,505
912.730103,504
912.846008,484
792.44574,585
792.56488,641
792.68396,674
792.80304,670
792.92218,581
793.041199,574
793.160339,590
793.279419,601
793.398499,599
793.517578,588
793.636658,600
793.755737,619
793.874817,626
793.993896,593
794.112976,572
794.232056,582
794.351074,578
794.470215,600
794.589233,560
794.708313,586
794.827393,616
794.946411,574
795.065552,582
795.18457,574
795.303589,575
795.422668,588
795.541687,583
795.660767,576
795.779846,586
795.898865,567
796.017883,584
796.136963,570
796.255981,574
796.375061,591
796.49408,594
796.613037,581
796.732117,585
796.851135,582
796.970154,580
797.089233,592
797.208191,571
797.327271,576
797.446228,576
797.565186,561
797.684265,591
797.803223,579
797.922241,560
798.04126,578
798.160278,558
798.279297,558
798.398315,578
798.517273,585
798.636292,554
798.75531,568
798.874268,582
798.993286,552
799.112244,562
799.231323,567
799.350281,586
799.469238,588
799.588257,567
799.707153,572
799.826111,546
799.945129,571
800.064087,571
800.183044,577
800.302063,557
800.421021,580
800.539978,581
800.658936,574
800.777893,569
800.896912,555
801.015747,573
801.134705,553
801.253723,553
801.37262,581
801.491638,571
801.610535,559
801.729492,592
801.84845,558
801.967407,585
802.086243,573
802.205261,585
802.324158,589
802.443115,577
802.562073,565
802.680969,589
802.799927,577
802.918762,569
803.037659,579
803.156677,589
803.275574,571
803.39447,597
803.513428,583
803.632263,590
803.751221,579
803.870117,577
803.989014,607
804.107971,584
804.226746,580
804.345642,612
804.4646,566
804.583496,604
804.702393,586
804.821228,576
804.940125,587
805.059021,587
805.177917,599
805.296814,588
805.415649,601
805.534546,593
805.653442,616
805.772278,613
805.891113,595
806.01001,578
806.128906,605
806.247742,593
806.366577,595
806.485413,592
806.604309,594
806.723145,607
806.84198,593
806.960876,598
807.079712,571
807.198486,617
807.317383,572
807.436218,601
807.554993,607
807.673889,610
807.792725,596
807.91156,591
808.030396,587
808.14917,622
808.268005,598
808.386841,619
808.505676,594
808.624451,615
808.743286,593
808.862122,586
808.980896,611
809.099731,631
809.218506,616
809.337341,628
809.456116,605
809.57489,621
809.693726,615
809.8125,633
809.931274,595
810.050049,596
810.168884,628
810.287659,615
810.406372,614
810.525269,607
810.643982,620
810.762756,620
810.881531,620
811.000305,628
811.11908,626
811.237854,627
811.356567,600
811.475403,636
811.594116,615
811.71283,628
811.831604,598
811.950378,621
812.069153,601
812.187927,629
812.30658,617
812.425415,622
812.544128,594
812.662781,626
812.781616,616
812.900269,593
813.019043,617
813.137756,605
813.256531,585
813.375244,646
813.493896,646
813.612671,631
813.731384,633
813.850037,623
813.96875,627
814.087524,628
814.206238,614
814.324951,605
814.443604,623
814.562256,598
814.68103,604
814.799683,605
814.918335,605
815.037109,644
815.155762,609
815.274475,616
815.393188,594
815.511841,612
815.630554,617
815.749146,617
815.867859,596
815.986572,592
816.105164,595
816.223877,596
816.342529,572
816.461182,602
816.579895,622
816.698486,600
816.817139,581
816.935791,627
817.054504,609
817.173096,607
817.291748,603
817.4104,589
817.529053,585
817.647644,571
817.766235,583
817.884949,589
818.00354,553
818.122192,552
818.240845,536
818.359436,558
818.478088,549
818.59668,542
818.715271,541
818.833923,526
818.952515,540
819.071106,521
819.189758,518
819.30835,535
819.426941,545
819.545532,502
819.664124,531
819.782715,508
819.901306,508
820.019897,502
820.138489,494
820.25708,502
820.375671,481
820.494202,477
820.612732,492
820.731384,503
820.849915,497
820.968506,481
821.087097,505
821.205627,472
821.324158,493
821.442749,492
821.561279,475
821.679871,467
821.798401,490
821.916931,483
822.035461,488
822.154053,491
822.272583,468
822.391174,474
822.509583,484
822.628174,462
822.746704,479
822.865234,493
822.983765,465
823.102295,488
823.220825,464
823.339294,480
823.457825,470
823.576355,474
823.694824,497
823.813354,480
823.931885,474
824.050354,490
824.168884,508
824.287354,483
824.405823,499
824.524353,496
824.642822,482
824.761353,493
824.879822,490
824.998291,504
825.116699,465
825.235291,480
825.353699,499
825.472168,496
825.590637,484
825.709106,476
825.827576,466
825.946045,479
826.064453,475
826.182983,479
826.301392,473
826.4198,473
826.53833,452
826.656738,471
826.775208,461
826.893677,478
827.012024,468
827.130493,465
827.248962,467
827.36731,471
827.485779,479
827.604248,475
827.722595,485
827.841064,466
827.959412,469
828.077942,454
828.196289,465
828.314636,457
828.433105,473
828.551514,470
828.669861,467
828.78833,476
828.906677,465
829.025085,469
829.143433,480
829.261841,463
829.38031,465
829.498657,461
829.617004,456
829.735413,464
829.85376,465
829.972107,458
830.090515,458
830.208862,458
830.327209,465
830.445557,456
830.563904,466
830.682312,462
830.800659,467
830.919006,449
831.037354,474
831.155701,457
831.274048,459
831.392395,455
831.51062,446
831.629028,465
831.747314,478
831.865662,472
831.984009,453
832.102356,455
832.220642,475
832.338928,466
832.457275,466
832.575623,465
832.693909,486
832.812134,464
832.930481,443
833.048828,464
833.167114,461
833.2854,444
833.403687,466
833.521973,481
833.640259,447
833.758545,471
833.876831,460
833.995056,445
834.113281,486
834.231628,460
834.349915,461
834.468201,451
834.586426,469
834.704651,472
834.822998,449
834.941162,470
835.059448,464
835.177673,474
835.295959,457
835.414246,462
835.53241,462
835.650635,477
835.768921,473
835.887146,470
836.005371,448
836.123596,472
836.241821,460
836.360046,482
836.478271,489
836.596497,466
836.714722,478
836.832886,461
836.95105,459
837.069336,500
837.1875,477
837.305725,484
837.423889,451
837.542053,456
837.660339,481
837.778503,483
837.896667,451
838.014832,470
838.132996,487
838.25116,490
838.369385,481
838.487488,470
838.605713,478
838.723877,477
838.84198,470
838.960205,463
839.078308,480
839.196472,471
839.314636,454
839.4328,465
839.550964,467
839.669067,478
839.787231,463
839.905396,452
840.023499,484
840.141602,494
840.259766,469
840.377869,486
840.495972,478
840.614136,461
840.732239,473
840.850342,470
840.968445,451
841.086548,481
841.204651,490
841.322754,476
841.440918,467
841.55896,464
841.677002,469
841.795166,478
841.913208,446
842.031311,477
842.149353,460
842.267456,475
842.385498,464
842.503601,476
842.621643,450
842.739746,464
842.857788,452
842.97583,463
843.093933,468
843.211975,467
843.330017,453
843.44812,468
843.566101,476
843.684204,450
843.802246,439
843.920227,470
844.038269,468
844.156311,475
844.274292,459
844.392395,460
844.510376,456
844.628357,463
844.74646,460
844.864441,473
844.982422,449
845.100403,467
845.218384,452
845.336426,437
845.454468,464
845.572449,465
845.69043,461
845.808411,453
845.926453,453
846.044373,460
846.162354,441
846.280396,467
846.398315,449
846.516296,468
846.634216,445
846.752197,463
846.870178,448
846.988098,443
847.106079,462
847.22406,478
847.34198,457
847.4599,453
847.577881,456
847.695801,463
847.813782,437
847.931641,446
848.049561,484
848.167603,447
848.285461,455
848.403381,470
848.521362,459
848.639221,470
848.75708,455
848.875,464
848.99292,451
849.110901,464
849.22876,451
849.34668,467
849.464539,447
849.582458,452
849.700317,455
849.818176,449
849.936096,450
850.053955,480
850.171875,440
850.289673,476
850.407593,466
850.525452,456
850.643311,470
850.761169,453
850.878967,467
850.996887,460
851.114746,443
851.232544,454
851.350403,446
851.468262,472
851.58606,469
851.703979,455
851.821777,454
851.939636,458
852.057434,445
852.175232,478
852.293091,457
852.410889,485
852.528687,463
852.646545,454
852.764343,458
852.88208,467
852.999939,453
853.117676,453
853.235535,435
853.353271,461
853.471069,449
853.588928,469
853.706604,456
853.824402,446
853.9422,461
854.059998,454
854.177734,463
854.295532,459
854.413269,455
854.531006,444
854.648804,439
854.766541,463
854.884277,453
855.002014,468
855.119751,460
855.237549,472
855.355225,462
855.473022,459
855.590698,451
855.708435,450
855.826172,432
855.943848,450
856.061646,474
856.179321,476
856.296997,461
856.414795,456
856.53241,473
856.650085,467
856.767822,437
856.885559,490
857.003174,441
857.120911,460
857.238586,452
857.356201,480
857.473938,467
857.591614,480
857.709351,464
857.826965,462
857.944641,446
858.062317,464
858.179993,466
858.297668,463
858.415283,458
858.532959,473
858.650574,464
858.768188,467
858.885803,471
859.003479,455
859.121094,466
859.23877,474
859.356384,458
859.473999,480
859.591675,458
859.709229,466
859.826843,446
859.944458,452
860.062012,459
860.179626,453
860.297302,447
860.414856,454
860.532471,458
860.650024,458
860.767639,462
860.885193,463
861.002808,436
861.120361,462
861.237976,462
861.35553,463
861.473022,447
861.590698,467
861.708191,464
861.825745,433
861.943298,461
862.060852,461
862.178406,467
862.295959,439
862.413513,458
862.531006,461
862.64856,466
862.766113,458
862.883667,458
863.00116,459
863.118713,462
863.236206,467
863.353699,460
863.471252,470
863.588745,464
863.706177,458
863.82373,459
863.941162,460
864.058716,465
864.176208,483
864.29364,456
864.411194,456
864.528687,456
864.646118,479
864.763611,458
864.881042,466
864.998535,449
865.116028,465
865.233459,464
865.350891,454
865.468384,466
865.585754,476
865.703308,475
865.820679,468
865.938171,478
866.055542,456
866.173035,460
866.290466,458
866.407837,460
866.52533,477
866.6427,454
866.760071,472
866.877563,451
866.994934,468
867.112305,454
867.229736,468
867.347107,454
867.464539,474
867.58197,486
867.699341,483
867.81665,465
867.934082,476
868.051453,449
868.168823,443
868.286194,455
868.403564,466
868.520935,470
868.638306,468
868.755676,461
868.872986,475
868.990295,444
869.107727,474
869.225037,469
869.342346,474
869.459717,453
869.577026,490
869.694336,470
869.811707,471
869.929016,461
870.046326,467
870.163635,474
870.280945,457
870.398254,451
870.515564,489
870.632812,452
870.750183,462
870.867432,465
870.984741,472
871.102051,477
871.219299,462
871.336609,487
871.453918,463
871.571106,467
871.688416,485
871.805664,470
871.922852,457
872.040222,452
872.157471,481
872.274719,450
872.391968,485
872.509155,456
872.626465,455
872.743652,477
872.860962,473
872.978149,485
873.095337,477
873.212646,452
873.329834,457
873.44696,459
873.564209,486
873.681396,460
873.798645,473
873.915894,466
874.03302,454
874.150208,468
874.267456,470
874.384583,470
874.501831,476
874.618958,451
874.736145,466
874.853333,456
874.970459,489
875.087646,454
875.204834,473
875.32196,473
875.439148,473
875.556274,468
875.673401,464
875.790527,456
875.907715,483
876.024841,478
876.141968,468
876.259094,458
876.376282,471
876.493347,465
876.610474,461
876.7276,454
876.844727,471
876.961853,475
877.078918,471
877.195984,477
877.313171,472
877.430237,456
877.547302,462
877.664368,467
877.781433,470
877.898499,459
878.015625,492
878.13269,469
878.249695,468
878.366821,478
878.483887,464
878.600952,465
878.717957,473
878.834961,458
878.952087,450
879.069092,476
879.186157,478
879.303162,461
879.420227,453
879.537231,466
879.654236,474
879.77124,479
879.888306,473
880.005249,476
880.122314,494
880.239319,480
880.356323,470
880.473328,472
880.590271,484
880.707275,485
880.824341,486
880.941284,465
881.058228,464
881.175232,487
881.292236,466
881.40918,469
881.526123,475
881.643066,465
881.760071,490
881.877014,468
881.993958,483
882.11084,476
882.227783,475
882.344727,464
882.46167,467
882.578613,466
882.695618,475
882.812439,466
882.929382,509
883.046326,459
883.163208,492
883.280151,467
883.397034,465
883.513916,458
883.630798,457
883.747742,469
883.864563,504
883.981506,490
884.098389,471
884.21521,469
884.332153,483
884.448975,464
884.565796,464
884.682678,470
884.7995,475
884.916443,457
885.033264,474
885.150085,460
885.266968,465
885.383789,472
885.500671,474
885.617493,490
885.734314,475
885.851196,467
885.967896,457
886.084717,470
886.201599,480
886.318359,472
886.435181,500
886.552002,470
886.668762,467
886.785645,475
886.902344,484
887.019165,484
887.135925,486
887.252747,473
887.369446,474
887.486267,472
887.603027,445
887.719788,473
887.836548,471
887.953247,487
888.070068,473
888.186829,487
888.303528,458
888.420288,476
888.536987,469
888.653687,473
888.770447,479
888.887146,470
889.003967,482
889.120667,473
889.237305,472
889.354065,469
889.470703,472
889.587463,460
889.704163,489
889.820862,483
889.937561,495
890.054199,479
890.170837,482
890.287598,457
890.404236,483
890.520874,472
890.637634,489
890.754211,476
890.87085,488
890.987549,470
891.104187,466
891.220886,469
891.337463,486
891.454102,483
891.57074,479
891.687378,487
891.804077,506
891.920654,468
892.037231,466
892.15387,468
892.270447,497
892.387085,477
892.503723,484
892.6203,489
892.736877,499
892.853516,486
892.970032,486
893.08667,473
893.203186,514
893.319763,476
893.43634,514
893.552917,488
893.669556,491
893.786011,471
893.902588,473
894.019165,461
894.135681,479
894.252197,487
894.368835,485
894.485291,465
894.601868,485
894.718384,473
894.8349,482
894.951355,494
895.067932,488
895.184448,493
895.300964,509
895.417419,479
895.533936,473
895.650452,486
895.766907,471
895.883423,466
895.999878,471
896.116333,478
896.232849,486
896.349304,484
896.465759,490
896.582214,485
896.698669,502
896.815125,477
896.931641,475
897.048035,473
897.164551,466
897.280884,465
897.397339,483
897.513794,488
897.630249,496
897.746582,481
897.863098,495
897.979431,483
898.095886,501
898.212341,485
898.328674,498
898.445129,504
898.561462,474
898.677795,468
898.794312,488
898.910645,500
899.026978,482
899.143433,489
899.259766,487
899.37616,466
899.492493,490
899.608765,478
899.725159,488
899.841553,466
899.957947,482
900.07428,480
900.190552,483
900.306946,494
900.423157,478
900.53949,496
900.655884,489
900.772156,460
900.888489,515
901.004822,506
901.121033,492
901.237366,485
901.353699,498
901.46991,484
901.586304,481
901.702515,503
901.818787,495
901.93512,484
902.051331,479
902.167603,487
902.283875,485
902.400085,520
902.516418,516
902.632629,478
902.74884,484
902.865112,489
902.981384,486
903.097595,505
903.213867,508
903.330017,486
903.446289,500
903.5625,492
903.67865,504
903.794922,482
903.911072,495
904.027344,474
904.143494,501
904.259705,475
904.375916,511
904.492065,478
904.608215,475
904.724426,477
904.840576,481
904.956726,494
905.072876,495
905.189087,485
905.305176,491
905.421387,488
905.537537,476
905.653687,479
905.769775,470
905.885925,484
906.002014,505
906.118164,485
906.234314,496
906.350403,491
906.466492,480
906.582642,502
906.69873,490
906.814758,478
906.930908,500
907.046936,499
907.163086,515
907.279175,490
907.395264,504
907.511353,488
907.62738,468
907.743408,480
907.859497,496
907.975525,512
908.091553,485
908.207703,485
908.32373,489
908.439758,516
908.555786,486
908.671814,483
908.787842,499
908.90387,491
909.019775,491
909.135864,480
909.251892,478
909.367859,506
909.483826,496
909.599854,485
909.715881,488
909.831848,474
909.947815,503
910.063782,478
910.179749,497
910.295776,486
910.411743,500
910.527649,477
910.643616,499
910.759583,501
910.875488,501
910.991455,499
911.107361,490
911.223267,484
911.339294,497
911.4552,503
911.571106,493
911.687073,479
911.802979,492
911.918823,478
912.034729,486
912.150635,481
912.266602,504
912.382446,488
912.498352,487
912.614197,481
912.730103,496
912.846008,470
