792.44574,661
792.56488,682
792.68396,714
792.80304,682
792.92218,658
793.041199,621
793.160339,653
793.279419,603
793.398499,630
793.517578,613
793.636658,613
793.755737,611
793.874817,625
793.993896,607
794.112976,603
794.232056,607
794.351074,602
794.470215,593
794.589233,586
794.708313,577
794.827393,596
794.946411,575
795.065552,584
795.18457,582
795.303589,577
795.422668,576
795.541687,596
795.660767,602
795.779846,579
795.898865,604
796.017883,581
796.136963,558
796.255981,579
796.375061,559
796.49408,566
796.613037,555
796.732117,560
796.851135,552
796.970154,577
797.089233,568
797.208191,581
797.327271,546
797.446228,590
797.565186,550
797.684265,575
797.803223,563
797.922241,579
798.04126,543
798.160278,558
798.279297,549
798.398315,589
798.517273,553
798.636292,582
798.75531,549
798.874268,570
798.993286,569
799.112244,565
799.231323,562
799.350281,570
799.469238,560
799.588257,578
799.707153,566
799.826111,545
799.945129,558
800.064087,553
800.183044,538
800.302063,556
800.421021,553
800.539978,541
800.658936,555
800.777893,556
800.896912,548
801.015747,550
801.134705,565
801.253723,551
801.37262,575
801.491638,540
801.610535,581
801.729492,560
801.84845,549
801.967407,559
802.086243,559
802.205261,574
802.324158,554
802.443115,553
802.562073,552
802.680969,589
802.799927,575
802.918762,568
803.037659,542
803.156677,550
803.275574,565
803.39447,573
803.513428,570
803.632263,556
803.751221,576
803.870117,559
803.989014,556
804.107971,568
804.226746,558
804.345642,566
804.4646,542
804.583496,551
804.702393,566
804.821228,573
804.940125,557
805.059021,574
805.177917,548
805.296814,576
805.415649,574
805.534546,558
805.653442,572
805.772278,558
805.891113,569
806.01001,583
806.128906,564
806.247742,589
806.366577,569
806.485413,566
806.604309,577
806.723145,598
806.84198,567
806.960876,560
807.079712,539
807.198486,590
807.317383,580
807.436218,556
807.554993,543
807.673889,569
807.792725,557
807.91156,570
808.030396,564
808.14917,581
808.268005,580
808.386841,594
808.505676,560
808.624451,596
808.743286,590
808.862122,579
808.980896,573
809.099731,574
809.218506,562
809.337341,587
809.456116,597
809.57489,578
809.693726,594
809.8125,566
809.931274,578
810.050049,604
810.168884,554
810.287659,574
810.406372,587
810.525269,568
810.643982,571
810.762756,578
810.881531,595
811.000305,568
811.11908,576
811.237854,583
811.356567,582
811.475403,584
811.594116,573
811.71283,615
811.831604,603
811.950378,580
812.069153,572
812.187927,586
812.30658,582
812.425415,599
812.544128,591
812.662781,602
812.781616,575
812.900269,579
813.019043,555
813.137756,575
813.256531,572
813.375244,590
813.493896,585
813.612671,583
813.731384,587
813.850037,579
813.96875,591
814.087524,566
814.206238,582
814.324951,581
814.443604,570
814.562256,583
814.68103,561
814.799683,578
814.918335,589
815.037109,583
815.155762,574
815.274475,574
815.393188,561
815.511841,587
815.630554,579
815.749146,548
815.867859,549
815.986572,580
816.105164,568
816.223877,586
816.342529,556
816.461182,574
816.579895,553
816.698486,559
816.817139,573
816.935791,576
817.054504,589
817.173096,584
817.291748,552
817.4104,546
817.529053,543
817.647644,552
817.766235,518
817.884949,540
818.00354,551
818.122192,557
818.240845,536
818.359436,520
818.478088,487
818.59668,509
818.715271,512
818.833923,522
818.952515,498
819.071106,509
819.189758,487
819.30835,493
819.426941,481
819.545532,495
819.664124,485
819.782715,487
819.901306,476
820.019897,495
820.138489,489
820.25708,503
820.375671,475
820.494202,476
820.612732,479
820.731384,465
820.849915,480
820.968506,482
821.087097,466
821.205627,474
821.324158,488
821.442749,482
821.561279,482
821.679871,482
821.798401,500
821.916931,483
822.035461,469
822.154053,479
822.272583,466
822.391174,463
822.509583,477
822.628174,489
822.746704,457
822.865234,466
822.983765,482
823.102295,471
823.220825,468
823.339294,475
823.457825,473
823.576355,487
823.694824,467
823.813354,470
823.931885,482
824.050354,475
824.168884,466
824.287354,507
824.405823,455
824.524353,481
824.642822,487
824.761353,484
824.879822,454
824.998291,481
825.116699,468
825.235291,488
825.353699,471
825.472168,477
825.590637,506
825.709106,479
825.827576,486
825.946045,484
826.064453,477
826.182983,474
826.301392,469
826.4198,478
826.53833,464
826.656738,465
826.775208,438
826.893677,457
827.012024,441
827.130493,484
827.248962,457
827.36731,475
827.485779,457
827.604248,475
827.722595,450
827.841064,442
827.959412,451
828.077942,465
828.196289,463
828.314636,457
828.433105,452
828.551514,467
828.669861,470
828.78833,472
828.906677,481
829.025085,472
829.143433,459
829.261841,466
829.38031,437
829.498657,436
829.617004,468
829.735413,467
829.85376,449
829.972107,468
830.090515,454
830.208862,462
830.327209,457
830.445557,455
830.563904,452
830.682312,460
830.800659,464
830.919006,456
831.037354,476
831.155701,466
831.274048,468
831.392395,456
831.51062,461
831.629028,469
831.747314,440
831.865662,455
831.984009,455
832.102356,459
832.220642,457
832.338928,459
832.457275,449
832.575623,450
832.693909,486
832.812134,457
832.930481,455
833.048828,465
833.167114,452
833.2854,462
833.403687,441
833.521973,454
833.640259,449
833.758545,469
833.876831,459
833.995056,454
834.113281,446
834.231628,474
834.349915,476
834.468201,472
834.586426,446
834.704651,439
834.822998,446
834.941162,469
835.059448,459
835.177673,467
835.295959,461
835.414246,468
835.53241,453
835.650635,448
835.768921,451
835.887146,459
836.005371,444
836.123596,479
836.241821,456
836.360046,453
836.478271,464
836.596497,479
836.714722,471
836.832886,467
836.95105,463
837.069336,476
837.1875,471
837.305725,481
837.423889,466
837.542053,473
837.660339,471
837.778503,454
837.896667,463
838.014832,487
838.132996,474
838.25116,475
838.369385,457
838.487488,459
838.605713,448
838.723877,464
838.84198,480
838.960205,463
839.078308,469
839.196472,465
839.314636,476
839.4328,480
839.550964,485
839.669067,460
839.787231,465
839.905396,461
840.023499,453
840.141602,466
840.259766,475
840.377869,477
840.495972,470
840.614136,467
840.732239,440
840.850342,464
840.968445,454
841.086548,470
841.204651,453
841.322754,468
841.440918,454
841.55896,465
841.677002,462
841.795166,474
841.913208,461
842.031311,467
842.149353,449
842.267456,475
842.385498,429
842.503601,442
842.621643,457
842.739746,460
842.857788,428
842.97583,459
843.093933,457
843.211975,464
843.330017,462
843.44812,455
843.566101,448
843.684204,442
843.802246,437
843.920227,444
844.038269,436
844.156311,462
844.274292,436
844.392395,466
844.510376,454
844.628357,447
844.74646,456
844.864441,460
844.982422,457
845.100403,449
845.218384,466
845.336426,454
845.454468,441
845.572449,461
845.69043,455
845.808411,445
845.926453,438
846.044373,459
846.162354,455
846.280396,436
846.398315,456
846.516296,450
846.634216,449
846.752197,450
846.870178,458
846.988098,472
847.106079,429
847.22406,455
847.34198,430
847.4599,460
847.577881,443
847.695801,462
847.813782,442
847.931641,441
848.049561,448
848.167603,463
848.285461,453
848.403381,448
848.521362,438
848.639221,441
848.75708,447
848.875,441
848.99292,452
849.110901,457
849.22876,438
849.34668,446
849.464539,446
849.582458,440
849.700317,449
849.818176,454
849.936096,451
850.053955,449
850.171875,439
850.289673,459
850.407593,449
850.525452,449
850.643311,460
850.761169,450
850.878967,432
850.996887,464
851.114746,452
851.232544,465
851.350403,442
851.468262,448
851.58606,433
851.703979,471
851.821777,443
851.939636,453
852.057434,461
852.175232,466
852.293091,455
852.410889,464
852.528687,458
852.646545,475
852.764343,457
852.88208,472
852.999939,457
853.117676,442
853.235535,454
853.353271,446
853.471069,447
853.588928,449
853.706604,452
853.824402,459
853.9422,442
854.059998,457
854.177734,438
854.295532,447
854.413269,435
854.531006,440
854.648804,455
854.766541,445
854.884277,455
855.002014,471
855.119751,444
855.237549,480
855.355225,439
855.473022,459
855.590698,455
855.708435,469
855.826172,454
855.943848,448
856.061646,446
856.179321,463
856.296997,469
856.414795,458
856.53241,453
856.650085,453
856.767822,443
856.885559,472
857.003174,462
857.120911,458
857.238586,479
857.356201,463
857.473938,444
857.591614,463
857.709351,464
857.826965,472
857.944641,468
858.062317,464
858.179993,466
858.297668,461
858.415283,451
858.532959,463
858.650574,454
858.768188,476
858.885803,449
859.003479,455
859.121094,467
859.23877,451
859.356384,463
859.473999,474
859.591675,443
859.709229,445
859.826843,454
859.944458,461
860.062012,447
860.179626,456
860.297302,444
860.414856,461
860.532471,449
860.650024,451
860.767639,445
860.885193,447
861.002808,450
861.120361,479
861.237976,446
861.35553,474
861.473022,442
861.590698,449
861.708191,445
861.825745,476
861.943298,456
862.060852,466
862.178406,449
862.295959,465
862.413513,451
862.531006,458
862.64856,447
862.766113,467
862.883667,448
863.00116,461
863.118713,456
863.236206,452
863.353699,455
863.471252,465
863.588745,442
863.706177,452
863.82373,456
863.941162,452
864.058716,468
864.176208,445
864.29364,438
864.411194,458
864.528687,467
864.646118,475
864.763611,457
864.881042,458
864.998535,453
865.116028,442
865.233459,441
865.350891,441
865.468384,462
865.585754,456
865.703308,434
865.820679,459
865.938171,442
866.055542,465
866.173035,460
866.290466,471
866.407837,474
866.52533,473
866.6427,461
866.760071,464
866.877563,443
866.994934,458
867.112305,441
867.229736,467
867.347107,459
867.464539,478
867.58197,463
867.699341,477
867.81665,456
867.934082,459
868.051453,458
868.168823,465
868.286194,469
868.403564,462
868.520935,450
868.638306,453
868.755676,449
868.872986,455
868.990295,440
869.107727,473
869.225037,453
869.342346,452
869.459717,456
869.577026,467
869.694336,446
869.811707,460
869.929016,468
870.046326,466
870.163635,452
870.280945,466
870.398254,450
870.515564,462
870.632812,460
870.750183,452
870.867432,443
870.984741,461
871.102051,469
871.219299,464
871.336609,446
871.453918,459
871.571106,472
871.688416,481
871.805664,469
871.922852,455
872.040222,456
872.157471,463
872.274719,433
872.391968,470
872.509155,458
872.626465,474
872.743652,466
872.860962,478
872.978149,465
873.095337,447
873.212646,467
873.329834,466
873.44696,455
873.564209,464
873.681396,474
873.798645,461
873.915894,455
874.03302,473
874.150208,457
874.267456,463
874.384583,473
874.501831,479
874.618958,461
874.736145,484
874.853333,461
874.970459,463
875.087646,486
875.204834,461
875.32196,467
875.439148,472
875.556274,482
875.673401,453
875.790527,466
875.907715,463
876.024841,441
876.141968,459
876.259094,464
876.376282,456
876.493347,453
876.610474,464
876.7276,466
876.844727,463
876.961853,464
877.078918,463
877.195984,464
877.313171,478
877.430237,435
877.547302,451
877.664368,458
877.781433,462
877.898499,464
878.015625,452
878.13269,460
878.249695,454
878.366821,452
878.483887,466
878.600952,466
878.717957,455
878.834961,463
878.952087,457
879.069092,456
879.186157,444
879.303162,455
879.420227,473
879.537231,468
879.654236,466
879.77124,453
879.888306,462
880.005249,441
880.122314,474
880.239319,454
880.356323,470
880.473328,460
880.590271,475
880.707275,448
880.824341,454
880.941284,447
881.058228,464
881.175232,454
881.292236,466
881.40918,465
881.526123,463
881.643066,442
881.760071,456
881.877014,442
881.993958,455
882.11084,449
882.227783,460
882.344727,440
882.46167,464
882.578613,460
882.695618,448
882.812439,452
882.929382,441
883.046326,472
883.163208,458
883.280151,453
883.397034,466
883.513916,462
883.630798,462
883.747742,457
883.864563,496
883.981506,437
884.098389,452
884.21521,455
884.332153,467
884.448975,473
884.565796,486
884.682678,438
884.7995,481
884.916443,478
885.033264,467
885.150085,467
885.266968,488
885.383789,471
885.500671,486
885.617493,481
885.734314,480
885.851196,484
885.967896,482
886.084717,468
886.201599,489
886.318359,476
886.435181,485
886.552002,479
886.668762,476
886.785645,466
886.902344,489
887.019165,476
887.135925,468
887.252747,477
887.369446,459
887.486267,476
887.603027,458
887.719788,477
887.836548,457
887.953247,442
888.070068,456
888.186829,463
888.303528,468
888.420288,457
888.536987,475
888.653687,479
888.770447,465
888.887146,446
889.003967,472
889.120667,466
889.237305,465
889.354065,473
889.470703,467
889.587463,457
889.704163,479
889.820862,467
889.937561,453
890.054199,434
890.170837,482
890.287598,454
890.404236,463
890.520874,458
890.637634,457
890.754211,464
890.87085,458
890.987549,467
891.104187,460
891.220886,454
891.337463,456
891.454102,445
891.57074,488
891.687378,443
891.804077,454
891.920654,469
892.037231,472
892.15387,442
892.270447,461
892.387085,448
892.503723,468
892.6203,446
892.736877,459
892.853516,459
892.970032,458
893.08667,448
893.203186,451
893.319763,469
893.43634,465
893.552917,474
893.669556,479
893.786011,455
893.902588,465
894.019165,477
894.135681,462
894.252197,471
894.368835,452
894.485291,465
894.601868,467
894.718384,456
894.8349,462
894.951355,459
895.067932,457
895.184448,478
895.300964,469
895.417419,445
895.533936,469
895.650452,451
895.766907,462
895.883423,444
895.999878,472
896.116333,473
896.232849,473
896.349304,463
896.465759,470
896.582214,453
896.698669,455
896.815125,471
896.931641,472
897.048035,447
897.164551,469
897.280884,484
897.397339,475
897.513794,449
897.630249,463
897.746582,473
897.863098,462
897.979431,455
898.095886,482
898.212341,486
898.328674,462
898.445129,480
898.561462,481
898.677795,466
898.794312,472
898.910645,462
899.026978,468
899.143433,454
899.259766,462
899.37616,474
899.492493,461
899.608765,472
899.725159,470
899.841553,454
899.957947,478
900.07428,471
900.190552,458
900.306946,487
900.423157,468
900.53949,470
900.655884,479
900.772156,461
900.888489,485
901.004822,476
901.121033,461
901.237366,459
901.353699,473
901.46991,492
901.586304,448
901.702515,458
901.818787,468
901.93512,464
902.051331,471
902.167603,470
902.283875,491
902.400085,472
902.516418,473
902.632629,476
902.74884,494
902.865112,460
902.981384,478
903.097595,473
903.213867,473
903.330017,464
903.446289,464
903.5625,480
903.67865,469
903.794922,481
903.911072,487
904.027344,472
904.143494,471
904.259705,469
904.375916,474
904.492065,458
904.608215,479
904.724426,478
904.840576,454
904.956726,496
905.072876,477
905.189087,469
905.305176,467
905.421387,462
905.537537,473
905.653687,483
905.769775,478
905.885925,477
906.002014,470
906.118164,476
906.234314,458
906.350403,486
906.466492,495
906.582642,442
906.69873,477
906.814758,451
906.930908,501
907.046936,474
907.163086,465
907.279175,480
907.395264,491
907.511353,452
907.62738,463
907.743408,470
907.859497,485
907.975525,466
908.091553,464
908.207703,468
908.32373,478
908.439758,449
908.555786,480
908.671814,461
908.787842,453
908.90387,461
909.019775,476
909.135864,470
909.251892,479
909.367859,485
909.483826,484
909.599854,472
909.715881,464
909.831848,459
909.947815,474
910.063782,491
910.179749,496
910.295776,482
910.411743,468
910.527649,462
910.643616,481
910.759583,452
910.875488,476
910.991455,456
911.107361,480
911.223267,477
911.339294,471
911.4552,460
911.571106,489
911.687073,456
911.802979,469
911.918823,462
912.034729,452
912.150635,440
912.266602,481
912.382446,456
912.498352,466
912.614197,479
912.730103,460
912.846008,469
792.44574,671
792.56488,691
792.68396,730
792.80304,697
792.92218,676
793.041199,613
793.160339,624
793.279419,651
793.398499,625
793.517578,609
793.636658,598
793.755737,623
793.874817,620
793.993896,614
794.112976,597
794.232056,593
794.351074,573
794.470215,598
794.589233,578
794.708313,595
794.827393,571
794.946411,583
795.065552,572
795.18457,571
795.303589,565
795.422668,608
795.541687,579
795.660767,582
795.779846,595
795.898865,583
796.017883,601
796.136963,572
796.255981,589
796.375061,590
796.49408,566
796.613037,566
796.732117,572
796.851135,602
796.970154,569
797.089233,589
797.208191,563
797.327271,583
797.446228,551
797.565186,567
797.684265,573
797.803223,584
797.922241,561
798.04126,589
798.160278,559
798.279297,556
798.398315,570
798.517273,554
798.636292,542
798.75531,586
798.874268,541
798.993286,580
799.112244,558
799.231323,539
799.350281,549
799.469238,572
799.588257,573
799.707153,572
799.826111,546
799.945129,566
800.064087,564
800.183044,548
800.302063,540
800.421021,559
800.539978,555
800.658936,558
800.777893,551
800.896912,562
801.015747,580
801.134705,544
801.253723,559
801.37262,558
801.491638,556
801.610535,545
801.729492,561
801.84845,548
801.967407,556
802.086243,569
802.205261,562
802.324158,556
802.443115,530
802.562073,556
802.680969,553
802.799927,581
802.918762,575
803.037659,561
803.156677,587
803.275574,565
803.39447,587
803.513428,576
803.632263,548
803.751221,576
803.870117,552
803.989014,594
804.107971,580
804.226746,564
804.345642,562
804.4646,567
804.583496,554
804.702393,555
804.821228,568
804.940125,588
805.059021,569
805.177917,560
805.296814,550
805.415649,568
805.534546,552
805.653442,594
805.772278,567
805.891113,568
806.01001,583
806.128906,590
806.247742,567
806.366577,584
806.485413,564
806.604309,577
806.723145,573
806.84198,589
806.960876,575
807.079712,598
807.198486,572
807.317383,574
807.436218,562
807.554993,566
807.673889,576
807.792725,607
807.91156,561
808.030396,571
808.14917,590
808.268005,571
808.386841,582
808.505676,564
808.624451,587
808.743286,591
808.862122,577
808.980896,600
809.099731,575
809.218506,584
809.337341,580
809.456116,584
809.57489,574
809.693726,578
809.8125,589
809.931274,567
810.050049,594
810.168884,574
810.287659,600
810.406372,590
810.525269,572
810.643982,585
810.762756,600
810.881531,570
811.000305,597
811.11908,587
811.237854,586
811.356567,600
811.475403,590
811.594116,604
811.71283,588
811.831604,586
811.950378,576
812.069153,587
812.187927,590
812.30658,580
812.425415,576
812.544128,608
812.662781,588
812.781616,574
812.900269,569
813.019043,592
813.137756,574
813.256531,582
813.375244,563
813.493896,581
813.612671,596
813.731384,581
813.850037,573
813.96875,582
814.087524,602
814.206238,594
814.324951,581
814.443604,566
814.562256,567
814.68103,564
814.799683,553
814.918335,577
815.037109,589
815.155762,575
815.274475,581
815.393188,580
815.511841,568
815.630554,569
815.749146,589
815.867859,574
815.986572,578
816.105164,576
816.223877,553
816.342529,566
816.461182,604
816.579895,571
816.698486,569
816.817139,563
816.935791,568
817.054504,577
817.173096,566
817.291748,569
817.4104,553
817.529053,555
817.647644,555
817.766235,553
817.884949,553
818.00354,528
818.122192,546
818.240845,540
818.359436,542
818.478088,521
818.59668,486
818.715271,522
818.833923,500
818.952515,494
819.071106,496
819.189758,517
819.30835,496
819.426941,494
819.545532,478
819.664124,499
819.782715,493
819.901306,490
820.019897,496
820.138489,481
820.25708,483
820.375671,490
820.494202,498
820.612732,486
820.731384,488
820.849915,482
820.968506,509
821.087097,470
821.205627,482
821.324158,504
821.442749,480
821.561279,492
821.679871,491
821.798401,498
821.916931,486
822.035461,479
822.154053,480
822.272583,475
822.391174,497
822.509583,471
822.628174,475
822.746704,486
822.865234,488
822.983765,472
823.102295,471
823.220825,469
823.339294,483
823.457825,464
823.576355,482
823.694824,470
823.813354,474
823.931885,477
824.050354,489
824.168884,495
824.287354,485
824.405823,486
824.524353,484
824.642822,503
824.761353,484
824.879822,483
824.998291,503
825.116699,468
825.235291,476
825.353699,488
825.472168,477
825.590637,475
825.709106,481
825.827576,480
825.946045,463
826.064453,463
826.182983,469
826.301392,472
826.4198,471
826.53833,459
826.656738,460
826.775208,465
826.893677,458
827.012024,474
827.130493,466
827.248962,461
827.36731,454
827.485779,457
827.604248,473
827.722595,462
827.841064,449
827.959412,445
828.077942,463
828.196289,452
828.314636,450
828.433105,453
828.551514,468
828.669861,471
828.78833,463
828.906677,455
829.025085,460
829.143433,454
829.261841,456
829.38031,459
829.498657,448
829.617004,465
829.735413,473
829.85376,481
829.972107,449
830.090515,444
830.208862,451
830.327209,455
830.445557,454
830.563904,476
830.682312,455
830.800659,469
830.919006,469
831.037354,476
831.155701,474
831.274048,486
831.392395,465
831.51062,462
831.629028,454
831.747314,459
831.865662,468
831.984009,467
832.102356,445
832.220642,449
832.338928,470
832.457275,463
832.575623,465
832.693909,461
832.812134,453
832.930481,469
833.048828,467
833.167114,482
833.2854,465
833.403687,459
833.521973,467
833.640259,492
833.758545,472
833.876831,470
833.995056,462
834.113281,485
834.231628,459
834.349915,473
834.468201,438
834.586426,467
834.704651,466
834.822998,458
834.941162,474
835.059448,468
835.177673,457
835.295959,465
835.414246,473
835.53241,486
835.650635,465
835.768921,462
835.887146,464
836.005371,463
836.123596,466
836.241821,479
836.360046,466
836.478271,463
836.596497,467
836.714722,471
836.832886,464
836.95105,473
837.069336,476
837.1875,473
837.305725,468
837.423889,483
837.542053,469
837.660339,475
837.778503,461
837.896667,454
838.014832,485
838.132996,468
838.25116,470
838.369385,474
838.487488,475
838.605713,474
838.723877,453
838.84198,483
838.960205,461
839.078308,463
839.196472,455
839.314636,453
839.4328,482
839.550964,481
839.669067,482
839.787231,452
839.905396,465
840.023499,462
840.141602,477
840.259766,468
840.377869,470
840.495972,477
840.614136,467
840.732239,471
840.850342,465
840.968445,496
841.086548,459
841.204651,470
841.322754,471
841.440918,467
841.55896,486
841.677002,468
841.795166,458
841.913208,463
842.031311,461
842.149353,467
842.267456,471
842.385498,468
842.503601,460
842.621643,461
842.739746,464
842.857788,472
842.97583,471
843.093933,464
843.211975,437
843.330017,459
843.44812,449
843.566101,431
843.684204,468
843.802246,449
843.920227,460
844.038269,472
844.156311,455
844.274292,464
844.392395,450
844.510376,478
844.628357,458
844.74646,471
844.864441,448
844.982422,456
845.100403,454
845.218384,451
845.336426,472
845.454468,451
845.572449,459
845.69043,452
845.808411,464
845.926453,465
846.044373,455
846.162354,450
846.280396,454
846.398315,453
846.516296,462
846.634216,439
846.752197,466
846.870178,448
846.988098,471
847.106079,463
847.22406,463
847.34198,473
847.4599,451
847.577881,453
847.695801,470
847.813782,478
847.931641,455
848.049561,464
848.167603,465
848.285461,465
848.403381,462
848.521362,453
848.639221,449
848.75708,442
848.875,453
848.99292,451
849.110901,459
849.22876,447
849.34668,441
849.464539,453
849.582458,444
849.700317,464
849.818176,442
849.936096,459
850.053955,459
850.171875,448
850.289673,447
850.407593,461
850.525452,457
850.643311,457
850.761169,461
850.878967,470
850.996887,442
851.114746,449
851.232544,465
851.350403,460
851.468262,452
851.58606,456
851.703979,454
851.821777,461
851.939636,452
852.057434,473
852.175232,455
852.293091,473
852.410889,468
852.528687,452
852.646545,455
852.764343,453
852.88208,462
852.999939,449
853.117676,479
853.235535,465
853.353271,463
853.471069,465
853.588928,450
853.706604,469
853.824402,457
853.9422,460
854.059998,453
854.177734,461
854.295532,451
854.413269,449
854.531006,455
854.648804,458
854.766541,455
854.884277,456
855.002014,457
855.119751,466
855.237549,452
855.355225,473
855.473022,453
855.590698,463
855.708435,477
855.826172,467
855.943848,456
856.061646,473
856.179321,465
856.296997,470
856.414795,480
856.53241,468
856.650085,470
856.767822,463
856.885559,457
857.003174,463
857.120911,462
857.238586,478
857.356201,473
857.473938,469
857.591614,455
857.709351,472
857.826965,475
857.944641,455
858.062317,458
858.179993,476
858.297668,475
858.415283,465
858.532959,460
858.650574,460
858.768188,463
858.885803,459
859.003479,467
859.121094,483
859.23877,458
859.356384,458
859.473999,481
859.591675,467
859.709229,468
859.826843,469
859.944458,443
860.062012,472
860.179626,450
860.297302,448
860.414856,473
860.532471,466
860.650024,463
860.767639,444
860.885193,461
861.002808,449
861.120361,457
861.237976,464
861.35553,437
861.473022,451
861.590698,465
861.708191,469
861.825745,467
861.943298,444
862.060852,469
862.178406,468
862.295959,461
862.413513,457
862.531006,458
862.64856,453
862.766113,476
862.883667,456
863.00116,462
863.118713,462
863.236206,461
863.353699,449
863.471252,464
863.588745,483
863.706177,448
863.82373,460
863.941162,458
864.058716,454
864.176208,447
864.29364,467
864.411194,442
864.528687,465
864.646118,449
864.763611,458
864.881042,459
864.998535,447
865.116028,432
865.233459,468
865.350891,449
865.468384,464
865.585754,467
865.703308,458
865.820679,458
865.938171,454
866.055542,460
866.173035,465
866.290466,463
866.407837,482
866.52533,457
866.6427,473
866.760071,455
866.877563,460
866.994934,462
867.112305,459
867.229736,446
867.347107,467
867.464539,456
867.58197,447
867.699341,455
867.81665,463
867.934082,441
868.051453,470
868.168823,475
868.286194,463
868.403564,456
868.520935,450
868.638306,465
868.755676,462
868.872986,464
868.990295,459
869.107727,467
869.225037,450
869.342346,466
869.459717,462
869.577026,449
869.694336,463
869.811707,464
869.929016,476
870.046326,456
870.163635,465
870.280945,450
870.398254,479
870.515564,455
870.632812,456
870.750183,467
870.867432,474
870.984741,482
871.102051,445
871.219299,469
871.336609,474
871.453918,466
871.571106,474
871.688416,461
871.805664,488
871.922852,472
872.040222,470
872.157471,458
872.274719,481
872.391968,449
872.509155,471
872.626465,470
872.743652,475
872.860962,457
872.978149,471
873.095337,446
873.212646,465
873.329834,484
873.44696,470
873.564209,455
873.681396,454
873.798645,468
873.915894,465
874.03302,442
874.150208,476
874.267456,471
874.384583,471
874.501831,455
874.618958,465
874.736145,470
874.853333,465
874.970459,465
875.087646,499
875.204834,463
875.32196,488
875.439148,474
875.556274,471
875.673401,463
875.790527,452
875.907715,477
876.024841,471
876.141968,461
876.259094,472
876.376282,467
876.493347,454
876.610474,467
876.7276,454
876.844727,459
876.961853,470
877.078918,463
877.195984,469
877.313171,458
877.430237,476
877.547302,453
877.664368,470
877.781433,462
877.898499,469
878.015625,455
878.13269,447
878.249695,459
878.366821,463
878.483887,457
878.600952,475
878.717957,463
878.834961,478
878.952087,456
879.069092,456
879.186157,448
879.303162,443
879.420227,433
879.537231,467
879.654236,456
879.77124,470
879.888306,455
880.005249,460
880.122314,449
880.239319,473
880.356323,455
880.473328,451
880.590271,441
880.707275,468
880.824341,479
880.941284,455
881.058228,471
881.175232,447
881.292236,468
881.40918,467
881.526123,454
881.643066,461
881.760071,471
881.877014,477
881.993958,483
882.11084,479
882.227783,444
882.344727,478
882.46167,449
882.578613,470
882.695618,449
882.812439,459
882.929382,461
883.046326,439
883.163208,463
883.280151,464
883.397034,466
883.513916,465
883.630798,477
883.747742,464
883.864563,462
883.981506,476
884.098389,484
884.21521,447
884.332153,454
884.448975,477
884.565796,472
884.682678,481
884.7995,462
884.916443,457
885.033264,472
885.150085,471
885.266968,470
885.383789,469
885.500671,488
885.617493,484
885.734314,497
885.851196,494
885.967896,475
886.084717,477
886.201599,492
886.318359,472
886.435181,478
886.552002,495
886.668762,465
886.785645,459
886.902344,478
887.019165,471
887.135925,466
887.252747,461
887.369446,480
887.486267,451
887.603027,464
887.719788,460
887.836548,485
887.953247,489
888.070068,471
888.186829,457
888.303528,440
888.420288,462
888.536987,471
888.653687,461
888.770447,468
888.887146,457
889.003967,459
889.120667,460
889.237305,441
889.354065,464
889.470703,468
889.587463,472
889.704163,467
889.820862,472
889.937561,451
890.054199,457
890.170837,477
890.287598,477
890.404236,456
890.520874,467
890.637634,460
890.754211,455
890.87085,467
890.987549,459
891.104187,472
891.220886,483
891.337463,468
891.454102,464
891.57074,471
891.687378,474
891.804077,468
891.920654,462
892.037231,478
892.15387,469
892.270447,478
892.387085,458
892.503723,458
892.6203,487
892.736877,478
892.853516,477
892.970032,477
893.08667,477
893.203186,462
893.319763,460
893.43634,483
893.552917,469
893.669556,462
893.786011,468
893.902588,449
894.019165,462
894.135681,469
894.252197,461
894.368835,453
894.485291,452
894.601868,483
894.718384,467
894.8349,477
894.951355,473
895.067932,479
895.184448,469
895.300964,477
895.417419,465
895.533936,462
895.650452,481
895.766907,459
895.883423,477
895.999878,474
896.116333,487
896.232849,485
896.349304,481
896.465759,478
896.582214,451
896.698669,473
896.815125,476
896.931641,464
897.048035,466
897.164551,467
897.280884,478
897.397339,445
897.513794,464
897.630249,466
897.746582,452
897.863098,467
897.979431,481
898.095886,456
898.212341,481
898.328674,470
898.445129,471
898.561462,473
898.677795,492
898.794312,474
898.910645,489
899.026978,484
899.143433,469
899.259766,468
899.37616,476
899.492493,461
899.608765,469
899.725159,474
899.841553,482
899.957947,477
900.07428,472
900.190552,485
900.306946,465
900.423157,481
900.53949,454
900.655884,467
900.772156,473
900.888489,477
901.004822,482
901.121033,485
901.237366,463
901.353699,453
901.46991,489
901.586304,477
901.702515,489
901.818787,472
901.93512,461
902.051331,472
902.167603,490
902.283875,485
902.400085,487
902.516418,470
902.632629,480
902.74884,476
902.865112,488
902.981384,472
903.097595,474
903.213867,499
903.330017,479
903.446289,485
903.5625,465
903.67865,492
903.794922,469
903.911072,480
904.027344,478
904.143494,472
904.259705,493
904.375916,476
904.492065,481
904.608215,486
904.724426,471
904.840576,477
904.956726,478
905.072876,472
905.189087,469
905.305176,471
905.421387,486
905.537537,472
905.653687,491
905.769775,478
905.885925,473
906.002014,498
906.118164,457
906.234314,486
906.350403,486
906.466492,477
906.582642,492
906.69873,467
906.814758,456
906.930908,476
907.046936,470
907.163086,492
907.279175,469
907.395264,465
907.511353,476
907.62738,486
907.743408,478
907.859497,477
907.975525,507
908.091553,474
908.207703,487
908.32373,488
908.439758,467
908.555786,482
908.671814,473
908.787842,477
908.90387,478
909.019775,485
909.135864,495
909.251892,462
909.367859,473
909.483826,497
909.599854,469
909.715881,468
909.831848,482
909.947815,463
910.063782,491
910.179749,473
910.295776,472
910.411743,498
910.527649,477
910.643616,467
910.759583,480
910.875488,453
910.991455,478
911.107361,463
911.223267,457
911.339294,474
911.4552,490
911.571106,473
911.687073,489
911.802979,460
911.918823,464
912.034729,478
912.150635,472
912.266602,458
912.382446,480
912.498352,474
912.614197,499
912.730103,472
912.846008,464
792.44574,633
792.56488,649
792.68396,707
792.80304,692
792.92218,638
793.041199,640
793.160339,609
793.279419,629
793.398499,617
793.517578,614
793.636658,626
793.755737,612
793.874817,625
793.993896,628
794.112976,601
794.232056,598
794.351074,619
794.470215,603
794.589233,609
794.708313,602
794.827393,588
794.946411,592
795.065552,625
795.18457,575
795.303589,589
795.422668,577
795.541687,583
795.660767,589
795.779846,561
795.898865,564
796.017883,580
796.136963,594
796.255981,549
796.375061,573
796.49408,578
796.613037,540
796.732117,569
796.851135,591
796.970154,565
797.089233,588
797.208191,556
797.327271,583
797.446228,590
797.565186,558
797.684265,560
797.803223,572
797.922241,590
798.04126,557
798.160278,567
798.279297,566
798.398315,570
798.517273,552
798.636292,577
798.75531,550
798.874268,595
798.993286,578
799.112244,564
799.231323,560
799.350281,583
799.469238,569
799.588257,565
799.707153,571
799.826111,544
799.945129,572
800.064087,572
800.183044,562
800.302063,558
800.421021,567
800.539978,565
800.658936,554
800.777893,589
800.896912,568
801.015747,560
801.134705,561
801.253723,559
801.37262,579
801.491638,567
801.610535,574
801.729492,561
801.84845,555
801.967407,547
802.086243,548
802.205261,576
802.324158,568
802.443115,559
802.562073,562
802.680969,570
802.799927,542
802.918762,579
803.037659,547
803.156677,545
803.275574,569
803.39447,563
803.513428,557
803.632263,574
803.751221,572
803.870117,560
803.989014,561
804.107971,588
804.226746,555
804.345642,568
804.4646,553
804.583496,556
804.702393,577
804.821228,544
804.940125,567
805.059021,557
805.177917,572
805.296814,550
805.415649,587
805.534546,591
805.653442,565
805.772278,553
805.891113,572
806.01001,577
806.128906,586
806.247742,561
806.366577,574
806.485413,560
806.604309,577
806.723145,568
806.84198,560
806.960876,573
807.079712,563
807.198486,595
807.317383,588
807.436218,562
807.554993,568
807.673889,583
807.792725,594
807.91156,567
808.030396,582
808.14917,567
808.268005,574
808.386841,568
808.505676,603
808.624451,579
808.743286,603
808.862122,589
808.980896,573
809.099731,589
809.218506,561
809.337341,582
809.456116,614
809.57489,573
809.693726,590
809.8125,575
809.931274,595
810.050049,596
810.168884,597
810.287659,584
810.406372,573
810.525269,597
810.643982,585
810.762756,580
810.881531,592
811.000305,587
811.11908,577
811.237854,575
811.356567,575
811.475403,593
811.594116,588
811.71283,602
811.831604,559
811.950378,565
812.069153,588
812.187927,600
812.30658,589
812.425415,580
812.544128,590
812.662781,583
812.781616,569
812.900269,592
813.019043,585
813.137756,589
813.256531,584
813.375244,584
813.493896,613
813.612671,587
813.731384,582
813.850037,596
813.96875,589
814.087524,561
814.206238,581
814.324951,579
814.443604,583
814.562256,585
814.68103,594
814.799683,585
814.918335,574
815.037109,567
815.155762,572
815.274475,574
815.393188,602
815.511841,567
815.630554,563
815.749146,574
815.867859,580
815.986572,578
816.105164,557
816.223877,571
816.342529,574
816.461182,598
816.579895,595
816.698486,577
816.817139,579
816.935791,573
817.054504,565
817.173096,588
817.291748,549
817.4104,552
817.529053,542
817.647644,545
817.766235,561
817.884949,549
818.00354,522
818.122192,526
818.240845,545
818.359436,523
818.478088,516
818.59668,520
818.715271,485
818.833923,511
818.952515,517
819.071106,490
819.189758,513
819.30835,487
819.426941,495
819.545532,489
819.664124,497
819.782715,486
819.901306,486
820.019897,504
820.138489,491
820.25708,485
820.375671,489
820.494202,504
820.612732,515
820.731384,499
820.849915,486
820.968506,486
821.087097,474
821.205627,501
821.324158,489
821.442749,490
821.561279,487
821.679871,466
821.798401,481
821.916931,485
822.035461,489
822.154053,477
822.272583,477
822.391174,468
822.509583,474
822.628174,482
822.746704,482
822.865234,467
822.983765,460
823.102295,481
823.220825,475
823.339294,474
823.457825,469
823.576355,500
823.694824,464
823.813354,457
823.931885,478
824.050354,475
824.168884,489
824.287354,482
824.405823,471
824.524353,501
824.642822,465
824.761353,494
824.879822,475
824.998291,479
825.116699,503
825.235291,475
825.353699,482
825.472168,480
825.590637,468
825.709106,476
825.827576,455
825.946045,464
826.064453,464
826.182983,462
826.301392,462
826.4198,476
826.53833,475
826.656738,473
826.775208,447
826.893677,468
827.012024,461
827.130493,472
827.248962,465
827.36731,475
827.485779,451
827.604248,454
827.722595,474
827.841064,472
827.959412,462
828.077942,465
828.196289,447
828.314636,457
828.433105,486
828.551514,456
828.669861,449
828.78833,448
828.906677,465
829.025085,474
829.143433,463
829.261841,451
829.38031,446
829.498657,449
829.617004,447
829.735413,464
829.85376,458
829.972107,453
830.090515,454
830.208862,453
830.327209,449
830.445557,457
830.563904,477
830.682312,450
830.800659,459
830.919006,452
831.037354,456
831.155701,458
831.274048,471
831.392395,444
831.51062,448
831.629028,471
831.747314,454
831.865662,443
831.984009,466
832.102356,450
832.220642,461
832.338928,462
832.457275,478
832.575623,461
832.693909,461
832.812134,461
832.930481,464
833.048828,468
833.167114,455
833.2854,449
833.403687,469
833.521973,453
833.640259,462
833.758545,457
833.876831,452
833.995056,462
834.113281,464
834.231628,455
834.349915,484
834.468201,471
834.586426,458
834.704651,446
834.822998,453
834.941162,465
835.059448,460
835.177673,467
835.295959,442
835.414246,466
835.53241,454
835.650635,452
835.768921,463
835.887146,464
836.005371,458
836.123596,460
836.241821,462
836.360046,473
836.478271,468
836.596497,471
836.714722,462
836.832886,456
836.95105,473
837.069336,474
837.1875,470
837.305725,471
837.423889,448
837.542053,473
837.660339,463
837.778503,466
837.896667,482
838.014832,460
838.132996,491
838.25116,456
838.369385,466
838.487488,469
838.605713,463
838.723877,472
838.84198,480
838.960205,469
839.078308,488
839.196472,474
839.314636,475
839.4328,472
839.550964,464
839.669067,475
839.787231,464
839.905396,466
840.023499,458
840.141602,468
840.259766,465
840.377869,474
840.495972,471
840.614136,455
840.732239,479
840.850342,465
840.968445,442
841.086548,484
841.204651,474
841.322754,477
841.440918,452
841.55896,452
841.677002,476
841.795166,466
841.913208,466
842.031311,460
842.149353,465
842.267456,469
842.385498,443
842.503601,467
842.621643,462
842.739746,465
842.857788,466
842.97583,457
843.093933,464
843.211975,471
843.330017,462
843.44812,480
843.566101,445
843.684204,458
843.802246,459
843.920227,448
844.038269,475
844.156311,459
844.274292,459
844.392395,463
844.510376,444
844.628357,466
844.74646,445
844.864441,463
844.982422,456
845.100403,464
845.218384,466
845.336426,443
845.454468,447
845.572449,463
845.69043,464
845.808411,466
845.926453,463
846.044373,447
846.162354,462
846.280396,466
846.398315,440
846.516296,438
846.634216,476
846.752197,468
846.870178,462
846.988098,428
847.106079,458
847.22406,435
847.34198,477
847.4599,453
847.577881,464
847.695801,431
847.813782,465
847.931641,443
848.049561,439
848.167603,454
848.285461,447
848.403381,461
848.521362,433
848.639221,446
848.75708,474
848.875,477
848.99292,465
849.110901,477
849.22876,449
849.34668,454
849.464539,476
849.582458,470
849.700317,466
849.818176,453
849.936096,470
850.053955,462
850.171875,474
850.289673,427
850.407593,459
850.525452,467
850.643311,460
850.761169,450
850.878967,450
850.996887,451
851.114746,451
851.232544,449
851.350403,456
851.468262,447
851.58606,472
851.703979,456
851.821777,460
851.939636,462
852.057434,473
852.175232,453
852.293091,465
852.410889,455
852.528687,470
852.646545,451
852.764343,446
852.88208,463
852.999939,470
853.117676,457
853.235535,463
853.353271,440
853.471069,451
853.588928,467
853.706604,464
853.824402,450
853.9422,438
854.059998,451
854.177734,456
854.295532,457
854.413269,453
854.531006,467
854.648804,466
854.766541,455
854.884277,479
855.002014,461
855.119751,460
855.237549,467
855.355225,457
855.473022,456
855.590698,465
855.708435,457
855.826172,461
855.943848,457
856.061646,452
856.179321,454
856.296997,452
856.414795,456
856.53241,463
856.650085,464
856.767822,469
856.885559,462
857.003174,472
857.120911,463
857.238586,473
857.356201,453
857.473938,462
857.591614,468
857.709351,462
857.826965,456
857.944641,477
858.062317,466
858.179993,452
858.297668,467
858.415283,461
858.532959,465
858.650574,466
858.768188,449
858.885803,466
859.003479,469
859.121094,458
859.23877,458
859.356384,460
859.473999,459
859.591675,454
859.709229,462
859.826843,451
859.944458,455
860.062012,468
860.179626,464
860.297302,466
860.414856,448
860.532471,448
860.650024,465
860.767639,465
860.885193,440
861.002808,453
861.120361,459
861.237976,441
861.35553,470
861.473022,463
861.590698,453
861.708191,492
861.825745,453
861.943298,463
862.060852,466
862.178406,446
862.295959,462
862.413513,452
862.531006,463
862.64856,455
862.766113,457
862.883667,462
863.00116,466
863.118713,483
863.236206,443
863.353699,458
863.471252,447
863.588745,450
863.706177,460
863.82373,459
863.941162,453
864.058716,451
864.176208,466
864.29364,460
864.411194,469
864.528687,432
864.646118,452
864.763611,460
864.881042,447
864.998535,461
865.116028,456
865.233459,469
865.350891,454
865.468384,463
865.585754,460
865.703308,461
865.820679,455
865.938171,470
866.055542,456
866.173035,450
866.290466,452
866.407837,457
866.52533,462
866.6427,461
866.760071,471
866.877563,462
866.994934,459
867.112305,456
867.229736,458
867.347107,475
867.464539,449
867.58197,462
867.699341,469
867.81665,466
867.934082,482
868.051453,482
868.168823,476
868.286194,451
868.403564,457
868.520935,466
868.638306,458
868.755676,469
868.872986,467
868.990295,467
869.107727,456
869.225037,470
869.342346,476
869.459717,476
869.577026,451
869.694336,462
869.811707,467
869.929016,472
870.046326,440
870.163635,459
870.280945,481
870.398254,470
870.515564,453
870.632812,461
870.750183,451
870.867432,459
870.984741,451
871.102051,472
871.219299,480
871.336609,478
871.453918,465
871.571106,461
871.688416,472
871.805664,468
871.922852,453
872.040222,471
872.157471,463
872.274719,474
872.391968,452
872.509155,469
872.626465,464
872.743652,470
872.860962,480
872.978149,454
873.095337,448
873.212646,471
873.329834,447
873.44696,461
873.564209,462
873.681396,469
873.798645,479
873.915894,484
874.03302,458
874.150208,455
874.267456,468
874.384583,471
874.501831,456
874.618958,454
874.736145,488
874.853333,481
874.970459,479
875.087646,487
875.204834,474
875.32196,460
875.439148,454
875.556274,463
875.673401,454
875.790527,448
875.907715,478
876.024841,458
876.141968,456
876.259094,469
876.376282,458
876.493347,479
876.610474,483
876.7276,470
876.844727,430
876.961853,455
877.078918,473
877.195984,464
877.313171,465
877.430237,457
877.547302,445
877.664368,458
877.781433,446
877.898499,462
878.015625,477
878.13269,471
878.249695,461
878.366821,478
878.483887,460
878.600952,457
878.717957,447
878.834961,455
878.952087,485
879.069092,467
879.186157,468
879.303162,448
879.420227,462
879.537231,452
879.654236,454
879.77124,447
879.888306,461
880.005249,466
880.122314,451
880.239319,450
880.356323,459
880.473328,455
880.590271,475
880.707275,458
880.824341,438
880.941284,478
881.058228,467
881.175232,477
881.292236,449
881.40918,469
881.526123,454
881.643066,449
881.760071,477
881.877014,466
881.993958,490
882.11084,462
882.227783,460
882.344727,458
882.46167,475
882.578613,450
882.695618,471
882.812439,448
882.929382,458
883.046326,477
883.163208,474
883.280151,455
883.397034,457
883.513916,461
883.630798,466
883.747742,458
883.864563,441
883.981506,459
884.098389,450
884.21521,470
884.332153,469
884.448975,462
884.565796,464
884.682678,461
884.7995,486
884.916443,472
885.033264,473
885.150085,484
885.266968,459
885.383789,492
885.500671,493
885.617493,481
885.734314,489
885.851196,472
885.967896,458
886.084717,476
886.201599,478
886.318359,482
886.435181,456
886.552002,485
886.668762,477
886.785645,475
886.902344,464
887.019165,447
887.135925,479
887.252747,496
887.369446,492
887.486267,468
887.603027,464
887.719788,478
887.836548,469
887.953247,469
888.070068,471
888.186829,471
888.303528,460
888.420288,458
888.536987,474
888.653687,465
888.770447,455
888.887146,474
889.003967,458
889.120667,470
889.237305,463
889.354065,463
889.470703,483
889.587463,448
889.704163,469
889.820862,470
889.937561,444
890.054199,471
890.170837,463
890.287598,443
890.404236,452
890.520874,480
890.637634,467
890.754211,482
890.87085,461
890.987549,476
891.104187,447
891.220886,497
891.337463,476
891.454102,457
891.57074,474
891.687378,465
891.804077,471
891.920654,464
892.037231,469
892.15387,449
892.270447,467
892.387085,451
892.503723,469
892.6203,460
892.736877,464
892.853516,464
892.970032,480
893.08667,475
893.203186,471
893.319763,454
893.43634,446
893.552917,478
893.669556,454
893.786011,484
893.902588,473
894.019165,477
894.135681,497
894.252197,466
894.368835,475
894.485291,472
894.601868,477
894.718384,477
894.8349,443
894.951355,455
895.067932,467
895.184448,455
895.300964,472
895.417419,466
895.533936,454
895.650452,464
895.766907,442
895.883423,469
895.999878,487
896.116333,466
896.232849,469
896.349304,464
896.465759,450
896.582214,479
896.698669,466
896.815125,455
896.931641,473
897.048035,469
897.164551,448
897.280884,453
897.397339,479
897.513794,479
897.630249,474
897.746582,473
897.863098,475
897.979431,471
898.095886,468
898.212341,471
898.328674,473
898.445129,489
898.561462,460
898.677795,482
898.794312,474
898.910645,472
899.026978,459
899.143433,453
899.259766,464
899.37616,483
899.492493,489
899.608765,454
899.725159,452
899.841553,462
899.957947,478
900.07428,449
900.190552,480
900.306946,469
900.423157,472
900.53949,461
900.655884,462
900.772156,478
900.888489,488
901.004822,474
901.121033,458
901.237366,468
901.353699,475
901.46991,482
901.586304,479
901.702515,489
901.818787,469
901.93512,459
902.051331,471
902.167603,483
902.283875,483
902.400085,481
902.516418,480
902.632629,491
902.74884,461
902.865112,482
902.981384,497
903.097595,475
903.213867,480
903.330017,482
903.446289,467
903.5625,451
903.67865,488
903.794922,493
903.911072,485
904.027344,455
904.143494,474
904.259705,493
904.375916,460
904.492065,469
904.608215,466
904.724426,464
904.840576,470
904.956726,467
905.072876,448
905.189087,489
905.305176,459
905.421387,474
905.537537,481
905.653687,474
905.769775,465
905.885925,484
906.002014,476
906.118164,489
906.234314,452
906.350403,481
906.466492,470
906.582642,493
906.69873,477
906.814758,488
906.930908,474
907.046936,480
907.163086,465
907.279175,462
907.395264,488
907.511353,495
907.62738,476
907.743408,490
907.859497,473
907.975525,466
908.091553,457
908.207703,476
908.32373,447
908.439758,484
908.555786,465
908.671814,466
908.787842,490
908.90387,469
909.019775,479
909.135864,481
909.251892,486
909.367859,463
909.483826,465
909.599854,466
909.715881,494
909.831848,480
909.947815,473
910.063782,471
910.179749,481
910.295776,468
910.411743,481
910.527649,498
910.643616,464
910.759583,477
910.875488,469
910.991455,481
911.107361,475
911.223267,482
911.339294,470
911.4552,486
911.571106,480
911.687073,481
911.802979,462
911.918823,481
912.034729,491
912.150635,481
912.266602,475
912.382446,472
912.498352,480
912.614197,480
912.730103,472
912.846008,485
