792.44574,586
792.56488,606
792.68396,672
792.80304,657
792.92218,604
793.041199,582
793.160339,588
793.279419,584
793.398499,604
793.517578,556
793.636658,580
793.755737,604
793.874817,607
793.993896,611
794.112976,600
794.232056,577
794.351074,591
794.470215,588
794.589233,566
794.708313,571
794.827393,569
794.946411,568
795.065552,585
795.18457,573
795.303589,590
795.422668,584
795.541687,565
795.660767,562
795.779846,581
795.898865,558
796.017883,568
796.136963,580
796.255981,579
796.375061,551
796.49408,577
796.613037,567
796.732117,576
796.851135,544
796.970154,578
797.089233,577
797.208191,571
797.327271,563
797.446228,573
797.565186,572
797.684265,561
797.803223,564
797.922241,551
798.04126,576
798.160278,546
798.279297,577
798.398315,536
798.517273,563
798.636292,577
798.75531,573
798.874268,567
798.993286,570
799.112244,557
799.231323,549
799.350281,582
799.469238,546
799.588257,565
799.707153,567
799.826111,567
799.945129,555
800.064087,556
800.183044,549
800.302063,553
800.421021,554
800.539978,559
800.658936,568
800.777893,558
800.896912,566
801.015747,559
801.134705,567
801.253723,579
801.37262,568
801.491638,556
801.610535,558
801.729492,558
801.84845,531
801.967407,554
802.086243,570
802.205261,578
802.324158,554
802.443115,573
802.562073,555
802.680969,587
802.799927,575
802.918762,557
803.037659,574
803.156677,575
803.275574,567
803.39447,567
803.513428,579
803.632263,588
803.751221,580
803.870117,563
803.989014,572
804.107971,569
804.226746,588
804.345642,591
804.4646,564
804.583496,581
804.702393,575
804.821228,605
804.940125,581
805.059021,588
805.177917,585
805.296814,572
805.415649,575
805.534546,601
805.653442,567
805.772278,620
805.891113,581
806.01001,601
806.128906,589
806.247742,596
806.366577,590
806.485413,594
806.604309,578
806.723145,576
806.84198,589
806.960876,584
807.079712,566
807.198486,603
807.317383,577
807.436218,596
807.554993,604
807.673889,589
807.792725,597
807.91156,595
808.030396,585
808.14917,583
808.268005,590
808.386841,584
808.505676,603
808.624451,589
808.743286,568
808.862122,585
808.980896,604
809.099731,583
809.218506,593
809.337341,601
809.456116,580
809.57489,601
809.693726,595
809.8125,593
809.931274,581
810.050049,604
810.168884,612
810.287659,603
810.406372,624
810.525269,607
810.643982,624
810.762756,587
810.881531,599
811.000305,617
811.11908,627
811.237854,595
811.356567,586
811.475403,597
811.594116,580
811.71283,591
811.831604,598
811.950378,623
812.069153,598
812.187927,610
812.30658,592
812.425415,605
812.544128,612
812.662781,577
812.781616,592
812.900269,606
813.019043,612
813.137756,599
813.256531,601
813.375244,605
813.493896,584
813.612671,593
813.731384,614
813.850037,597
813.96875,580
814.087524,616
814.206238,630
814.324951,604
814.443604,581
814.562256,607
814.68103,602
814.799683,601
814.918335,586
815.037109,601
815.155762,577
815.274475,597
815.393188,562
815.511841,584
815.630554,575
815.749146,583
815.867859,569
815.986572,579
816.105164,600
816.223877,566
816.342529,571
816.461182,593
816.579895,575
816.698486,588
816.817139,592
816.935791,595
817.054504,607
817.173096,590
817.291748,581
817.4104,591
817.529053,583
817.647644,570
817.766235,556
817.884949,557
818.00354,541
818.122192,538
818.240845,536
818.359436,520
818.478088,552
818.59668,524
818.715271,523
818.833923,535
818.952515,531
819.071106,536
819.189758,517
819.30835,489
819.426941,527
819.545532,529
819.664124,500
819.782715,498
819.901306,482
820.019897,514
820.138489,504
820.25708,485
820.375671,491
820.494202,487
820.612732,469
820.731384,496
820.849915,498
820.968506,512
821.087097,488
821.205627,492
821.324158,475
821.442749,478
821.561279,494
821.679871,481
821.798401,482
821.916931,498
822.035461,472
822.154053,492
822.272583,458
822.391174,485
822.509583,483
822.628174,485
822.746704,474
822.865234,471
822.983765,467
823.102295,495
823.220825,475
823.339294,477
823.457825,465
823.576355,478
823.694824,447
823.813354,495
823.931885,464
824.050354,478
824.168884,494
824.287354,484
824.405823,485
824.524353,485
824.642822,460
824.761353,506
824.879822,465
824.998291,475
825.116699,505
825.235291,479
825.353699,471
825.472168,465
825.590637,457
825.709106,469
825.827576,478
825.946045,469
826.064453,480
826.182983,466
826.301392,474
826.4198,470
826.53833,463
826.656738,467
826.775208,467
826.893677,465
827.012024,455
827.130493,456
827.248962,458
827.36731,460
827.485779,463
827.604248,481
827.722595,462
827.841064,457
827.959412,451
828.077942,438
828.196289,471
828.314636,468
828.433105,472
828.551514,457
828.669861,443
828.78833,440
828.906677,453
829.025085,446
829.143433,460
829.261841,467
829.38031,442
829.498657,460
829.617004,452
829.735413,451
829.85376,462
829.972107,480
830.090515,475
830.208862,457
830.327209,444
830.445557,465
830.563904,456
830.682312,466
830.800659,456
830.919006,456
831.037354,452
831.155701,465
831.274048,448
831.392395,465
831.51062,464
831.629028,461
831.747314,455
831.865662,456
831.984009,459
832.102356,481
832.220642,446
832.338928,464
832.457275,463
832.575623,446
832.693909,461
832.812134,471
832.930481,459
833.048828,450
833.167114,452
833.2854,447
833.403687,454
833.521973,455
833.640259,454
833.758545,468
833.876831,451
833.995056,467
834.113281,452
834.231628,468
834.349915,450
834.468201,461
834.586426,477
834.704651,480
834.822998,472
834.941162,458
835.059448,467
835.177673,451
835.295959,446
835.414246,463
835.53241,465
835.650635,448
835.768921,455
835.887146,465
836.005371,477
836.123596,481
836.241821,473
836.360046,453
836.478271,469
836.596497,467
836.714722,479
836.832886,474
836.95105,474
837.069336,487
837.1875,477
837.305725,473
837.423889,468
837.542053,464
837.660339,466
837.778503,467
837.896667,493
838.014832,477
838.132996,478
838.25116,478
838.369385,476
838.487488,498
838.605713,465
838.723877,473
838.84198,471
838.960205,474
839.078308,465
839.196472,482
839.314636,479
839.4328,481
839.550964,481
839.669067,453
839.787231,460
839.905396,471
840.023499,467
840.141602,453
840.259766,455
840.377869,466
840.495972,468
840.614136,451
840.732239,472
840.850342,473
840.968445,466
841.086548,453
841.204651,470
841.322754,460
841.440918,432
841.55896,491
841.677002,458
841.795166,457
841.913208,463
842.031311,475
842.149353,468
842.267456,451
842.385498,449
842.503601,465
842.621643,459
842.739746,451
842.857788,444
842.97583,459
843.093933,457
843.211975,446
843.330017,445
843.44812,440
843.566101,471
843.684204,454
843.802246,454
843.920227,452
844.038269,445
844.156311,473
844.274292,450
844.392395,438
844.510376,449
844.628357,455
844.74646,424
844.864441,446
844.982422,444
845.100403,456
845.218384,451
845.336426,449
845.454468,450
845.572449,457
845.69043,452
845.808411,448
845.926453,464
846.044373,441
846.162354,449
846.280396,461
846.398315,452
846.516296,458
846.634216,427
846.752197,477
846.870178,450
846.988098,441
847.106079,436
847.22406,447
847.34198,440
847.4599,474
847.577881,446
847.695801,445
847.813782,447
847.931641,444
848.049561,446
848.167603,470
848.285461,442
848.403381,458
848.521362,455
848.639221,460
848.75708,451
848.875,440
848.99292,443
849.110901,442
849.22876,452
849.34668,433
849.464539,454
849.582458,453
849.700317,468
849.818176,459
849.936096,448
850.053955,461
850.171875,457
850.289673,462
850.407593,446
850.525452,442
850.643311,450
850.761169,447
850.878967,466
850.996887,460
851.114746,453
851.232544,437
851.350403,452
851.468262,468
851.58606,436
851.703979,465
851.821777,453
851.939636,471
852.057434,445
852.175232,469
852.293091,441
852.410889,456
852.528687,436
852.646545,440
852.764343,450
852.88208,457
852.999939,442
853.117676,437
853.235535,464
853.353271,457
853.471069,475
853.588928,448
853.706604,447
853.824402,473
853.9422,457
854.059998,461
854.177734,453
854.295532,452
854.413269,462
854.531006,454
854.648804,478
854.766541,457
854.884277,453
855.002014,452
855.119751,465
855.237549,457
855.355225,462
855.473022,471
855.590698,453
855.708435,455
855.826172,448
855.943848,471
856.061646,442
856.179321,440
856.296997,460
856.414795,455
856.53241,463
856.650085,463
856.767822,443
856.885559,471
857.003174,445
857.120911,457
857.238586,458
857.356201,463
857.473938,438
857.591614,458
857.709351,473
857.826965,460
857.944641,456
858.062317,457
858.179993,446
858.297668,459
858.415283,460
858.532959,455
858.650574,449
858.768188,455
858.885803,465
859.003479,461
859.121094,458
859.23877,461
859.356384,470
859.473999,442
859.591675,453
859.709229,466
859.826843,431
859.944458,471
860.062012,457
860.179626,455
860.297302,458
860.414856,467
860.532471,460
860.650024,452
860.767639,465
860.885193,461
861.002808,470
861.120361,473
861.237976,436
861.35553,459
861.473022,461
861.590698,480
861.708191,447
861.825745,458
861.943298,462
862.060852,455
862.178406,444
862.295959,454
862.413513,445
862.531006,451
862.64856,448
862.766113,451
862.883667,428
863.00116,446
863.118713,453
863.236206,466
863.353699,451
863.471252,457
863.588745,457
863.706177,454
863.82373,436
863.941162,464
864.058716,459
864.176208,460
864.29364,452
864.411194,464
864.528687,464
864.646118,487
864.763611,455
864.881042,452
864.998535,451
865.116028,478
865.233459,467
865.350891,449
865.468384,444
865.585754,444
865.703308,445
865.820679,447
865.938171,456
866.055542,464
866.173035,449
866.290466,469
866.407837,466
866.52533,472
866.6427,450
866.760071,462
866.877563,458
866.994934,464
867.112305,443
867.229736,485
867.347107,470
867.464539,451
867.58197,461
867.699341,467
867.81665,465
867.934082,457
868.051453,459
868.168823,454
868.286194,453
868.403564,470
868.520935,446
868.638306,465
868.755676,451
868.872986,481
868.990295,452
869.107727,472
869.225037,467
869.342346,455
869.459717,468
869.577026,472
869.694336,447
869.811707,486
869.929016,465
870.046326,467
870.163635,459
870.280945,452
870.398254,452
870.515564,466
870.632812,461
870.750183,475
870.867432,472
870.984741,463
871.102051,461
871.219299,456
871.336609,469
871.453918,468
871.571106,467
871.688416,469
871.805664,468
871.922852,457
872.040222,461
872.157471,455
872.274719,464
872.391968,461
872.509155,467
872.626465,457
872.743652,454
872.860962,471
872.978149,461
873.095337,472
873.212646,465
873.329834,469
873.44696,458
873.564209,482
873.681396,448
873.798645,482
873.915894,466
874.03302,469
874.150208,463
874.267456,457
874.384583,451
874.501831,468
874.618958,458
874.736145,465
874.853333,474
874.970459,479
875.087646,472
875.204834,454
875.32196,452
875.439148,453
875.556274,456
875.673401,468
875.790527,455
875.907715,463
876.024841,454
876.141968,470
876.259094,451
876.376282,465
876.493347,452
876.610474,477
876.7276,446
876.844727,458
876.961853,465
877.078918,469
877.195984,463
877.313171,447
877.430237,454
877.547302,467
877.664368,467
877.781433,459
877.898499,439
878.015625,472
878.13269,448
878.249695,472
878.366821,466
878.483887,476
878.600952,448
878.717957,468
878.834961,470
878.952087,477
879.069092,465
879.186157,482
879.303162,475
879.420227,463
879.537231,480
879.654236,458
879.77124,463
879.888306,472
880.005249,455
880.122314,473
880.239319,459
880.356323,452
880.473328,447
880.590271,469
880.707275,458
880.824341,469
880.941284,471
881.058228,451
881.175232,454
881.292236,459
881.40918,458
881.526123,452
881.643066,457
881.760071,478
881.877014,471
881.993958,454
882.11084,451
882.227783,470
882.344727,457
882.46167,470
882.578613,448
882.695618,474
882.812439,457
882.929382,471
883.046326,455
883.163208,474
883.280151,469
883.397034,459
883.513916,437
883.630798,471
883.747742,452
883.864563,484
883.981506,467
884.098389,459
884.21521,487
884.332153,455
884.448975,471
884.565796,472
884.682678,475
884.7995,472
884.916443,470
885.033264,455
885.150085,461
885.266968,469
885.383789,469
885.500671,465
885.617493,456
885.734314,458
885.851196,455
885.967896,463
886.084717,462
886.201599,452
886.318359,501
886.435181,480
886.552002,465
886.668762,478
886.785645,474
886.902344,467
887.019165,456
887.135925,473
887.252747,468
887.369446,472
887.486267,458
887.603027,455
887.719788,483
887.836548,467
887.953247,459
888.070068,479
888.186829,478
888.303528,478
888.420288,461
888.536987,466
888.653687,442
888.770447,454
888.887146,482
889.003967,485
889.120667,478
889.237305,468
889.354065,477
889.470703,467
889.587463,456
889.704163,472
889.820862,463
889.937561,462
890.054199,463
890.170837,451
890.287598,484
890.404236,463
890.520874,470
890.637634,462
890.754211,460
890.87085,481
890.987549,484
891.104187,488
891.220886,453
891.337463,460
891.454102,472
891.57074,473
891.687378,471
891.804077,465
891.920654,462
892.037231,477
892.15387,485
892.270447,464
892.387085,479
892.503723,490
892.6203,479
892.736877,465
892.853516,469
892.970032,458
893.08667,484
893.203186,478
893.319763,466
893.43634,470
893.552917,483
893.669556,471
893.786011,482
893.902588,465
894.019165,460
894.135681,486
894.252197,458
894.368835,463
894.485291,477
894.601868,482
894.718384,479
894.8349,493
894.951355,483
895.067932,477
895.184448,457
895.300964,481
895.417419,470
895.533936,482
895.650452,488
895.766907,480
895.883423,459
895.999878,486
896.116333,505
896.232849,479
896.349304,461
896.465759,496
896.582214,465
896.698669,476
896.815125,486
896.931641,476
897.048035,472
897.164551,498
897.280884,470
897.397339,473
897.513794,481
897.630249,479
897.746582,466
897.863098,480
897.979431,478
898.095886,485
898.212341,488
898.328674,485
898.445129,471
898.561462,492
898.677795,473
898.794312,461
898.910645,462
899.026978,488
899.143433,490
899.259766,478
899.37616,478
899.492493,463
899.608765,484
899.725159,483
899.841553,479
899.957947,453
900.07428,462
900.190552,470
900.306946,490
900.423157,465
900.53949,474
900.655884,477
900.772156,487
900.888489,500
901.004822,462
901.121033,499
901.237366,458
901.353699,494
901.46991,480
901.586304,492
901.702515,494
901.818787,474
901.93512,490
902.051331,461
902.167603,471
902.283875,492
902.400085,474
902.516418,482
902.632629,471
902.74884,486
902.865112,481
902.981384,490
903.097595,482
903.213867,490
903.330017,457
903.446289,478
903.5625,473
903.67865,487
903.794922,461
903.911072,479
904.027344,474
904.143494,479
904.259705,503
904.375916,484
904.492065,480
904.608215,492
904.724426,468
904.840576,483
904.956726,492
905.072876,474
905.189087,494
905.305176,478
905.421387,486
905.537537,499
905.653687,475
905.769775,501
905.885925,469
906.002014,494
906.118164,475
906.234314,482
906.350403,468
906.466492,471
906.582642,477
906.69873,468
906.814758,471
906.930908,476
907.046936,467
907.163086,480
907.279175,499
907.395264,468
907.511353,491
907.62738,489
907.743408,484
907.859497,487
907.975525,476
908.091553,496
908.207703,472
908.32373,488
908.439758,488
908.555786,484
908.671814,488
908.787842,495
908.90387,466
909.019775,477
909.135864,470
909.251892,501
909.367859,494
909.483826,483
909.599854,502
909.715881,484
909.831848,485
909.947815,476
910.063782,508
910.179749,479
910.295776,471
910.411743,501
910.527649,482
910.643616,488
910.759583,496
910.875488,480
910.991455,467
911.107361,481
911.223267,484
911.339294,491
911.4552,480
911.571106,506
911.687073,476
911.802979,506
911.918823,472
912.034729,495
912.150635,468
912.266602,478
912.382446,481
912.498352,487
912.614197,472
912.730103,473
912.846008,486
792.44574,593
792.56488,618
792.68396,662
792.80304,658
792.92218,617
793.041199,599
793.160339,600
793.279419,598
793.398499,595
793.517578,583
793.636658,576
793.755737,605
793.874817,625
793.993896,608
794.112976,589
794.232056,581
794.351074,571
794.470215,601
794.589233,595
794.708313,556
794.827393,576
794.946411,556
795.065552,608
795.18457,572
795.303589,596
795.422668,559
795.541687,582
795.660767,574
795.779846,561
795.898865,564
796.017883,564
796.136963,569
796.255981,580
796.375061,582
796.49408,580
796.613037,559
796.732117,576
796.851135,582
796.970154,590
797.089233,568
797.208191,566
797.327271,561
797.446228,552
797.565186,576
797.684265,571
797.803223,563
797.922241,572
798.04126,575
798.160278,565
798.279297,592
798.398315,572
798.517273,553
798.636292,568
798.75531,559
798.874268,573
798.993286,558
799.112244,584
799.231323,570
799.350281,576
799.469238,559
799.588257,568
799.707153,539
799.826111,541
799.945129,544
800.064087,568
800.183044,549
800.302063,575
800.421021,575
800.539978,569
800.658936,572
800.777893,548
800.896912,564
801.015747,605
801.134705,565
801.253723,545
801.37262,555
801.491638,548
801.610535,562
801.729492,559
801.84845,560
801.967407,560
802.086243,549
802.205261,574
802.324158,566
802.443115,581
802.562073,581
802.680969,596
802.799927,585
802.918762,559
803.037659,597
803.156677,583
803.275574,583
803.39447,580
803.513428,556
803.632263,583
803.751221,581
803.870117,591
803.989014,586
804.107971,566
804.226746,575
804.345642,560
804.4646,584
804.583496,580
804.702393,599
804.821228,595
804.940125,581
805.059021,572
805.177917,615
805.296814,590
805.415649,597
805.534546,597
805.653442,590
805.772278,597
805.891113,596
806.01001,588
806.128906,593
806.247742,586
806.366577,601
806.485413,591
806.604309,588
806.723145,566
806.84198,585
806.960876,597
807.079712,618
807.198486,590
807.317383,588
807.436218,578
807.554993,582
807.673889,596
807.792725,594
807.91156,608
808.030396,616
808.14917,599
808.268005,594
808.386841,601
808.505676,600
808.624451,596
808.743286,597
808.862122,613
808.980896,589
809.099731,610
809.218506,581
809.337341,604
809.456116,571
809.57489,588
809.693726,593
809.8125,609
809.931274,613
810.050049,602
810.168884,591
810.287659,601
810.406372,594
810.525269,600
810.643982,583
810.762756,625
810.881531,577
811.000305,617
811.11908,606
811.237854,608
811.356567,610
811.475403,624
811.594116,611
811.71283,598
811.831604,597
811.950378,599
812.069153,620
812.187927,600
812.30658,609
812.425415,583
812.544128,602
812.662781,578
812.781616,598
812.900269,608
813.019043,615
813.137756,607
813.256531,594
813.375244,601
813.493896,611
813.612671,646
813.731384,592
813.850037,597
813.96875,609
814.087524,602
814.206238,612
814.324951,622
814.443604,599
814.562256,604
814.68103,600
814.799683,593
814.918335,610
815.037109,618
815.155762,597
815.274475,614
815.393188,604
815.511841,601
815.630554,593
815.749146,595
815.867859,593
815.986572,593
816.105164,599
816.223877,592
816.342529,574
816.461182,610
816.579895,590
816.698486,601
816.817139,618
816.935791,618
817.054504,582
817.173096,570
817.291748,583
817.4104,594
817.529053,580
817.647644,562
817.766235,565
817.884949,565
818.00354,577
818.122192,549
818.240845,543
818.359436,529
818.478088,520
818.59668,523
818.715271,534
818.833923,515
818.952515,499
819.071106,517
819.189758,496
819.30835,489
819.426941,497
819.545532,506
819.664124,488
819.782715,501
819.901306,490
820.019897,499
820.138489,481
820.25708,482
820.375671,479
820.494202,503
820.612732,485
820.731384,505
820.849915,494
820.968506,485
821.087097,501
821.205627,488
821.324158,499
821.442749,500
821.561279,482
821.679871,503
821.798401,480
821.916931,489
822.035461,476
822.154053,489
822.272583,504
822.391174,487
822.509583,478
822.628174,478
822.746704,469
822.865234,477
822.983765,469
823.102295,477
823.220825,487
823.339294,493
823.457825,468
823.576355,480
823.694824,475
823.813354,497
823.931885,493
824.050354,465
824.168884,479
824.287354,495
824.405823,485
824.524353,492
824.642822,499
824.761353,484
824.879822,486
824.998291,489
825.116699,492
825.235291,486
825.353699,472
825.472168,479
825.590637,468
825.709106,475
825.827576,487
825.946045,458
826.064453,473
826.182983,467
826.301392,476
826.4198,474
826.53833,462
826.656738,460
826.775208,450
826.893677,441
827.012024,471
827.130493,468
827.248962,476
827.36731,472
827.485779,455
827.604248,475
827.722595,475
827.841064,452
827.959412,448
828.077942,465
828.196289,454
828.314636,480
828.433105,461
828.551514,456
828.669861,459
828.78833,458
828.906677,455
829.025085,450
829.143433,461
829.261841,467
829.38031,460
829.498657,457
829.617004,460
829.735413,467
829.85376,443
829.972107,463
830.090515,463
830.208862,468
830.327209,464
830.445557,444
830.563904,459
830.682312,459
830.800659,456
830.919006,449
831.037354,459
831.155701,480
831.274048,447
831.392395,447
831.51062,455
831.629028,449
831.747314,445
831.865662,472
831.984009,483
832.102356,454
832.220642,438
832.338928,451
832.457275,446
832.575623,462
832.693909,475
832.812134,459
832.930481,452
833.048828,447
833.167114,447
833.2854,471
833.403687,440
833.521973,466
833.640259,450
833.758545,445
833.876831,458
833.995056,476
834.113281,458
834.231628,453
834.349915,459
834.468201,472
834.586426,458
834.704651,453
834.822998,455
834.941162,458
835.059448,463
835.177673,463
835.295959,473
835.414246,474
835.53241,474
835.650635,456
835.768921,468
835.887146,453
836.005371,468
836.123596,463
836.241821,473
836.360046,484
836.478271,460
836.596497,466
836.714722,468
836.832886,488
836.95105,465
837.069336,480
837.1875,465
837.305725,475
837.423889,473
837.542053,487
837.660339,462
837.778503,494
837.896667,481
838.014832,489
838.132996,474
838.25116,495
838.369385,472
838.487488,470
838.605713,462
838.723877,485
838.84198,470
838.960205,464
839.078308,470
839.196472,466
839.314636,471
839.4328,453
839.550964,471
839.669067,487
839.787231,472
839.905396,461
840.023499,463
840.141602,470
840.259766,470
840.377869,472
840.495972,440
840.614136,474
840.732239,470
840.850342,464
840.968445,477
841.086548,465
841.204651,461
841.322754,450
841.440918,473
841.55896,462
841.677002,440
841.795166,475
841.913208,450
842.031311,443
842.149353,474
842.267456,479
842.385498,464
842.503601,463
842.621643,452
842.739746,462
842.857788,453
842.97583,468
843.093933,460
843.211975,458
843.330017,449
843.44812,438
843.566101,451
843.684204,462
843.802246,464
843.920227,460
844.038269,446
844.156311,458
844.274292,462
844.392395,463
844.510376,457
844.628357,458
844.74646,439
844.864441,456
844.982422,448
845.100403,455
845.218384,440
845.336426,456
845.454468,460
845.572449,440
845.69043,457
845.808411,477
845.926453,454
846.044373,450
846.162354,450
846.280396,459
846.398315,451
846.516296,456
846.634216,457
846.752197,456
846.870178,450
846.988098,453
847.106079,446
847.22406,448
847.34198,434
847.4599,463
847.577881,456
847.695801,460
847.813782,442
847.931641,456
848.049561,464
848.167603,433
848.285461,452
848.403381,467
848.521362,446
848.639221,475
848.75708,453
848.875,476
848.99292,454
849.110901,438
849.22876,441
849.34668,460
849.464539,450
849.582458,456
849.700317,471
849.818176,465
849.936096,455
850.053955,492
850.171875,446
850.289673,460
850.407593,458
850.525452,457
850.643311,438
850.761169,455
850.878967,454
850.996887,460
851.114746,452
851.232544,460
851.350403,442
851.468262,472
851.58606,457
851.703979,460
851.821777,454
851.939636,455
852.057434,424
852.175232,453
852.293091,464
852.410889,462
852.528687,459
852.646545,457
852.764343,457
852.88208,462
852.999939,477
853.117676,478
853.235535,459
853.353271,465
853.471069,436
853.588928,459
853.706604,484
853.824402,462
853.9422,436
854.059998,443
854.177734,458
854.295532,458
854.413269,455
854.531006,446
854.648804,455
854.766541,469
854.884277,463
855.002014,448
855.119751,447
855.237549,460
855.355225,456
855.473022,474
855.590698,450
855.708435,460
855.826172,467
855.943848,476
856.061646,463
856.179321,457
856.296997,467
856.414795,471
856.53241,471
856.650085,482
856.767822,443
856.885559,457
857.003174,452
857.120911,468
857.238586,472
857.356201,470
857.473938,459
857.591614,479
857.709351,452
857.826965,477
857.944641,473
858.062317,459
858.179993,461
858.297668,460
858.415283,471
858.532959,460
858.650574,447
858.768188,465
858.885803,462
859.003479,456
859.121094,475
859.23877,464
859.356384,453
859.473999,473
859.591675,464
859.709229,466
859.826843,455
859.944458,449
860.062012,463
860.179626,459
860.297302,453
860.414856,462
860.532471,477
860.650024,465
860.767639,459
860.885193,439
861.002808,458
861.120361,469
861.237976,456
861.35553,457
861.473022,463
861.590698,448
861.708191,472
861.825745,466
861.943298,465
862.060852,454
862.178406,447
862.295959,465
862.413513,448
862.531006,451
862.64856,456
862.766113,465
862.883667,461
863.00116,476
863.118713,465
863.236206,488
863.353699,456
863.471252,446
863.588745,455
863.706177,469
863.82373,455
863.941162,468
864.058716,474
864.176208,480
864.29364,464
864.411194,472
864.528687,456
864.646118,461
864.763611,451
864.881042,463
864.998535,467
865.116028,456
865.233459,461
865.350891,461
865.468384,457
865.585754,450
865.703308,448
865.820679,470
865.938171,474
866.055542,464
866.173035,462
866.290466,480
866.407837,455
866.52533,456
866.6427,458
866.760071,470
866.877563,459
866.994934,475
867.112305,482
867.229736,499
867.347107,465
867.464539,459
867.58197,462
867.699341,476
867.81665,459
867.934082,442
868.051453,458
868.168823,477
868.286194,460
868.403564,468
868.520935,461
868.638306,475
868.755676,464
868.872986,463
868.990295,476
869.107727,462
869.225037,472
869.342346,464
869.459717,459
869.577026,462
869.694336,453
869.811707,462
869.929016,458
870.046326,475
870.163635,457
870.280945,452
870.398254,465
870.515564,487
870.632812,466
870.750183,474
870.867432,454
870.984741,467
871.102051,470
871.219299,478
871.336609,460
871.453918,472
871.571106,460
871.688416,458
871.805664,428
871.922852,466
872.040222,448
872.157471,483
872.274719,476
872.391968,469
872.509155,449
872.626465,466
872.743652,469
872.860962,476
872.978149,465
873.095337,451
873.212646,475
873.329834,453
873.44696,470
873.564209,475
873.681396,448
873.798645,454
873.915894,453
874.03302,468
874.150208,459
874.267456,451
874.384583,469
874.501831,469
874.618958,453
874.736145,458
874.853333,465
874.970459,457
875.087646,449
875.204834,452
875.32196,454
875.439148,473
875.556274,448
875.673401,475
875.790527,465
875.907715,470
876.024841,474
876.141968,465
876.259094,457
876.376282,464
876.493347,469
876.610474,465
876.7276,450
876.844727,452
876.961853,455
877.078918,466
877.195984,469
877.313171,473
877.430237,473
877.547302,469
877.664368,478
877.781433,462
877.898499,463
878.015625,474
878.13269,458
878.249695,496
878.366821,462
878.483887,464
878.600952,457
878.717957,488
878.834961,468
878.952087,466
879.069092,476
879.186157,478
879.303162,457
879.420227,474
879.537231,466
879.654236,447
879.77124,468
879.888306,477
880.005249,459
880.122314,472
880.239319,470
880.356323,467
880.473328,457
880.590271,470
880.707275,476
880.824341,459
880.941284,453
881.058228,453
881.175232,458
881.292236,481
881.40918,481
881.526123,465
881.643066,455
881.760071,467
881.877014,466
881.993958,462
882.11084,488
882.227783,457
882.344727,471
882.46167,465
882.578613,460
882.695618,458
882.812439,460
882.929382,486
883.046326,472
883.163208,479
883.280151,453
883.397034,483
883.513916,466
883.630798,475
883.747742,476
883.864563,502
883.981506,479
884.098389,459
884.21521,469
884.332153,470
884.448975,455
884.565796,461
884.682678,465
884.7995,471
884.916443,465
885.033264,486
885.150085,468
885.266968,481
885.383789,463
885.500671,469
885.617493,482
885.734314,476
885.851196,481
885.967896,465
886.084717,452
886.201599,461
886.318359,472
886.435181,483
886.552002,467
886.668762,461
886.785645,471
886.902344,461
887.019165,465
887.135925,490
887.252747,451
887.369446,465
887.486267,471
887.603027,493
887.719788,471
887.836548,466
887.953247,484
888.070068,488
888.186829,449
888.303528,483
888.420288,479
888.536987,493
888.653687,480
888.770447,467
888.887146,448
889.003967,478
889.120667,477
889.237305,475
889.354065,477
889.470703,488
889.587463,479
889.704163,484
889.820862,475
889.937561,486
890.054199,470
890.170837,490
890.287598,501
890.404236,487
890.520874,459
890.637634,495
890.754211,464
890.87085,461
890.987549,472
891.104187,484
891.220886,487
891.337463,457
891.454102,476
891.57074,480
891.687378,491
891.804077,483
891.920654,482
892.037231,465
892.15387,451
892.270447,488
892.387085,447
892.503723,476
892.6203,473
892.736877,494
892.853516,482
892.970032,488
893.08667,465
893.203186,480
893.319763,457
893.43634,486
893.552917,484
893.669556,489
893.786011,466
893.902588,476
894.019165,472
894.135681,474
894.252197,471
894.368835,489
894.485291,483
894.601868,482
894.718384,476
894.8349,487
894.951355,471
895.067932,475
895.184448,483
895.300964,489
895.417419,467
895.533936,486
895.650452,466
895.766907,492
895.883423,483
895.999878,487
896.116333,470
896.232849,488
896.349304,492
896.465759,477
896.582214,458
896.698669,477
896.815125,465
896.931641,486
897.048035,481
897.164551,465
897.280884,478
897.397339,472
897.513794,490
897.630249,469
897.746582,477
897.863098,489
897.979431,470
898.095886,491
898.212341,492
898.328674,496
898.445129,481
898.561462,487
898.677795,493
898.794312,477
898.910645,473
899.026978,459
899.143433,476
899.259766,483
899.37616,480
899.492493,491
899.608765,467
899.725159,490
899.841553,485
899.957947,494
900.07428,481
900.190552,496
900.306946,494
900.423157,484
900.53949,485
900.655884,494
900.772156,479
900.888489,464
901.004822,477
901.121033,489
901.237366,468
901.353699,483
901.46991,491
901.586304,483
901.702515,485
901.818787,494
901.93512,480
902.051331,491
902.167603,482
902.283875,471
902.400085,484
902.516418,473
902.632629,483
902.74884,506
902.865112,474
902.981384,467
903.097595,485
903.213867,485
903.330017,487
903.446289,503
903.5625,503
903.67865,478
903.794922,482
903.911072,488
904.027344,498
904.143494,465
904.259705,494
904.375916,485
904.492065,477
904.608215,496
904.724426,475
904.840576,488
904.956726,491
905.072876,499
905.189087,490
905.305176,484
905.421387,488
905.537537,489
905.653687,481
905.769775,482
905.885925,470
906.002014,493
906.118164,480
906.234314,497
906.350403,475
906.466492,488
906.582642,491
906.69873,492
906.814758,483
906.930908,484
907.046936,473
907.163086,498
907.279175,496
907.395264,485
907.511353,474
907.62738,485
907.743408,483
907.859497,486
907.975525,473
908.091553,498
908.207703,476
908.32373,476
908.439758,481
908.555786,506
908.671814,469
908.787842,483
908.90387,476
909.019775,498
909.135864,498
909.251892,481
909.367859,489
909.483826,489
909.599854,478
909.715881,507
909.831848,492
909.947815,465
910.063782,488
910.179749,490
910.295776,471
910.411743,499
910.527649,498
910.643616,502
910.759583,485
910.875488,508
910.991455,480
911.107361,490
911.223267,482
911.339294,481
911.4552,507
911.571106,491
911.687073,482
911.802979,488
911.918823,483
912.034729,476
912.150635,470
912.266602,486
912.382446,490
912.498352,485
912.614197,503
912.730103,475
912.846008,495
792.44574,605
792.56488,632
792.68396,675
792.80304,644
792.92218,605
793.041199,581
793.160339,603
793.279419,590
793.398499,614
793.517578,590
793.636658,593
793.755737,601
793.874817,614
793.993896,618
794.112976,570
794.232056,577
794.351074,605
794.470215,593
794.589233,575
794.708313,578
794.827393,570
794.946411,583
795.065552,589
795.18457,588
795.303589,597
795.422668,565
795.541687,566
795.660767,589
795.779846,581
795.898865,569
796.017883,587
796.136963,569
796.255981,571
796.375061,577
796.49408,565
796.613037,554
796.732117,589
796.851135,565
796.970154,573
797.089233,562
797.208191,575
797.327271,576
797.446228,570
797.565186,572
797.684265,545
797.803223,576
797.922241,573
798.04126,568
798.160278,541
798.279297,554
798.398315,551
798.517273,585
798.636292,572
798.75531,562
798.874268,567
798.993286,552
799.112244,580
799.231323,568
799.350281,564
799.469238,562
799.588257,549
799.707153,563
799.826111,578
799.945129,565
800.064087,580
800.183044,563
800.302063,571
800.421021,553
800.539978,549
800.658936,596
800.777893,587
800.896912,556
801.015747,565
801.134705,569
801.253723,558
801.37262,578
801.491638,570
801.610535,578
801.729492,568
801.84845,575
801.967407,551
802.086243,554
802.205261,568
802.324158,553
802.443115,577
802.562073,559
802.680969,592
802.799927,559
802.918762,572
803.037659,581
803.156677,555
803.275574,568
803.39447,577
803.513428,568
803.632263,572
803.751221,561
803.870117,579
803.989014,583
804.107971,570
804.226746,584
804.345642,579
804.4646,581
804.583496,583
804.702393,580
804.821228,602
804.940125,568
805.059021,598
805.177917,578
805.296814,569
805.415649,548
805.534546,590
805.653442,602
805.772278,595
805.891113,585
806.01001,578
806.128906,587
806.247742,599
806.366577,584
806.485413,601
806.604309,587
806.723145,583
806.84198,569
806.960876,579
807.079712,576
807.198486,584
807.317383,592
807.436218,583
807.554993,601
807.673889,580
807.792725,560
807.91156,568
808.030396,591
808.14917,586
808.268005,577
808.386841,565
808.505676,617
808.624451,601
808.743286,600
808.862122,589
808.980896,606
809.099731,589
809.218506,595
809.337341,608
809.456116,599
809.57489,586
809.693726,592
809.8125,584
809.931274,629
810.050049,606
810.168884,601
810.287659,593
810.406372,601
810.525269,630
810.643982,605
810.762756,620
810.881531,601
811.000305,611
811.11908,590
811.237854,594
811.356567,593
811.475403,600
811.594116,618
811.71283,587
811.831604,630
811.950378,620
812.069153,601
812.187927,617
812.30658,615
812.425415,627
812.544128,610
812.662781,607
812.781616,619
812.900269,605
813.019043,601
813.137756,609
813.256531,625
813.375244,601
813.493896,594
813.612671,612
813.731384,596
813.850037,598
813.96875,616
814.087524,615
814.206238,607
814.324951,623
814.443604,597
814.562256,606
814.68103,618
814.799683,603
814.918335,573
815.037109,604
815.155762,607
815.274475,598
815.393188,603
815.511841,590
815.630554,592
815.749146,585
815.867859,586
815.986572,586
816.105164,609
816.223877,602
816.342529,589
816.461182,584
816.579895,585
816.698486,594
816.817139,612
816.935791,606
817.054504,613
817.173096,563
817.291748,615
817.4104,580
817.529053,563
817.647644,563
817.766235,547
817.884949,557
818.00354,533
818.122192,541
818.240845,545
818.359436,543
818.478088,533
818.59668,519
818.715271,525
818.833923,513
818.952515,498
819.071106,526
819.189758,531
819.30835,496
819.426941,505
819.545532,505
819.664124,506
819.782715,493
819.901306,502
820.019897,504
820.138489,501
820.25708,483
820.375671,502
820.494202,491
820.612732,515
820.731384,488
820.849915,499
820.968506,487
821.087097,513
821.205627,477
821.324158,492
821.442749,491
821.561279,487
821.679871,483
821.798401,490
821.916931,486
822.035461,491
822.154053,480
822.272583,483
822.391174,481
822.509583,477
822.628174,478
822.746704,488
822.865234,494
822.983765,468
823.102295,484
823.220825,467
823.339294,481
823.457825,474
823.576355,480
823.694824,481
823.813354,472
823.931885,488
824.050354,472
824.168884,491
824.287354,487
824.405823,492
824.524353,495
824.642822,486
824.761353,496
824.879822,494
824.998291,479
825.116699,479
825.235291,483
825.353699,478
825.472168,486
825.590637,472
825.709106,485
825.827576,475
825.946045,487
826.064453,479
826.182983,467
826.301392,468
826.4198,475
826.53833,478
826.656738,462
826.775208,464
826.893677,470
827.012024,469
827.130493,461
827.248962,475
827.36731,475
827.485779,480
827.604248,490
827.722595,461
827.841064,455
827.959412,464
828.077942,453
828.196289,472
828.314636,462
828.433105,433
828.551514,472
828.669861,456
828.78833,463
828.906677,463
829.025085,471
829.143433,464
829.261841,470
829.38031,464
829.498657,478
829.617004,461
829.735413,473
829.85376,469
829.972107,456
830.090515,454
830.208862,451
830.327209,452
830.445557,459
830.563904,460
830.682312,452
830.800659,456
830.919006,471
831.037354,461
831.155701,488
831.274048,461
831.392395,469
831.51062,472
831.629028,439
831.747314,478
831.865662,463
831.984009,444
832.102356,444
832.220642,481
832.338928,457
832.457275,458
832.575623,469
832.693909,463
832.812134,472
832.930481,465
833.048828,454
833.167114,472
833.2854,447
833.403687,464
833.521973,451
833.640259,453
833.758545,455
833.876831,454
833.995056,461
834.113281,446
834.231628,452
834.349915,436
834.468201,459
834.586426,480
834.704651,457
834.822998,453
834.941162,450
835.059448,451
835.177673,456
835.295959,457
835.414246,445
835.53241,480
835.650635,468
835.768921,455
835.887146,471
836.005371,466
836.123596,456
836.241821,483
836.360046,479
836.478271,468
836.596497,488
836.714722,464
836.832886,474
836.95105,469
837.069336,470
837.1875,475
837.305725,478
837.423889,465
837.542053,481
837.660339,484
837.778503,495
837.896667,486
838.014832,471
838.132996,481
838.25116,478
838.369385,464
838.487488,463
838.605713,488
838.723877,465
838.84198,472
838.960205,459
839.078308,463
839.196472,483
839.314636,481
839.4328,470
839.550964,465
839.669067,461
839.787231,480
839.905396,477
840.023499,455
840.141602,458
840.259766,472
840.377869,464
840.495972,476
840.614136,495
840.732239,456
840.850342,459
840.968445,476
841.086548,467
841.204651,466
841.322754,470
841.440918,486
841.55896,468
841.677002,462
841.795166,460
841.913208,461
842.031311,483
842.149353,460
842.267456,461
842.385498,457
842.503601,454
842.621643,450
842.739746,460
842.857788,454
842.97583,469
843.093933,459
843.211975,471
843.330017,478
843.44812,465
843.566101,457
843.684204,451
843.802246,470
843.920227,452
844.038269,449
844.156311,465
844.274292,472
844.392395,454
844.510376,467
844.628357,452
844.74646,452
844.864441,426
844.982422,461
845.100403,445
845.218384,465
845.336426,453
845.454468,472
845.572449,457
845.69043,459
845.808411,445
845.926453,451
846.044373,457
846.162354,460
846.280396,454
846.398315,465
846.516296,442
846.634216,451
846.752197,458
846.870178,447
846.988098,452
847.106079,447
847.22406,452
847.34198,467
847.4599,454
847.577881,454
847.695801,456
847.813782,449
847.931641,460
848.049561,450
848.167603,460
848.285461,466
848.403381,443
848.521362,464
848.639221,450
848.75708,456
848.875,425
848.99292,469
849.110901,476
849.22876,446
849.34668,464
849.464539,453
849.582458,452
849.700317,457
849.818176,462
849.936096,471
850.053955,440
850.171875,461
850.289673,458
850.407593,445
850.525452,454
850.643311,456
850.761169,475
850.878967,442
850.996887,474
851.114746,455
851.232544,459
851.350403,449
851.468262,462
851.58606,475
851.703979,449
851.821777,469
851.939636,462
852.057434,467
852.175232,465
852.293091,456
852.410889,458
852.528687,460
852.646545,446
852.764343,463
852.88208,444
852.999939,483
853.117676,465
853.235535,469
853.353271,466
853.471069,460
853.588928,456
853.706604,453
853.824402,469
853.9422,458
854.059998,448
854.177734,462
854.295532,456
854.413269,453
854.531006,443
854.648804,467
854.766541,456
854.884277,455
855.002014,454
855.119751,445
855.237549,479
855.355225,476
855.473022,462
855.590698,454
855.708435,467
855.826172,481
855.943848,468
856.061646,449
856.179321,460
856.296997,454
856.414795,458
856.53241,440
856.650085,462
856.767822,456
856.885559,483
857.003174,453
857.120911,450
857.238586,460
857.356201,462
857.473938,470
857.591614,460
857.709351,474
857.826965,449
857.944641,461
858.062317,462
858.179993,453
858.297668,457
858.415283,493
858.532959,454
858.650574,465
858.768188,471
858.885803,453
859.003479,484
859.121094,471
859.23877,476
859.356384,445
859.473999,478
859.591675,452
859.709229,467
859.826843,453
859.944458,450
860.062012,467
860.179626,464
860.297302,460
860.414856,476
860.532471,467
860.650024,475
860.767639,462
860.885193,455
861.002808,456
861.120361,440
861.237976,477
861.35553,466
861.473022,452
861.590698,469
861.708191,459
861.825745,456
861.943298,447
862.060852,467
862.178406,459
862.295959,445
862.413513,467
862.531006,444
862.64856,456
862.766113,448
862.883667,445
863.00116,462
863.118713,470
863.236206,437
863.353699,470
863.471252,451
863.588745,464
863.706177,467
863.82373,475
863.941162,453
864.058716,455
864.176208,457
864.29364,477
864.411194,446
864.528687,452
864.646118,460
864.763611,464
864.881042,466
864.998535,453
865.116028,453
865.233459,484
865.350891,459
865.468384,454
865.585754,484
865.703308,458
865.820679,484
865.938171,481
866.055542,451
866.173035,457
866.290466,475
866.407837,468
866.52533,471
866.6427,449
866.760071,470
866.877563,463
866.994934,455
867.112305,457
867.229736,463
867.347107,459
867.464539,454
867.58197,457
867.699341,461
867.81665,465
867.934082,455
868.051453,457
868.168823,463
868.286194,473
868.403564,464
868.520935,440
868.638306,463
868.755676,462
868.872986,453
868.990295,476
869.107727,469
869.225037,452
869.342346,447
869.459717,470
869.577026,464
869.694336,447
869.811707,472
869.929016,486
870.046326,463
870.163635,460
870.280945,468
870.398254,463
870.515564,446
870.632812,463
870.750183,471
870.867432,448
870.984741,470
871.102051,462
871.219299,465
871.336609,461
871.453918,461
871.571106,480
871.688416,458
871.805664,468
871.922852,474
872.040222,461
872.157471,462
872.274719,462
872.391968,464
872.509155,461
872.626465,463
872.743652,470
872.860962,453
872.978149,486
873.095337,451
873.212646,467
873.329834,462
873.44696,473
873.564209,464
873.681396,478
873.798645,458
873.915894,468
874.03302,460
874.150208,451
874.267456,454
874.384583,481
874.501831,466
874.618958,470
874.736145,462
874.853333,460
874.970459,444
875.087646,472
875.204834,473
875.32196,462
875.439148,452
875.556274,465
875.673401,464
875.790527,469
875.907715,460
876.024841,460
876.141968,476
876.259094,473
876.376282,468
876.493347,462
876.610474,464
876.7276,459
876.844727,466
876.961853,464
877.078918,464
877.195984,467
877.313171,468
877.430237,460
877.547302,485
877.664368,465
877.781433,462
877.898499,453
878.015625,459
878.13269,473
878.249695,466
878.366821,469
878.483887,480
878.600952,465
878.717957,462
878.834961,476
878.952087,478
879.069092,475
879.186157,478
879.303162,453
879.420227,470
879.537231,420
879.654236,454
879.77124,468
879.888306,457
880.005249,473
880.122314,464
880.239319,464
880.356323,456
880.473328,470
880.590271,468
880.707275,476
880.824341,461
880.941284,455
881.058228,465
881.175232,460
881.292236,474
881.40918,473
881.526123,478
881.643066,465
881.760071,469
881.877014,485
881.993958,477
882.11084,479
882.227783,473
882.344727,465
882.46167,467
882.578613,452
882.695618,455
882.812439,481
882.929382,453
883.046326,490
883.163208,462
883.280151,462
883.397034,468
883.513916,463
883.630798,463
883.747742,466
883.864563,461
883.981506,471
884.098389,463
884.21521,485
884.332153,489
884.448975,469
884.565796,458
884.682678,468
884.7995,478
884.916443,471
885.033264,489
885.150085,468
885.266968,461
885.383789,489
885.500671,478
885.617493,477
885.734314,483
885.851196,489
885.967896,466
886.084717,470
886.201599,475
886.318359,489
886.435181,469
886.552002,467
886.668762,489
886.785645,460
886.902344,464
887.019165,476
887.135925,452
887.252747,466
887.369446,475
887.486267,481
887.603027,468
887.719788,481
887.836548,475
887.953247,454
888.070068,474
888.186829,487
888.303528,475
888.420288,467
888.536987,475
888.653687,481
888.770447,443
888.887146,464
889.003967,490
889.120667,468
889.237305,471
889.354065,501
889.470703,477
889.587463,460
889.704163,466
889.820862,466
889.937561,463
890.054199,460
890.170837,476
890.287598,475
890.404236,440
890.520874,484
890.637634,474
890.754211,483
890.87085,464
890.987549,460
891.104187,459
891.220886,476
891.337463,479
891.454102,465
891.57074,466
891.687378,487
891.804077,482
891.920654,502
892.037231,485
892.15387,482
892.270447,488
892.387085,473
892.503723,467
892.6203,480
892.736877,481
892.853516,500
892.970032,469
893.08667,480
893.203186,477
893.319763,481
893.43634,489
893.552917,473
893.669556,471
893.786011,482
893.902588,486
894.019165,488
894.135681,482
894.252197,473
894.368835,484
894.485291,478
894.601868,484
894.718384,478
894.8349,493
894.951355,473
895.067932,481
895.184448,464
895.300964,475
895.417419,485
895.533936,474
895.650452,478
895.766907,472
895.883423,493
895.999878,480
896.116333,481
896.232849,488
896.349304,475
896.465759,487
896.582214,478
896.698669,481
896.815125,485
896.931641,498
897.048035,485
897.164551,467
897.280884,494
897.397339,474
897.513794,505
897.630249,479
897.746582,512
897.863098,479
897.979431,470
898.095886,484
898.212341,480
898.328674,490
898.445129,482
898.561462,473
898.677795,474
898.794312,477
898.910645,492
899.026978,470
899.143433,470
899.259766,482
899.37616,488
899.492493,455
899.608765,483
899.725159,466
899.841553,476
899.957947,493
900.07428,482
900.190552,477
900.306946,473
900.423157,469
900.53949,484
900.655884,490
900.772156,470
900.888489,466
901.004822,501
901.121033,487
901.237366,481
901.353699,461
901.46991,483
901.586304,476
901.702515,489
901.818787,480
901.93512,487
902.051331,476
902.167603,489
902.283875,461
902.400085,501
902.516418,460
902.632629,476
902.74884,483
902.865112,489
902.981384,476
903.097595,487
903.213867,485
903.330017,492
903.446289,500
903.5625,480
903.67865,487
903.794922,480
903.911072,507
904.027344,513
904.143494,485
904.259705,489
904.375916,476
904.492065,494
904.608215,472
904.724426,490
904.840576,489
904.956726,480
905.072876,500
905.189087,475
905.305176,483
905.421387,487
905.537537,510
905.653687,505
905.769775,475
905.885925,481
906.002014,485
906.118164,469
906.234314,493
906.350403,493
906.466492,474
906.582642,515
906.69873,469
906.814758,497
906.930908,495
907.046936,478
907.163086,484
907.279175,485
907.395264,491
907.511353,501
907.62738,493
907.743408,472
907.859497,476
907.975525,486
908.091553,485
908.207703,476
908.32373,487
908.439758,490
908.555786,501
908.671814,491
908.787842,479
908.90387,499
909.019775,501
909.135864,478
909.251892,462
909.367859,487
909.483826,485
909.599854,490
909.715881,501
909.831848,483
909.947815,491
910.063782,495
910.179749,487
910.295776,482
910.411743,491
910.527649,495
910.643616,500
910.759583,493
910.875488,478
910.991455,487
911.107361,476
911.223267,501
911.339294,483
911.4552,491
911.571106,481
911.687073,501
911.802979,490
911.918823,504
912.034729,495
912.150635,492
912.266602,495
912.382446,471
912.498352,476
912.614197,485
912.730103,483
912.846008,482
