792.44574,659
792.56488,688
792.68396,759
792.80304,720
792.92218,675
793.041199,641
793.160339,625
793.279419,651
793.398499,633
793.517578,648
793.636658,634
793.755737,624
793.874817,654
793.993896,652
794.112976,651
794.232056,635
794.351074,622
794.470215,629
794.589233,604
794.708313,593
794.827393,625
794.946411,612
795.065552,615
795.18457,617
795.303589,619
795.422668,622
795.541687,611
795.660767,593
795.779846,595
795.898865,568
796.017883,607
796.136963,568
796.255981,579
796.375061,612
796.49408,580
796.613037,564
796.732117,568
796.851135,559
796.970154,586
797.089233,561
797.208191,576
797.327271,581
797.446228,580
797.565186,588
797.684265,575
797.803223,566
797.922241,562
798.04126,552
798.160278,572
798.279297,578
798.398315,594
798.517273,586
798.636292,570
798.75531,544
798.874268,548
798.993286,567
799.112244,553
799.231323,559
799.350281,572
799.469238,568
799.588257,570
799.707153,577
799.826111,584
799.945129,574
800.064087,563
800.183044,562
800.302063,557
800.421021,580
800.539978,547
800.658936,533
800.777893,584
800.896912,561
801.015747,556
801.134705,557
801.253723,579
801.37262,569
801.491638,572
801.610535,562
801.729492,577
801.84845,546
801.967407,552
802.086243,560
802.205261,565
802.324158,586
802.443115,569
802.562073,568
802.680969,562
802.799927,541
802.918762,594
803.037659,571
803.156677,576
803.275574,580
803.39447,554
803.513428,557
803.632263,568
803.751221,567
803.870117,572
803.989014,537
804.107971,556
804.226746,568
804.345642,567
804.4646,585
804.583496,561
804.702393,564
804.821228,573
804.940125,574
805.059021,563
805.177917,556
805.296814,586
805.415649,568
805.534546,574
805.653442,537
805.772278,569
805.891113,596
806.01001,581
806.128906,582
806.247742,589
806.366577,569
806.485413,562
806.604309,609
806.723145,596
806.84198,573
806.960876,581
807.079712,555
807.198486,577
807.317383,568
807.436218,569
807.554993,575
807.673889,582
807.792725,581
807.91156,574
808.030396,580
808.14917,591
808.268005,562
808.386841,596
808.505676,567
808.624451,590
808.743286,591
808.862122,572
808.980896,571
809.099731,592
809.218506,592
809.337341,591
809.456116,581
809.57489,574
809.693726,596
809.8125,595
809.931274,591
810.050049,547
810.168884,601
810.287659,604
810.406372,578
810.525269,583
810.643982,595
810.762756,589
810.881531,586
811.000305,600
811.11908,593
811.237854,594
811.356567,591
811.475403,583
811.594116,591
811.71283,559
811.831604,585
811.950378,621
812.069153,582
812.187927,593
812.30658,577
812.425415,596
812.544128,582
812.662781,598
812.781616,581
812.900269,577
813.019043,576
813.137756,581
813.256531,594
813.375244,580
813.493896,585
813.612671,606
813.731384,594
813.850037,580
813.96875,605
814.087524,585
814.206238,596
814.324951,597
814.443604,574
814.562256,602
814.68103,579
814.799683,565
814.918335,578
815.037109,579
815.155762,605
815.274475,576
815.393188,564
815.511841,588
815.630554,577
815.749146,581
815.867859,551
815.986572,571
816.105164,587
816.223877,583
816.342529,564
816.461182,599
816.579895,583
816.698486,594
816.817139,571
816.935791,567
817.054504,554
817.173096,588
817.291748,568
817.4104,556
817.529053,559
817.647644,561
817.766235,542
817.884949,548
818.00354,541
818.122192,562
818.240845,552
818.359436,521
818.478088,528
818.59668,548
818.715271,511
818.833923,491
818.952515,519
819.071106,502
819.189758,493
819.30835,511
819.426941,501
819.545532,489
819.664124,507
819.782715,517
819.901306,493
820.019897,495
820.138489,482
820.25708,492
820.375671,494
820.494202,483
820.612732,491
820.731384,489
820.849915,481
820.968506,486
821.087097,473
821.205627,489
821.324158,478
821.442749,496
821.561279,491
821.679871,482
821.798401,479
821.916931,489
822.035461,480
822.154053,485
822.272583,474
822.391174,470
822.509583,470
822.628174,480
822.746704,467
822.865234,472
822.983765,480
823.102295,471
823.220825,464
823.339294,485
823.457825,472
823.576355,492
823.694824,486
823.813354,480
823.931885,485
824.050354,458
824.168884,485
824.287354,493
824.405823,451
824.524353,491
824.642822,461
824.761353,488
824.879822,486
824.998291,472
825.116699,465
825.235291,488
825.353699,481
825.472168,472
825.590637,471
825.709106,485
825.827576,469
825.946045,483
826.064453,478
826.182983,475
826.301392,469
826.4198,479
826.53833,458
826.656738,456
826.775208,471
826.893677,459
827.012024,482
827.130493,475
827.248962,450
827.36731,462
827.485779,466
827.604248,441
827.722595,459
827.841064,451
827.959412,466
828.077942,482
828.196289,437
828.314636,455
828.433105,479
828.551514,475
828.669861,448
828.78833,460
828.906677,444
829.025085,460
829.143433,450
829.261841,462
829.38031,475
829.498657,452
829.617004,469
829.735413,470
829.85376,452
829.972107,478
830.090515,457
830.208862,460
830.327209,472
830.445557,462
830.563904,457
830.682312,440
830.800659,462
830.919006,473
831.037354,456
831.155701,460
831.274048,454
831.392395,460
831.51062,478
831.629028,468
831.747314,476
831.865662,477
831.984009,465
832.102356,459
832.220642,449
832.338928,457
832.457275,468
832.575623,485
832.693909,464
832.812134,460
832.930481,455
833.048828,457
833.167114,462
833.2854,465
833.403687,449
833.521973,470
833.640259,466
833.758545,464
833.876831,455
833.995056,459
834.113281,449
834.231628,468
834.349915,451
834.468201,461
834.586426,450
834.704651,472
834.822998,459
834.941162,477
835.059448,445
835.177673,447
835.295959,454
835.414246,449
835.53241,455
835.650635,464
835.768921,448
835.887146,475
836.005371,470
836.123596,470
836.241821,440
836.360046,458
836.478271,450
836.596497,454
836.714722,471
836.832886,476
836.95105,461
837.069336,469
837.1875,471
837.305725,484
837.423889,492
837.542053,476
837.660339,443
837.778503,481
837.896667,487
838.014832,470
838.132996,481
838.25116,480
838.369385,475
838.487488,489
838.605713,472
838.723877,466
838.84198,465
838.960205,471
839.078308,478
839.196472,465
839.314636,482
839.4328,467
839.550964,442
839.669067,478
839.787231,488
839.905396,460
840.023499,458
840.141602,481
840.259766,472
840.377869,486
840.495972,466
840.614136,490
840.732239,466
840.850342,476
840.968445,471
841.086548,463
841.204651,456
841.322754,471
841.440918,473
841.55896,483
841.677002,441
841.795166,477
841.913208,465
842.031311,482
842.149353,442
842.267456,480
842.385498,463
842.503601,460
842.621643,461
842.739746,463
842.857788,451
842.97583,451
843.093933,467
843.211975,462
843.330017,469
843.44812,461
843.566101,461
843.684204,457
843.802246,461
843.920227,462
844.038269,468
844.156311,474
844.274292,452
844.392395,469
844.510376,467
844.628357,456
844.74646,456
844.864441,453
844.982422,439
845.100403,450
845.218384,463
845.336426,454
845.454468,466
845.572449,449
845.69043,438
845.808411,431
845.926453,453
846.044373,473
846.162354,449
846.280396,450
846.398315,442
846.516296,481
846.634216,447
846.752197,458
846.870178,447
846.988098,469
847.106079,450
847.22406,467
847.34198,461
847.4599,464
847.577881,458
847.695801,452
847.813782,458
847.931641,454
848.049561,450
848.167603,454
848.285461,448
848.403381,454
848.521362,469
848.639221,456
848.75708,457
848.875,465
848.99292,458
849.110901,481
849.22876,457
849.34668,454
849.464539,452
849.582458,452
849.700317,461
849.818176,465
849.936096,453
850.053955,495
850.171875,462
850.289673,477
850.407593,439
850.525452,450
850.643311,456
850.761169,448
850.878967,464
850.996887,456
851.114746,459
851.232544,472
851.350403,470
851.468262,452
851.58606,445
851.703979,473
851.821777,461
851.939636,448
852.057434,458
852.175232,468
852.293091,473
852.410889,469
852.528687,460
852.646545,472
852.764343,444
852.88208,461
852.999939,470
853.117676,460
853.235535,480
853.353271,449
853.471069,464
853.588928,455
853.706604,440
853.824402,449
853.9422,455
854.059998,461
854.177734,467
854.295532,461
854.413269,471
854.531006,475
854.648804,463
854.766541,448
854.884277,441
855.002014,462
855.119751,465
855.237549,467
855.355225,455
855.473022,463
855.590698,457
855.708435,483
855.826172,468
855.943848,468
856.061646,461
856.179321,467
856.296997,452
856.414795,466
856.53241,463
856.650085,461
856.767822,452
856.885559,470
857.003174,466
857.120911,486
857.238586,462
857.356201,485
857.473938,458
857.591614,465
857.709351,473
857.826965,478
857.944641,471
858.062317,469
858.179993,467
858.297668,460
858.415283,468
858.532959,480
858.650574,472
858.768188,476
858.885803,462
859.003479,471
859.121094,472
859.23877,470
859.356384,454
859.473999,443
859.591675,455
859.709229,456
859.826843,461
859.944458,476
860.062012,474
860.179626,472
860.297302,456
860.414856,478
860.532471,460
860.650024,439
860.767639,459
860.885193,452
861.002808,483
861.120361,459
861.237976,471
861.35553,473
861.473022,446
861.590698,467
861.708191,445
861.825745,472
861.943298,461
862.060852,454
862.178406,449
862.295959,459
862.413513,457
862.531006,464
862.64856,445
862.766113,461
862.883667,465
863.00116,473
863.118713,470
863.236206,463
863.353699,468
863.471252,443
863.588745,473
863.706177,471
863.82373,451
863.941162,460
864.058716,448
864.176208,456
864.29364,465
864.411194,477
864.528687,464
864.646118,458
864.763611,468
864.881042,482
864.998535,456
865.116028,463
865.233459,461
865.350891,449
865.468384,468
865.585754,478
865.703308,447
865.820679,458
865.938171,454
866.055542,468
866.173035,469
866.290466,462
866.407837,453
866.52533,466
866.6427,472
866.760071,478
866.877563,460
866.994934,460
867.112305,455
867.229736,475
867.347107,457
867.464539,466
867.58197,470
867.699341,463
867.81665,458
867.934082,455
868.051453,455
868.168823,468
868.286194,487
868.403564,470
868.520935,484
868.638306,460
868.755676,475
868.872986,443
868.990295,435
869.107727,473
869.225037,454
869.342346,474
869.459717,470
869.577026,469
869.694336,479
869.811707,451
869.929016,466
870.046326,478
870.163635,456
870.280945,469
870.398254,463
870.515564,454
870.632812,467
870.750183,471
870.867432,475
870.984741,486
871.102051,466
871.219299,483
871.336609,478
871.453918,479
871.571106,443
871.688416,463
871.805664,464
871.922852,469
872.040222,462
872.157471,480
872.274719,460
872.391968,493
872.509155,470
872.626465,457
872.743652,482
872.860962,469
872.978149,448
873.095337,487
873.212646,477
873.329834,453
873.44696,467
873.564209,463
873.681396,460
873.798645,478
873.915894,465
874.03302,470
874.150208,468
874.267456,470
874.384583,436
874.501831,493
874.618958,465
874.736145,471
874.853333,466
874.970459,490
875.087646,463
875.204834,461
875.32196,479
875.439148,451
875.556274,461
875.673401,473
875.790527,466
875.907715,465
876.024841,473
876.141968,500
876.259094,474
876.376282,495
876.493347,449
876.610474,470
876.7276,453
876.844727,461
876.961853,445
877.078918,474
877.195984,458
877.313171,477
877.430237,445
877.547302,468
877.664368,473
877.781433,459
877.898499,467
878.015625,476
878.13269,476
878.249695,487
878.366821,452
878.483887,460
878.600952,470
878.717957,464
878.834961,460
878.952087,457
879.069092,473
879.186157,471
879.303162,454
879.420227,487
879.537231,467
879.654236,464
879.77124,458
879.888306,468
880.005249,439
880.122314,450
880.239319,465
880.356323,460
880.473328,473
880.590271,468
880.707275,443
880.824341,461
880.941284,476
881.058228,459
881.175232,443
881.292236,469
881.40918,463
881.526123,459
881.643066,470
881.760071,468
881.877014,467
881.993958,461
882.11084,459
882.227783,464
882.344727,447
882.46167,460
882.578613,441
882.695618,473
882.812439,442
882.929382,466
883.046326,453
883.163208,476
883.280151,459
883.397034,463
883.513916,468
883.630798,461
883.747742,459
883.864563,479
883.981506,462
884.098389,462
884.21521,481
884.332153,470
884.448975,459
884.565796,474
884.682678,469
884.7995,469
884.916443,479
885.033264,492
885.150085,476
885.266968,474
885.383789,480
885.500671,496
885.617493,465
885.734314,477
885.851196,477
885.967896,491
886.084717,480
886.201599,478
886.318359,456
886.435181,472
886.552002,476
886.668762,493
886.785645,494
886.902344,477
887.019165,484
887.135925,465
887.252747,471
887.369446,517
887.486267,476
887.603027,490
887.719788,473
887.836548,478
887.953247,476
888.070068,457
888.186829,473
888.303528,452
888.420288,460
888.536987,475
888.653687,461
888.770447,481
888.887146,460
889.003967,464
889.120667,466
889.237305,466
889.354065,462
889.470703,462
889.587463,476
889.704163,482
889.820862,452
889.937561,453
890.054199,464
890.170837,465
890.287598,469
890.404236,463
890.520874,447
890.637634,456
890.754211,464
890.87085,460
890.987549,473
891.104187,459
891.220886,464
891.337463,469
891.454102,455
891.57074,470
891.687378,468
891.804077,466
891.920654,472
892.037231,480
892.15387,456
892.270447,484
892.387085,468
892.503723,467
892.6203,456
892.736877,452
892.853516,466
892.970032,472
893.08667,484
893.203186,457
893.319763,454
893.43634,461
893.552917,469
893.669556,470
893.786011,462
893.902588,456
894.019165,478
894.135681,476
894.252197,467
894.368835,466
894.485291,460
894.601868,480
894.718384,463
894.8349,470
894.951355,462
895.067932,475
895.184448,458
895.300964,473
895.417419,481
895.533936,476
895.650452,449
895.766907,460
895.883423,448
895.999878,482
896.116333,472
896.232849,465
896.349304,443
896.465759,485
896.582214,456
896.698669,460
896.815125,463
896.931641,488
897.048035,444
897.164551,481
897.280884,463
897.397339,468
897.513794,490
897.630249,453
897.746582,470
897.863098,467
897.979431,479
898.095886,468
898.212341,474
898.328674,453
898.445129,477
898.561462,451
898.677795,463
898.794312,486
898.910645,459
899.026978,470
899.143433,477
899.259766,480
899.37616,468
899.492493,460
899.608765,476
899.725159,471
899.841553,460
899.957947,472
900.07428,476
900.190552,481
900.306946,472
900.423157,467
900.53949,460
900.655884,480
900.772156,462
900.888489,454
901.004822,467
901.121033,478
901.237366,479
901.353699,478
901.46991,472
901.586304,490
901.702515,464
901.818787,462
901.93512,477
902.051331,487
902.167603,466
902.283875,473
902.400085,476
902.516418,486
902.632629,468
902.74884,489
902.865112,470
902.981384,493
903.097595,480
903.213867,484
903.330017,495
903.446289,484
903.5625,495
903.67865,469
903.794922,470
903.911072,519
904.027344,483
904.143494,483
904.259705,478
904.375916,479
904.492065,479
904.608215,478
904.724426,480
904.840576,492
904.956726,482
905.072876,467
905.189087,462
905.305176,487
905.421387,457
905.537537,481
905.653687,455
905.769775,463
905.885925,475
906.002014,491
906.118164,481
906.234314,462
906.350403,474
906.466492,476
906.582642,479
906.69873,466
906.814758,449
906.930908,497
907.046936,486
907.163086,461
907.279175,465
907.395264,464
907.511353,462
907.62738,467
907.743408,483
907.859497,466
907.975525,461
908.091553,476
908.207703,462
908.32373,487
908.439758,471
908.555786,486
908.671814,468
908.787842,465
908.90387,445
909.019775,476
909.135864,471
909.251892,470
909.367859,462
909.483826,484
909.599854,459
909.715881,501
909.831848,476
909.947815,477
910.063782,447
910.179749,498
910.295776,486
910.411743,451
910.527649,466
910.643616,483
910.759583,464
910.875488,484
910.991455,473
911.107361,468
911.223267,464
911.339294,463
911.4552,497
911.571106,479
911.687073,474
911.802979,483
911.918823,458
912.034729,481
912.150635,462
912.266602,484
912.382446,480
912.498352,479
912.614197,476
912.730103,465
912.846008,463
792.44574,707
792.56488,712
792.68396,762
792.80304,715
792.92218,696
793.041199,619
793.160339,654
793.279419,674
793.398499,670
793.517578,678
793.636658,643
793.755737,652
793.874817,630
793.993896,668
794.112976,636
794.232056,608
794.351074,590
794.470215,622
794.589233,639
794.708313,609
794.827393,609
794.946411,598
795.065552,596
795.18457,603
795.303589,617
795.422668,599
795.541687,605
795.660767,590
795.779846,618
795.898865,602
796.017883,578
796.136963,597
796.255981,625
796.375061,582
796.49408,583
796.613037,579
796.732117,578
796.851135,587
796.970154,560
797.089233,562
797.208191,589
797.327271,601
797.446228,577
797.565186,577
797.684265,586
797.803223,571
797.922241,564
798.04126,569
798.160278,578
798.279297,564
798.398315,575
798.517273,581
798.636292,571
798.75531,581
798.874268,560
798.993286,571
799.112244,568
799.231323,565
799.350281,575
799.469238,572
799.588257,589
799.707153,583
799.826111,578
799.945129,566
800.064087,568
800.183044,582
800.302063,563
800.421021,573
800.539978,562
800.658936,582
800.777893,572
800.896912,562
801.015747,566
801.134705,563
801.253723,583
801.37262,556
801.491638,562
801.610535,562
801.729492,575
801.84845,556
801.967407,565
802.086243,559
802.205261,574
802.324158,598
802.443115,556
802.562073,551
802.680969,578
802.799927,564
802.918762,586
803.037659,566
803.156677,580
803.275574,565
803.39447,563
803.513428,567
803.632263,583
803.751221,543
803.870117,560
803.989014,554
804.107971,555
804.226746,559
804.345642,559
804.4646,558
804.583496,555
804.702393,587
804.821228,587
804.940125,575
805.059021,555
805.177917,555
805.296814,558
805.415649,579
805.534546,601
805.653442,586
805.772278,566
805.891113,573
806.01001,580
806.128906,577
806.247742,582
806.366577,599
806.485413,572
806.604309,584
806.723145,580
806.84198,553
806.960876,580
807.079712,598
807.198486,585
807.317383,577
807.436218,568
807.554993,576
807.673889,580
807.792725,579
807.91156,587
808.030396,610
808.14917,550
808.268005,546
808.386841,590
808.505676,565
808.624451,595
808.743286,560
808.862122,567
808.980896,582
809.099731,605
809.218506,612
809.337341,610
809.456116,588
809.57489,592
809.693726,580
809.8125,587
809.931274,587
810.050049,600
810.168884,603
810.287659,586
810.406372,584
810.525269,634
810.643982,612
810.762756,602
810.881531,592
811.000305,582
811.11908,602
811.237854,575
811.356567,603
811.475403,592
811.594116,564
811.71283,586
811.831604,593
811.950378,616
812.069153,612
812.187927,591
812.30658,600
812.425415,607
812.544128,589
812.662781,603
812.781616,578
812.900269,583
813.019043,581
813.137756,580
813.256531,587
813.375244,569
813.493896,605
813.612671,578
813.731384,591
813.850037,578
813.96875,595
814.087524,598
814.206238,585
814.324951,579
814.443604,577
814.562256,588
814.68103,582
814.799683,571
814.918335,583
815.037109,570
815.155762,585
815.274475,581
815.393188,560
815.511841,564
815.630554,583
815.749146,577
815.867859,570
815.986572,590
816.105164,576
816.223877,578
816.342529,571
816.461182,574
816.579895,577
816.698486,582
816.817139,567
816.935791,582
817.054504,588
817.173096,572
817.291748,577
817.4104,569
817.529053,581
817.647644,568
817.766235,554
817.884949,546
818.00354,560
818.122192,537
818.240845,536
818.359436,518
818.478088,527
818.59668,497
818.715271,511
818.833923,500
818.952515,511
819.071106,524
819.189758,519
819.30835,497
819.426941,505
819.545532,515
819.664124,493
819.782715,500
819.901306,506
820.019897,499
820.138489,498
820.25708,510
820.375671,495
820.494202,497
820.612732,485
820.731384,482
820.849915,507
820.968506,479
821.087097,487
821.205627,479
821.324158,475
821.442749,468
821.561279,496
821.679871,512
821.798401,485
821.916931,477
822.035461,467
822.154053,475
822.272583,500
822.391174,476
822.509583,492
822.628174,457
822.746704,474
822.865234,490
822.983765,471
823.102295,482
823.220825,476
823.339294,473
823.457825,501
823.576355,483
823.694824,478
823.813354,482
823.931885,474
824.050354,476
824.168884,477
824.287354,462
824.405823,480
824.524353,479
824.642822,478
824.761353,509
824.879822,483
824.998291,478
825.116699,496
825.235291,469
825.353699,496
825.472168,468
825.590637,472
825.709106,476
825.827576,484
825.946045,461
826.064453,483
826.182983,474
826.301392,476
826.4198,467
826.53833,485
826.656738,459
826.775208,473
826.893677,469
827.012024,475
827.130493,489
827.248962,476
827.36731,491
827.485779,457
827.604248,477
827.722595,476
827.841064,456
827.959412,476
828.077942,459
828.196289,459
828.314636,460
828.433105,464
828.551514,445
828.669861,467
828.78833,449
828.906677,455
829.025085,484
829.143433,441
829.261841,458
829.38031,484
829.498657,479
829.617004,451
829.735413,462
829.85376,473
829.972107,466
830.090515,451
830.208862,460
830.327209,468
830.445557,461
830.563904,466
830.682312,458
830.800659,453
830.919006,482
831.037354,479
831.155701,478
831.274048,479
831.392395,466
831.51062,472
831.629028,477
831.747314,471
831.865662,452
831.984009,441
832.102356,446
832.220642,463
832.338928,480
832.457275,452
832.575623,445
832.693909,474
832.812134,461
832.930481,460
833.048828,469
833.167114,461
833.2854,481
833.403687,462
833.521973,463
833.640259,454
833.758545,450
833.876831,479
833.995056,450
834.113281,467
834.231628,461
834.349915,466
834.468201,466
834.586426,471
834.704651,458
834.822998,461
834.941162,441
835.059448,480
835.177673,462
835.295959,453
835.414246,463
835.53241,473
835.650635,463
835.768921,466
835.887146,469
836.005371,449
836.123596,446
836.241821,473
836.360046,456
836.478271,497
836.596497,470
836.714722,477
836.832886,464
836.95105,458
837.069336,467
837.1875,467
837.305725,478
837.423889,467
837.542053,476
837.660339,484
837.778503,486
837.896667,478
838.014832,478
838.132996,468
838.25116,453
838.369385,472
838.487488,467
838.605713,467
838.723877,488
838.84198,487
838.960205,470
839.078308,478
839.196472,478
839.314636,470
839.4328,456
839.550964,452
839.669067,473
839.787231,489
839.905396,463
840.023499,464
840.141602,459
840.259766,477
840.377869,467
840.495972,480
840.614136,481
840.732239,469
840.850342,465
840.968445,484
841.086548,463
841.204651,454
841.322754,473
841.440918,482
841.55896,485
841.677002,466
841.795166,472
841.913208,467
842.031311,447
842.149353,448
842.267456,470
842.385498,478
842.503601,456
842.621643,461
842.739746,466
842.857788,469
842.97583,454
843.093933,497
843.211975,463
843.330017,463
843.44812,465
843.566101,466
843.684204,456
843.802246,453
843.920227,471
844.038269,470
844.156311,447
844.274292,467
844.392395,457
844.510376,474
844.628357,455
844.74646,456
844.864441,462
844.982422,482
845.100403,465
845.218384,495
845.336426,470
845.454468,470
845.572449,451
845.69043,460
845.808411,466
845.926453,474
846.044373,442
846.162354,458
846.280396,466
846.398315,480
846.516296,450
846.634216,455
846.752197,458
846.870178,468
846.988098,472
847.106079,465
847.22406,449
847.34198,464
847.4599,484
847.577881,446
847.695801,443
847.813782,466
847.931641,447
848.049561,454
848.167603,424
848.285461,461
848.403381,457
848.521362,471
848.639221,472
848.75708,447
848.875,457
848.99292,466
849.110901,455
849.22876,468
849.34668,458
849.464539,449
849.582458,463
849.700317,455
849.818176,464
849.936096,467
850.053955,463
850.171875,455
850.289673,453
850.407593,476
850.525452,444
850.643311,483
850.761169,443
850.878967,445
850.996887,461
851.114746,448
851.232544,454
851.350403,473
851.468262,457
851.58606,463
851.703979,454
851.821777,469
851.939636,452
852.057434,463
852.175232,456
852.293091,460
852.410889,460
852.528687,465
852.646545,449
852.764343,463
852.88208,468
852.999939,453
853.117676,485
853.235535,472
853.353271,458
853.471069,450
853.588928,471
853.706604,444
853.824402,460
853.9422,478
854.059998,461
854.177734,467
854.295532,449
854.413269,475
854.531006,460
854.648804,465
854.766541,461
854.884277,459
855.002014,465
855.119751,473
855.237549,469
855.355225,457
855.473022,467
855.590698,469
855.708435,446
855.826172,473
855.943848,459
856.061646,463
856.179321,456
856.296997,478
856.414795,474
856.53241,467
856.650085,451
856.767822,445
856.885559,474
857.003174,491
857.120911,454
857.238586,463
857.356201,460
857.473938,464
857.591614,464
857.709351,469
857.826965,467
857.944641,467
858.062317,458
858.179993,454
858.297668,478
858.415283,481
858.532959,471
858.650574,443
858.768188,480
858.885803,453
859.003479,472
859.121094,488
859.23877,450
859.356384,474
859.473999,463
859.591675,477
859.709229,470
859.826843,479
859.944458,470
860.062012,462
860.179626,442
860.297302,455
860.414856,455
860.532471,467
860.650024,459
860.767639,457
860.885193,452
861.002808,483
861.120361,453
861.237976,488
861.35553,457
861.473022,471
861.590698,477
861.708191,460
861.825745,458
861.943298,455
862.060852,461
862.178406,476
862.295959,482
862.413513,454
862.531006,461
862.64856,446
862.766113,459
862.883667,473
863.00116,462
863.118713,471
863.236206,465
863.353699,475
863.471252,468
863.588745,443
863.706177,447
863.82373,476
863.941162,470
864.058716,461
864.176208,458
864.29364,470
864.411194,462
864.528687,462
864.646118,462
864.763611,463
864.881042,442
864.998535,476
865.116028,454
865.233459,472
865.350891,455
865.468384,470
865.585754,455
865.703308,464
865.820679,452
865.938171,458
866.055542,457
866.173035,466
866.290466,457
866.407837,460
866.52533,455
866.6427,475
866.760071,444
866.877563,461
866.994934,459
867.112305,453
867.229736,455
867.347107,471
867.464539,444
867.58197,468
867.699341,472
867.81665,464
867.934082,473
868.051453,472
868.168823,469
868.286194,459
868.403564,465
868.520935,452
868.638306,490
868.755676,460
868.872986,456
868.990295,474
869.107727,476
869.225037,444
869.342346,473
869.459717,477
869.577026,478
869.694336,440
869.811707,486
869.929016,468
870.046326,450
870.163635,465
870.280945,458
870.398254,474
870.515564,468
870.632812,473
870.750183,469
870.867432,474
870.984741,467
871.102051,470
871.219299,466
871.336609,472
871.453918,474
871.571106,473
871.688416,455
871.805664,460
871.922852,491
872.040222,483
872.157471,465
872.274719,480
872.391968,487
872.509155,506
872.626465,452
872.743652,472
872.860962,455
872.978149,457
873.095337,459
873.212646,457
873.329834,483
873.44696,469
873.564209,467
873.681396,479
873.798645,467
873.915894,475
874.03302,448
874.150208,481
874.267456,459
874.384583,464
874.501831,464
874.618958,455
874.736145,480
874.853333,459
874.970459,444
875.087646,482
875.204834,468
875.32196,452
875.439148,485
875.556274,455
875.673401,449
875.790527,482
875.907715,464
876.024841,476
876.141968,487
876.259094,467
876.376282,472
876.493347,478
876.610474,479
876.7276,469
876.844727,465
876.961853,445
877.078918,476
877.195984,462
877.313171,477
877.430237,487
877.547302,466
877.664368,454
877.781433,458
877.898499,452
878.015625,483
878.13269,462
878.249695,477
878.366821,454
878.483887,458
878.600952,445
878.717957,470
878.834961,462
878.952087,468
879.069092,450
879.186157,452
879.303162,460
879.420227,476
879.537231,451
879.654236,458
879.77124,451
879.888306,466
880.005249,456
880.122314,455
880.239319,457
880.356323,455
880.473328,458
880.590271,454
880.707275,478
880.824341,463
880.941284,450
881.058228,463
881.175232,457
881.292236,453
881.40918,462
881.526123,460
881.643066,461
881.760071,464
881.877014,457
881.993958,462
882.11084,466
882.227783,474
882.344727,465
882.46167,461
882.578613,466
882.695618,465
882.812439,458
882.929382,459
883.046326,460
883.163208,459
883.280151,476
883.397034,458
883.513916,463
883.630798,473
883.747742,472
883.864563,470
883.981506,469
884.098389,470
884.21521,462
884.332153,475
884.448975,468
884.565796,491
884.682678,485
884.7995,467
884.916443,475
885.033264,472
885.150085,473
885.266968,474
885.383789,475
885.500671,502
885.617493,491
885.734314,488
885.851196,479
885.967896,484
886.084717,463
886.201599,498
886.318359,494
886.435181,474
886.552002,493
886.668762,478
886.785645,492
886.902344,474
887.019165,465
887.135925,477
887.252747,477
887.369446,466
887.486267,475
887.603027,454
887.719788,487
887.836548,474
887.953247,503
888.070068,475
888.186829,454
888.303528,467
888.420288,463
888.536987,468
888.653687,466
888.770447,472
888.887146,463
889.003967,467
889.120667,456
889.237305,475
889.354065,469
889.470703,478
889.587463,472
889.704163,451
889.820862,466
889.937561,481
890.054199,449
890.170837,480
890.287598,472
890.404236,478
890.520874,463
890.637634,464
890.754211,489
890.87085,457
890.987549,477
891.104187,463
891.220886,473
891.337463,451
891.454102,483
891.57074,493
891.687378,459
891.804077,475
891.920654,457
892.037231,471
892.15387,460
892.270447,457
892.387085,474
892.503723,474
892.6203,473
892.736877,459
892.853516,459
892.970032,483
893.08667,457
893.203186,469
893.319763,461
893.43634,468
893.552917,475
893.669556,467
893.786011,467
893.902588,467
894.019165,452
894.135681,458
894.252197,481
894.368835,463
894.485291,469
894.601868,479
894.718384,469
894.8349,460
894.951355,484
895.067932,454
895.184448,479
895.300964,452
895.417419,482
895.533936,470
895.650452,499
895.766907,482
895.883423,453
895.999878,478
896.116333,482
896.232849,461
896.349304,478
896.465759,466
896.582214,476
896.698669,446
896.815125,483
896.931641,465
897.048035,468
897.164551,464
897.280884,477
897.397339,476
897.513794,478
897.630249,480
897.746582,481
897.863098,464
897.979431,464
898.095886,475
898.212341,470
898.328674,473
898.445129,480
898.561462,452
898.677795,471
898.794312,478
898.910645,471
899.026978,463
899.143433,486
899.259766,471
899.37616,477
899.492493,455
899.608765,475
899.725159,474
899.841553,478
899.957947,471
900.07428,466
900.190552,465
900.306946,491
900.423157,474
900.53949,480
900.655884,488
900.772156,456
900.888489,491
901.004822,473
901.121033,474
901.237366,501
901.353699,478
901.46991,486
901.586304,452
901.702515,478
901.818787,488
901.93512,471
902.051331,492
902.167603,479
902.283875,477
902.400085,481
902.516418,474
902.632629,495
902.74884,491
902.865112,485
902.981384,469
903.097595,489
903.213867,476
903.330017,484
903.446289,485
903.5625,478
903.67865,488
903.794922,483
903.911072,484
904.027344,489
904.143494,475
904.259705,486
904.375916,470
904.492065,476
904.608215,460
904.724426,476
904.840576,482
904.956726,489
905.072876,479
905.189087,485
905.305176,467
905.421387,493
905.537537,476
905.653687,471
905.769775,480
905.885925,460
906.002014,464
906.118164,451
906.234314,477
906.350403,483
906.466492,476
906.582642,480
906.69873,482
906.814758,484
906.930908,477
907.046936,460
907.163086,467
907.279175,459
907.395264,477
907.511353,480
907.62738,484
907.743408,473
907.859497,464
907.975525,474
908.091553,501
908.207703,481
908.32373,477
908.439758,478
908.555786,472
908.671814,474
908.787842,467
908.90387,480
909.019775,464
909.135864,487
909.251892,482
909.367859,470
909.483826,463
909.599854,479
909.715881,472
909.831848,482
909.947815,466
910.063782,488
910.179749,479
910.295776,472
910.411743,475
910.527649,493
910.643616,441
910.759583,485
910.875488,470
910.991455,476
911.107361,483
911.223267,485
911.339294,479
911.4552,467
911.571106,469
911.687073,481
911.802979,488
911.918823,476
912.034729,452
912.150635,496
912.266602,487
912.382446,473
912.498352,462
912.614197,463
912.730103,471
912.846008,463
792.44574,682
792.56488,755
792.68396,739
792.80304,747
792.92218,684
793.041199,648
793.160339,646
793.279419,674
793.398499,659
793.517578,660
793.636658,631
793.755737,652
793.874817,666
793.993896,615
794.112976,648
794.232056,641
794.351074,636
794.470215,594
794.589233,597
794.708313,610
794.827393,616
794.946411,589
795.065552,608
795.18457,586
795.303589,601
795.422668,580
795.541687,604
795.660767,603
795.779846,623
795.898865,606
796.017883,596
796.136963,592
796.255981,611
796.375061,607
796.49408,599
796.613037,599
796.732117,575
796.851135,563
796.970154,589
797.089233,595
797.208191,580
797.327271,584
797.446228,595
797.565186,590
797.684265,573
797.803223,578
797.922241,572
798.04126,580
798.160278,555
798.279297,576
798.398315,565
798.517273,584
798.636292,550
798.75531,550
798.874268,572
798.993286,596
799.112244,558
799.231323,577
799.350281,560
799.469238,570
799.588257,577
799.707153,571
799.826111,552
799.945129,566
800.064087,580
800.183044,567
800.302063,558
800.421021,577
800.539978,587
800.658936,567
800.777893,586
800.896912,562
801.015747,557
801.134705,569
801.253723,588
801.37262,572
801.491638,557
801.610535,564
801.729492,560
801.84845,568
801.967407,553
802.086243,573
802.205261,556
802.324158,566
802.443115,569
802.562073,560
802.680969,562
802.799927,586
802.918762,556
803.037659,574
803.156677,559
803.275574,580
803.39447,543
803.513428,581
803.632263,592
803.751221,574
803.870117,567
803.989014,571
804.107971,565
804.226746,588
804.345642,574
804.4646,551
804.583496,575
804.702393,547
804.821228,603
804.940125,570
805.059021,535
805.177917,562
805.296814,575
805.415649,587
805.534546,572
805.653442,566
805.772278,572
805.891113,572
806.01001,576
806.128906,598
806.247742,578
806.366577,572
806.485413,598
806.604309,582
806.723145,583
806.84198,590
806.960876,570
807.079712,573
807.198486,574
807.317383,571
807.436218,568
807.554993,590
807.673889,598
807.792725,588
807.91156,603
808.030396,586
808.14917,604
808.268005,589
808.386841,581
808.505676,614
808.624451,592
808.743286,586
808.862122,593
808.980896,567
809.099731,586
809.218506,562
809.337341,599
809.456116,595
809.57489,606
809.693726,592
809.8125,586
809.931274,592
810.050049,610
810.168884,578
810.287659,591
810.406372,587
810.525269,599
810.643982,603
810.762756,562
810.881531,593
811.000305,569
811.11908,576
811.237854,565
811.356567,620
811.475403,572
811.594116,590
811.71283,620
811.831604,570
811.950378,598
812.069153,588
812.187927,579
812.30658,617
812.425415,596
812.544128,579
812.662781,575
812.781616,588
812.900269,589
813.019043,614
813.137756,590
813.256531,599
813.375244,586
813.493896,600
813.612671,602
813.731384,594
813.850037,568
813.96875,596
814.087524,576
814.206238,576
814.324951,592
814.443604,586
814.562256,559
814.68103,589
814.799683,583
814.918335,593
815.037109,605
815.155762,596
815.274475,584
815.393188,576
815.511841,582
815.630554,590
815.749146,556
815.867859,567
815.986572,582
816.105164,569
816.223877,564
816.342529,591
816.461182,552
816.579895,577
816.698486,577
816.817139,590
816.935791,576
817.054504,585
817.173096,589
817.291748,582
817.4104,584
817.529053,577
817.647644,537
817.766235,542
817.884949,569
818.00354,547
818.122192,542
818.240845,543
818.359436,521
818.478088,541
818.59668,519
818.715271,526
818.833923,516
818.952515,528
819.071106,512
819.189758,504
819.30835,498
819.426941,492
819.545532,476
819.664124,497
819.782715,492
819.901306,500
820.019897,486
820.138489,498
820.25708,493
820.375671,492
820.494202,498
820.612732,492
820.731384,511
820.849915,494
820.968506,462
821.087097,500
821.205627,490
821.324158,472
821.442749,493
821.561279,488
821.679871,490
821.798401,489
821.916931,500
822.035461,465
822.154053,476
822.272583,476
822.391174,491
822.509583,483
822.628174,485
822.746704,481
822.865234,458
822.983765,476
823.102295,470
823.220825,461
823.339294,480
823.457825,476
823.576355,466
823.694824,504
823.813354,475
823.931885,474
824.050354,471
824.168884,474
824.287354,494
824.405823,479
824.524353,468
824.642822,505
824.761353,458
824.879822,491
824.998291,468
825.116699,470
825.235291,470
825.353699,491
825.472168,486
825.590637,469
825.709106,467
825.827576,467
825.946045,472
826.064453,479
826.182983,455
826.301392,462
826.4198,454
826.53833,458
826.656738,469
826.775208,475
826.893677,468
827.012024,455
827.130493,464
827.248962,500
827.36731,484
827.485779,477
827.604248,454
827.722595,456
827.841064,457
827.959412,490
828.077942,454
828.196289,449
828.314636,460
828.433105,466
828.551514,457
828.669861,442
828.78833,449
828.906677,463
829.025085,452
829.143433,467
829.261841,467
829.38031,459
829.498657,463
829.617004,477
829.735413,472
829.85376,448
829.972107,436
830.090515,466
830.208862,432
830.327209,467
830.445557,461
830.563904,460
830.682312,452
830.800659,471
830.919006,486
831.037354,475
831.155701,456
831.274048,462
831.392395,450
831.51062,439
831.629028,454
831.747314,453
831.865662,460
831.984009,463
832.102356,473
832.220642,478
832.338928,460
832.457275,450
832.575623,457
832.693909,464
832.812134,476
832.930481,456
833.048828,473
833.167114,470
833.2854,462
833.403687,460
833.521973,463
833.640259,479
833.758545,490
833.876831,455
833.995056,464
834.113281,477
834.231628,461
834.349915,456
834.468201,464
834.586426,456
834.704651,481
834.822998,469
834.941162,458
835.059448,455
835.177673,467
835.295959,483
835.414246,472
835.53241,462
835.650635,463
835.768921,461
835.887146,461
836.005371,449
836.123596,472
836.241821,471
836.360046,451
836.478271,484
836.596497,464
836.714722,458
836.832886,455
836.95105,483
837.069336,457
837.1875,483
837.305725,475
837.423889,463
837.542053,477
837.660339,460
837.778503,470
837.896667,457
838.014832,471
838.132996,473
838.25116,461
838.369385,472
838.487488,453
838.605713,478
838.723877,485
838.84198,475
838.960205,497
839.078308,461
839.196472,457
839.314636,473
839.4328,476
839.550964,487
839.669067,483
839.787231,480
839.905396,474
840.023499,460
840.141602,464
840.259766,478
840.377869,461
840.495972,469
840.614136,462
840.732239,478
840.850342,446
840.968445,464
841.086548,454
841.204651,484
841.322754,459
841.440918,479
841.55896,464
841.677002,468
841.795166,456
841.913208,464
842.031311,463
842.149353,461
842.267456,441
842.385498,465
842.503601,468
842.621643,462
842.739746,447
842.857788,463
842.97583,462
843.093933,461
843.211975,460
843.330017,461
843.44812,469
843.566101,464
843.684204,440
843.802246,444
843.920227,479
844.038269,460
844.156311,455
844.274292,461
844.392395,448
844.510376,469
844.628357,453
844.74646,466
844.864441,478
844.982422,450
845.100403,457
845.218384,481
845.336426,452
845.454468,458
845.572449,452
845.69043,453
845.808411,470
845.926453,465
846.044373,464
846.162354,453
846.280396,483
846.398315,461
846.516296,464
846.634216,458
846.752197,473
846.870178,451
846.988098,466
847.106079,464
847.22406,476
847.34198,453
847.4599,462
847.577881,481
847.695801,448
847.813782,471
847.931641,456
848.049561,461
848.167603,456
848.285461,469
848.403381,478
848.521362,467
848.639221,457
848.75708,476
848.875,454
848.99292,472
849.110901,466
849.22876,457
849.34668,449
849.464539,463
849.582458,441
849.700317,468
849.818176,480
849.936096,463
850.053955,460
850.171875,472
850.289673,453
850.407593,466
850.525452,462
850.643311,448
850.761169,459
850.878967,466
850.996887,475
851.114746,462
851.232544,455
851.350403,466
851.468262,477
851.58606,461
851.703979,457
851.821777,451
851.939636,447
852.057434,467
852.175232,479
852.293091,458
852.410889,468
852.528687,454
852.646545,463
852.764343,479
852.88208,453
852.999939,469
853.117676,464
853.235535,466
853.353271,465
853.471069,466
853.588928,462
853.706604,460
853.824402,438
853.9422,470
854.059998,460
854.177734,475
854.295532,467
854.413269,472
854.531006,465
854.648804,488
854.766541,469
854.884277,491
855.002014,461
855.119751,469
855.237549,473
855.355225,459
855.473022,465
855.590698,466
855.708435,461
855.826172,494
855.943848,469
856.061646,475
856.179321,457
856.296997,458
856.414795,469
856.53241,472
856.650085,488
856.767822,455
856.885559,480
857.003174,465
857.120911,488
857.238586,472
857.356201,469
857.473938,472
857.591614,464
857.709351,457
857.826965,467
857.944641,457
858.062317,462
858.179993,472
858.297668,441
858.415283,434
858.532959,482
858.650574,471
858.768188,461
858.885803,466
859.003479,451
859.121094,471
859.23877,474
859.356384,469
859.473999,465
859.591675,460
859.709229,456
859.826843,444
859.944458,480
860.062012,448
860.179626,465
860.297302,467
860.414856,458
860.532471,459
860.650024,465
860.767639,472
860.885193,458
861.002808,474
861.120361,473
861.237976,462
861.35553,465
861.473022,455
861.590698,441
861.708191,455
861.825745,465
861.943298,468
862.060852,450
862.178406,459
862.295959,467
862.413513,472
862.531006,461
862.64856,463
862.766113,463
862.883667,444
863.00116,482
863.118713,444
863.236206,449
863.353699,457
863.471252,472
863.588745,453
863.706177,461
863.82373,448
863.941162,464
864.058716,474
864.176208,464
864.29364,472
864.411194,470
864.528687,483
864.646118,467
864.763611,466
864.881042,441
864.998535,459
865.116028,450
865.233459,488
865.350891,476
865.468384,466
865.585754,477
865.703308,472
865.820679,447
865.938171,472
866.055542,473
866.173035,479
866.290466,459
866.407837,477
866.52533,476
866.6427,464
866.760071,453
866.877563,462
866.994934,474
867.112305,465
867.229736,447
867.347107,460
867.464539,456
867.58197,469
867.699341,474
867.81665,461
867.934082,466
868.051453,462
868.168823,472
868.286194,470
868.403564,468
868.520935,459
868.638306,462
868.755676,459
868.872986,478
868.990295,464
869.107727,463
869.225037,462
869.342346,445
869.459717,472
869.577026,462
869.694336,463
869.811707,459
869.929016,472
870.046326,452
870.163635,492
870.280945,468
870.398254,468
870.515564,446
870.632812,476
870.750183,472
870.867432,467
870.984741,462
871.102051,486
871.219299,467
871.336609,492
871.453918,480
871.571106,485
871.688416,474
871.805664,457
871.922852,472
872.040222,482
872.157471,484
872.274719,472
872.391968,474
872.509155,478
872.626465,492
872.743652,474
872.860962,472
872.978149,466
873.095337,465
873.212646,455
873.329834,469
873.44696,462
873.564209,447
873.681396,458
873.798645,485
873.915894,469
874.03302,471
874.150208,478
874.267456,462
874.384583,487
874.501831,477
874.618958,471
874.736145,472
874.853333,475
874.970459,468
875.087646,470
875.204834,465
875.32196,472
875.439148,476
875.556274,478
875.673401,473
875.790527,457
875.907715,454
876.024841,473
876.141968,459
876.259094,494
876.376282,469
876.493347,473
876.610474,474
876.7276,480
876.844727,461
876.961853,472
877.078918,476
877.195984,467
877.313171,451
877.430237,462
877.547302,448
877.664368,486
877.781433,458
877.898499,479
878.015625,486
878.13269,488
878.249695,476
878.366821,485
878.483887,458
878.600952,471
878.717957,471
878.834961,465
878.952087,445
879.069092,491
879.186157,480
879.303162,446
879.420227,497
879.537231,471
879.654236,470
879.77124,475
879.888306,446
880.005249,462
880.122314,444
880.239319,459
880.356323,468
880.473328,469
880.590271,454
880.707275,457
880.824341,465
880.941284,482
881.058228,464
881.175232,455
881.292236,451
881.40918,483
881.526123,459
881.643066,445
881.760071,476
881.877014,458
881.993958,452
882.11084,469
882.227783,467
882.344727,460
882.46167,461
882.578613,462
882.695618,472
882.812439,450
882.929382,445
883.046326,473
883.163208,459
883.280151,484
883.397034,460
883.513916,474
883.630798,459
883.747742,450
883.864563,464
883.981506,481
884.098389,460
884.21521,468
884.332153,468
884.448975,470
884.565796,464
884.682678,480
884.7995,483
884.916443,479
885.033264,486
885.150085,464
885.266968,475
885.383789,477
885.500671,481
885.617493,482
885.734314,473
885.851196,487
885.967896,476
886.084717,488
886.201599,479
886.318359,467
886.435181,473
886.552002,484
886.668762,496
886.785645,483
886.902344,488
887.019165,465
887.135925,483
887.252747,471
887.369446,490
887.486267,480
887.603027,466
887.719788,474
887.836548,484
887.953247,475
888.070068,455
888.186829,467
888.303528,454
888.420288,455
888.536987,464
888.653687,477
888.770447,454
888.887146,464
889.003967,457
889.120667,463
889.237305,467
889.354065,476
889.470703,464
889.587463,469
889.704163,462
889.820862,450
889.937561,470
890.054199,466
890.170837,463
890.287598,464
890.404236,461
890.520874,455
890.637634,483
890.754211,473
890.87085,470
890.987549,455
891.104187,469
891.220886,467
891.337463,461
891.454102,477
891.57074,483
891.687378,486
891.804077,462
891.920654,459
892.037231,472
892.15387,460
892.270447,460
892.387085,463
892.503723,483
892.6203,482
892.736877,471
892.853516,459
892.970032,462
893.08667,470
893.203186,483
893.319763,471
893.43634,454
893.552917,485
893.669556,483
893.786011,467
893.902588,456
894.019165,471
894.135681,494
894.252197,487
894.368835,479
894.485291,480
894.601868,448
894.718384,481
894.8349,465
894.951355,476
895.067932,458
895.184448,473
895.300964,489
895.417419,463
895.533936,468
895.650452,470
895.766907,477
895.883423,460
895.999878,482
896.116333,473
896.232849,455
896.349304,473
896.465759,465
896.582214,482
896.698669,477
896.815125,452
896.931641,470
897.048035,468
897.164551,473
897.280884,468
897.397339,467
897.513794,466
897.630249,474
897.746582,468
897.863098,459
897.979431,472
898.095886,477
898.212341,499
898.328674,467
898.445129,484
898.561462,462
898.677795,461
898.794312,488
898.910645,487
899.026978,472
899.143433,480
899.259766,474
899.37616,467
899.492493,467
899.608765,482
899.725159,464
899.841553,484
899.957947,479
900.07428,475
900.190552,457
900.306946,481
900.423157,478
900.53949,470
900.655884,468
900.772156,473
900.888489,482
901.004822,450
901.121033,474
901.237366,475
901.353699,470
901.46991,493
901.586304,466
901.702515,474
901.818787,464
901.93512,493
902.051331,493
902.167603,473
902.283875,488
902.400085,473
902.516418,493
902.632629,501
902.74884,485
902.865112,470
902.981384,500
903.097595,510
903.213867,488
903.330017,500
903.446289,467
903.5625,482
903.67865,474
903.794922,486
903.911072,487
904.027344,493
904.143494,492
904.259705,491
904.375916,486
904.492065,471
904.608215,471
904.724426,480
904.840576,491
904.956726,471
905.072876,471
905.189087,475
905.305176,479
905.421387,485
905.537537,479
905.653687,474
905.769775,487
905.885925,486
906.002014,482
906.118164,477
906.234314,473
906.350403,476
906.466492,477
906.582642,471
906.69873,473
906.814758,467
906.930908,477
907.046936,486
907.163086,486
907.279175,452
907.395264,464
907.511353,492
907.62738,487
907.743408,484
907.859497,485
907.975525,477
908.091553,481
908.207703,473
908.32373,487
908.439758,488
908.555786,468
908.671814,485
908.787842,468
908.90387,483
909.019775,483
909.135864,486
909.251892,470
909.367859,486
909.483826,472
909.599854,487
909.715881,472
909.831848,472
909.947815,482
910.063782,468
910.179749,491
910.295776,481
910.411743,473
910.527649,477
910.643616,480
910.759583,491
910.875488,479
910.991455,478
911.107361,480
911.223267,488
911.339294,479
911.4552,479
911.571106,477
911.687073,474
911.802979,469
911.918823,490
912.034729,476
912.150635,475
912.266602,476
912.382446,485
912.498352,462
912.614197,476
912.730103,475
912.846008,465
