792.44574,505
792.56488,563
792.68396,589
792.80304,603
792.92218,514
793.041199,502
793.160339,519
793.279419,510
793.398499,533
793.517578,524
793.636658,512
793.755737,514
793.874817,515
793.993896,534
794.112976,510
794.232056,499
794.351074,514
794.470215,497
794.589233,528
794.708313,518
794.827393,493
794.946411,497
795.065552,514
795.18457,510
795.303589,512
795.422668,490
795.541687,499
795.660767,493
795.779846,495
795.898865,512
796.017883,517
796.136963,505
796.255981,501
796.375061,491
796.49408,529
796.613037,502
796.732117,493
796.851135,502
796.970154,502
797.089233,488
797.208191,488
797.327271,502
797.446228,504
797.565186,507
797.684265,500
797.803223,514
797.922241,500
798.04126,496
798.160278,495
798.279297,498
798.398315,484
798.517273,487
798.636292,514
798.75531,484
798.874268,495
798.993286,510
799.112244,493
799.231323,488
799.350281,492
799.469238,506
799.588257,495
799.707153,509
799.826111,519
799.945129,516
800.064087,491
800.183044,496
800.302063,505
800.421021,499
800.539978,517
800.658936,488
800.777893,497
800.896912,494
801.015747,484
801.134705,492
801.253723,477
801.37262,501
801.491638,490
801.610535,484
801.729492,497
801.84845,473
801.967407,516
802.086243,493
802.205261,500
802.324158,493
802.443115,493
802.562073,495
802.680969,494
802.799927,472
802.918762,485
803.037659,485
803.156677,512
803.275574,486
803.39447,497
803.513428,506
803.632263,513
803.751221,500
803.870117,507
803.989014,497
804.107971,492
804.226746,490
804.345642,487
804.4646,499
804.583496,502
804.702393,498
804.821228,507
804.940125,485
805.059021,493
805.177917,498
805.296814,501
805.415649,483
805.534546,513
805.653442,496
805.772278,496
805.891113,482
806.01001,503
806.128906,490
806.247742,498
806.366577,500
806.485413,489
806.604309,495
806.723145,512
806.84198,492
806.960876,514
807.079712,484
807.198486,495
807.317383,484
807.436218,488
807.554993,492
807.673889,498
807.792725,481
807.91156,507
808.030396,482
808.14917,500
808.268005,487
808.386841,483
808.505676,498
808.624451,508
808.743286,496
808.862122,509
808.980896,494
809.099731,511
809.218506,505
809.337341,505
809.456116,495
809.57489,517
809.693726,494
809.8125,494
809.931274,488
810.050049,502
810.168884,477
810.287659,510
810.406372,512
810.525269,483
810.643982,513
810.762756,516
810.881531,496
811.000305,508
811.11908,505
811.237854,486
811.356567,481
811.475403,498
811.594116,492
811.71283,500
811.831604,500
811.950378,502
812.069153,503
812.187927,496
812.30658,495
812.425415,493
812.544128,505
812.662781,497
812.781616,484
812.900269,490
813.019043,487
813.137756,491
813.256531,501
813.375244,491
813.493896,490
813.612671,515
813.731384,501
813.850037,496
813.96875,516
814.087524,495
814.206238,498
814.324951,499
814.443604,505
814.562256,517
814.68103,496
814.799683,512
814.918335,487
815.037109,505
815.155762,477
815.274475,509
815.393188,497
815.511841,489
815.630554,498
815.749146,501
815.867859,489
815.986572,495
816.105164,491
816.223877,476
816.342529,501
816.461182,478
816.579895,472
816.698486,494
816.817139,490
816.935791,484
817.054504,489
817.173096,502
817.291748,497
817.4104,484
817.529053,484
817.647644,495
817.766235,496
817.884949,497
818.00354,476
818.122192,481
818.240845,475
818.359436,486
818.478088,495
818.59668,480
818.715271,477
818.833923,483
818.952515,452
819.071106,469
819.189758,458
819.30835,477
819.426941,474
819.545532,453
819.664124,464
819.782715,458
819.901306,469
820.019897,471
820.138489,452
820.25708,484
820.375671,470
820.494202,478
820.612732,465
820.731384,481
820.849915,473
820.968506,482
821.087097,468
821.205627,464
821.324158,471
821.442749,465
821.561279,446
821.679871,478
821.798401,482
821.916931,463
822.035461,455
822.154053,459
822.272583,456
822.391174,444
822.509583,459
822.628174,473
822.746704,452
822.865234,451
822.983765,470
823.102295,449
823.220825,463
823.339294,466
823.457825,431
823.576355,465
823.694824,454
823.813354,453
823.931885,452
824.050354,480
824.168884,480
824.287354,453
824.405823,447
824.524353,465
824.642822,466
824.761353,466
824.879822,457
824.998291,439
825.116699,454
825.235291,476
825.353699,452
825.472168,454
825.590637,445
825.709106,455
825.827576,442
825.946045,462
826.064453,463
826.182983,448
826.301392,458
826.4198,485
826.53833,436
826.656738,474
826.775208,472
826.893677,448
827.012024,455
827.130493,449
827.248962,460
827.36731,444
827.485779,454
827.604248,460
827.722595,456
827.841064,464
827.959412,436
828.077942,472
828.196289,444
828.314636,466
828.433105,462
828.551514,463
828.669861,457
828.78833,464
828.906677,470
829.025085,433
829.143433,451
829.261841,462
829.38031,466
829.498657,450
829.617004,443
829.735413,447
829.85376,451
829.972107,438
830.090515,425
830.208862,457
830.327209,439
830.445557,446
830.563904,468
830.682312,433
830.800659,450
830.919006,439
831.037354,447
831.155701,480
831.274048,452
831.392395,457
831.51062,451
831.629028,433
831.747314,473
831.865662,434
831.984009,457
832.102356,440
832.220642,457
832.338928,461
832.457275,433
832.575623,466
832.693909,446
832.812134,450
832.930481,434
833.048828,462
833.167114,445
833.2854,453
833.403687,448
833.521973,454
833.640259,424
833.758545,448
833.876831,459
833.995056,461
834.113281,430
834.231628,449
834.349915,444
834.468201,458
834.586426,449
834.704651,453
834.822998,450
834.941162,449
835.059448,462
835.177673,442
835.295959,442
835.414246,460
835.53241,430
835.650635,443
835.768921,446
835.887146,441
836.005371,462
836.123596,447
836.241821,440
836.360046,441
836.478271,468
836.596497,454
836.714722,453
836.832886,458
836.95105,459
837.069336,450
837.1875,465
837.305725,447
837.423889,446
837.542053,450
837.660339,443
837.778503,445
837.896667,452
838.014832,462
838.132996,443
838.25116,444
838.369385,451
838.487488,455
838.605713,454
838.723877,457
838.84198,473
838.960205,458
839.078308,455
839.196472,461
839.314636,428
839.4328,441
839.550964,463
839.669067,458
839.787231,441
839.905396,450
840.023499,446
840.141602,444
840.259766,441
840.377869,463
840.495972,455
840.614136,446
840.732239,430
840.850342,447
840.968445,450
841.086548,456
841.204651,440
841.322754,440
841.440918,450
841.55896,462
841.677002,448
841.795166,463
841.913208,462
842.031311,447
842.149353,449
842.267456,458
842.385498,458
842.503601,447
842.621643,440
842.739746,450
842.857788,450
842.97583,447
843.093933,445
843.211975,449
843.330017,445
843.44812,435
843.566101,458
843.684204,448
843.802246,445
843.920227,456
844.038269,441
844.156311,450
844.274292,436
844.392395,447
844.510376,441
844.628357,427
844.74646,449
844.864441,462
844.982422,460
845.100403,439
845.218384,459
845.336426,446
845.454468,456
845.572449,429
845.69043,476
845.808411,471
845.926453,464
846.044373,438
846.162354,447
846.280396,445
846.398315,442
846.516296,465
846.634216,444
846.752197,467
846.870178,429
846.988098,453
847.106079,445
847.22406,447
847.34198,438
847.4599,449
847.577881,440
847.695801,453
847.813782,438
847.931641,467
848.049561,435
848.167603,431
848.285461,450
848.403381,460
848.521362,432
848.639221,447
848.75708,449
848.875,461
848.99292,433
849.110901,457
849.22876,446
849.34668,446
849.464539,443
849.582458,453
849.700317,446
849.818176,443
849.936096,456
850.053955,471
850.171875,449
850.289673,447
850.407593,455
850.525452,434
850.643311,467
850.761169,452
850.878967,463
850.996887,421
851.114746,444
851.232544,459
851.350403,434
851.468262,469
851.58606,446
851.703979,463
851.821777,453
851.939636,448
852.057434,442
852.175232,459
852.293091,436
852.410889,455
852.528687,450
852.646545,454
852.764343,444
852.88208,444
852.999939,458
853.117676,431
853.235535,451
853.353271,431
853.471069,443
853.588928,448
853.706604,429
853.824402,439
853.9422,448
854.059998,432
854.177734,438
854.295532,461
854.413269,458
854.531006,446
854.648804,451
854.766541,457
854.884277,461
855.002014,462
855.119751,444
855.237549,439
855.355225,434
855.473022,463
855.590698,444
855.708435,445
855.826172,453
855.943848,451
856.061646,434
856.179321,461
856.296997,439
856.414795,444
856.53241,456
856.650085,450
856.767822,459
856.885559,443
857.003174,450
857.120911,463
857.238586,441
857.356201,462
857.473938,453
857.591614,446
857.709351,448
857.826965,457
857.944641,462
858.062317,450
858.179993,451
858.297668,443
858.415283,449
858.532959,447
858.650574,451
858.768188,464
858.885803,456
859.003479,443
859.121094,452
859.23877,454
859.356384,454
859.473999,476
859.591675,446
859.709229,451
859.826843,456
859.944458,462
860.062012,439
860.179626,450
860.297302,459
860.414856,446
860.532471,459
860.650024,434
860.767639,451
860.885193,476
861.002808,442
861.120361,451
861.237976,457
861.35553,451
861.473022,467
861.590698,468
861.708191,452
861.825745,460
861.943298,451
862.060852,442
862.178406,457
862.295959,467
862.413513,448
862.531006,478
862.64856,467
862.766113,446
862.883667,444
863.00116,445
863.118713,455
863.236206,452
863.353699,464
863.471252,460
863.588745,445
863.706177,449
863.82373,456
863.941162,452
864.058716,439
864.176208,452
864.29364,436
864.411194,462
864.528687,445
864.646118,452
864.763611,457
864.881042,460
864.998535,477
865.116028,446
865.233459,447
865.350891,442
865.468384,444
865.585754,463
865.703308,460
865.820679,458
865.938171,450
866.055542,442
866.173035,458
866.290466,449
866.407837,445
866.52533,452
866.6427,435
866.760071,452
866.877563,453
866.994934,459
867.112305,455
867.229736,452
867.347107,464
867.464539,468
867.58197,444
867.699341,448
867.81665,454
867.934082,435
868.051453,466
868.168823,449
868.286194,445
868.403564,451
868.520935,436
868.638306,454
868.755676,444
868.872986,453
868.990295,449
869.107727,458
869.225037,447
869.342346,454
869.459717,442
869.577026,447
869.694336,466
869.811707,467
869.929016,454
870.046326,453
870.163635,449
870.280945,456
870.398254,438
870.515564,452
870.632812,453
870.750183,471
870.867432,442
870.984741,454
871.102051,453
871.219299,453
871.336609,464
871.453918,463
871.571106,454
871.688416,434
871.805664,451
871.922852,435
872.040222,467
872.157471,476
872.274719,457
872.391968,479
872.509155,457
872.626465,452
872.743652,458
872.860962,454
872.978149,440
873.095337,465
873.212646,452
873.329834,457
873.44696,451
873.564209,460
873.681396,464
873.798645,455
873.915894,451
874.03302,455
874.150208,442
874.267456,455
874.384583,436
874.501831,467
874.618958,443
874.736145,462
874.853333,457
874.970459,462
875.087646,447
875.204834,438
875.32196,452
875.439148,458
875.556274,451
875.673401,468
875.790527,457
875.907715,459
876.024841,451
876.141968,470
876.259094,441
876.376282,464
876.493347,454
876.610474,467
876.7276,465
876.844727,467
876.961853,442
877.078918,455
877.195984,448
877.313171,447
877.430237,466
877.547302,448
877.664368,448
877.781433,460
877.898499,465
878.015625,445
878.13269,440
878.249695,464
878.366821,460
878.483887,467
878.600952,459
878.717957,459
878.834961,471
878.952087,454
879.069092,470
879.186157,475
879.303162,461
879.420227,470
879.537231,443
879.654236,470
879.77124,475
879.888306,474
880.005249,455
880.122314,458
880.239319,441
880.356323,452
880.473328,455
880.590271,463
880.707275,456
880.824341,462
880.941284,432
881.058228,439
881.175232,451
881.292236,474
881.40918,462
881.526123,448
881.643066,446
881.760071,477
881.877014,443
881.993958,472
882.11084,458
882.227783,482
882.344727,439
882.46167,444
882.578613,453
882.695618,468
882.812439,458
882.929382,456
883.046326,464
883.163208,481
883.280151,455
883.397034,466
883.513916,454
883.630798,453
883.747742,451
883.864563,480
883.981506,437
884.098389,466
884.21521,448
884.332153,472
884.448975,459
884.565796,450
884.682678,458
884.7995,447
884.916443,454
885.033264,481
885.150085,464
885.266968,482
885.383789,464
885.500671,455
885.617493,456
885.734314,466
885.851196,455
885.967896,458
886.084717,464
886.201599,466
886.318359,452
886.435181,472
886.552002,462
886.668762,465
886.785645,457
886.902344,483
887.019165,491
887.135925,468
887.252747,462
887.369446,463
887.486267,460
887.603027,470
887.719788,444
887.836548,472
887.953247,468
888.070068,449
888.186829,459
888.303528,466
888.420288,435
888.536987,476
888.653687,473
888.770447,469
888.887146,462
889.003967,460
889.120667,465
889.237305,475
889.354065,463
889.470703,473
889.587463,465
889.704163,459
889.820862,463
889.937561,455
890.054199,442
890.170837,470
890.287598,451
890.404236,462
890.520874,455
890.637634,479
890.754211,472
890.87085,463
890.987549,458
891.104187,455
891.220886,442
891.337463,475
891.454102,469
891.57074,441
891.687378,456
891.804077,451
891.920654,456
892.037231,477
892.15387,432
892.270447,470
892.387085,478
892.503723,481
892.6203,483
892.736877,471
892.853516,468
892.970032,452
893.08667,477
893.203186,453
893.319763,475
893.43634,471
893.552917,473
893.669556,468
893.786011,450
893.902588,465
894.019165,457
894.135681,469
894.252197,466
894.368835,487
894.485291,470
894.601868,474
894.718384,455
894.8349,472
894.951355,466
895.067932,470
895.184448,456
895.300964,470
895.417419,470
895.533936,469
895.650452,462
895.766907,463
895.883423,465
895.999878,457
896.116333,459
896.232849,471
896.349304,465
896.465759,472
896.582214,475
896.698669,489
896.815125,469
896.931641,469
897.048035,480
897.164551,455
897.280884,445
897.397339,474
897.513794,479
897.630249,459
897.746582,470
897.863098,494
897.979431,468
898.095886,515
898.212341,464
898.328674,463
898.445129,458
898.561462,479
898.677795,465
898.794312,475
898.910645,479
899.026978,477
899.143433,465
899.259766,464
899.37616,463
899.492493,456
899.608765,467
899.725159,475
899.841553,470
899.957947,482
900.07428,456
900.190552,478
900.306946,482
900.423157,475
900.53949,466
900.655884,464
900.772156,452
900.888489,473
901.004822,469
901.121033,472
901.237366,488
901.353699,470
901.46991,453
901.586304,467
901.702515,459
901.818787,472
901.93512,462
902.051331,487
902.167603,479
902.283875,470
902.400085,463
902.516418,481
902.632629,478
902.74884,468
902.865112,466
902.981384,476
903.097595,467
903.213867,470
903.330017,484
903.446289,480
903.5625,472
903.67865,475
903.794922,474
903.911072,478
904.027344,461
904.143494,462
904.259705,467
904.375916,485
904.492065,458
904.608215,484
904.724426,480
904.840576,476
904.956726,450
905.072876,474
905.189087,465
905.305176,475
905.421387,457
905.537537,472
905.653687,470
905.769775,451
905.885925,464
906.002014,446
906.118164,486
906.234314,472
906.350403,473
906.466492,483
906.582642,486
906.69873,467
906.814758,474
906.930908,464
907.046936,479
907.163086,496
907.279175,477
907.395264,477
907.511353,458
907.62738,485
907.743408,493
907.859497,462
907.975525,462
908.091553,482
908.207703,474
908.32373,476
908.439758,485
908.555786,493
908.671814,484
908.787842,487
908.90387,453
909.019775,475
909.135864,466
909.251892,466
909.367859,477
909.483826,483
909.599854,473
909.715881,473
909.831848,473
909.947815,504
910.063782,476
910.179749,478
910.295776,481
910.411743,486
910.527649,458
910.643616,473
910.759583,460
910.875488,481
910.991455,462
911.107361,474
911.223267,461
911.339294,467
911.4552,471
911.571106,468
911.687073,466
911.802979,486
911.918823,464
912.034729,474
912.150635,489
912.266602,467
912.382446,488
912.498352,480
912.614197,480
912.730103,471
912.846008,466
792.44574,553
792.56488,564
792.68396,602
792.80304,574
792.92218,545
793.041199,498
793.160339,508
793.279419,524
793.398499,525
793.517578,515
793.636658,486
793.755737,524
793.874817,523
793.993896,513
794.112976,522
794.232056,506
794.351074,510
794.470215,508
794.589233,512
794.708313,506
794.827393,494
794.946411,499
795.065552,513
795.18457,508
795.303589,483
795.422668,515
795.541687,523
795.660767,521
795.779846,515
795.898865,494
796.017883,491
796.136963,507
796.255981,506
796.375061,515
796.49408,509
796.613037,497
796.732117,494
796.851135,505
796.970154,496
797.089233,504
797.208191,516
797.327271,503
797.446228,497
797.565186,475
797.684265,479
797.803223,515
797.922241,513
798.04126,498
798.160278,492
798.279297,467
798.398315,522
798.517273,485
798.636292,505
798.75531,482
798.874268,499
798.993286,506
799.112244,495
799.231323,500
799.350281,484
799.469238,491
799.588257,497
799.707153,495
799.826111,491
799.945129,491
800.064087,495
800.183044,501
800.302063,501
800.421021,483
800.539978,488
800.658936,478
800.777893,502
800.896912,482
801.015747,491
801.134705,492
801.253723,495
801.37262,484
801.491638,504
801.610535,482
801.729492,497
801.84845,514
801.967407,493
802.086243,499
802.205261,497
802.324158,496
802.443115,516
802.562073,491
802.680969,497
802.799927,477
802.918762,484
803.037659,481
803.156677,503
803.275574,484
803.39447,492
803.513428,503
803.632263,501
803.751221,486
803.870117,497
803.989014,474
804.107971,516
804.226746,495
804.345642,493
804.4646,495
804.583496,490
804.702393,488
804.821228,473
804.940125,497
805.059021,497
805.177917,517
805.296814,492
805.415649,503
805.534546,522
805.653442,490
805.772278,485
805.891113,500
806.01001,492
806.128906,514
806.247742,500
806.366577,487
806.485413,494
806.604309,473
806.723145,499
806.84198,501
806.960876,510
807.079712,479
807.198486,521
807.317383,516
807.436218,498
807.554993,504
807.673889,507
807.792725,469
807.91156,508
808.030396,487
808.14917,490
808.268005,503
808.386841,503
808.505676,499
808.624451,499
808.743286,501
808.862122,476
808.980896,502
809.099731,522
809.218506,506
809.337341,497
809.456116,502
809.57489,532
809.693726,489
809.8125,517
809.931274,507
810.050049,520
810.168884,503
810.287659,476
810.406372,488
810.525269,509
810.643982,499
810.762756,495
810.881531,500
811.000305,511
811.11908,503
811.237854,509
811.356567,481
811.475403,495
811.594116,503
811.71283,512
811.831604,503
811.950378,507
812.069153,492
812.187927,487
812.30658,475
812.425415,500
812.544128,496
812.662781,514
812.781616,512
812.900269,498
813.019043,502
813.137756,493
813.256531,505
813.375244,518
813.493896,495
813.612671,494
813.731384,503
813.850037,513
813.96875,515
814.087524,497
814.206238,490
814.324951,500
814.443604,494
814.562256,492
814.68103,488
814.799683,510
814.918335,509
815.037109,490
815.155762,506
815.274475,481
815.393188,492
815.511841,490
815.630554,494
815.749146,506
815.867859,485
815.986572,495
816.105164,492
816.223877,498
816.342529,475
816.461182,493
816.579895,495
816.698486,458
816.817139,492
816.935791,490
817.054504,507
817.173096,489
817.291748,491
817.4104,512
817.529053,486
817.647644,486
817.766235,476
817.884949,498
818.00354,515
818.122192,485
818.240845,468
818.359436,481
818.478088,485
818.59668,488
818.715271,478
818.833923,464
818.952515,480
819.071106,467
819.189758,471
819.30835,474
819.426941,452
819.545532,470
819.664124,475
819.782715,477
819.901306,473
820.019897,461
820.138489,479
820.25708,472
820.375671,451
820.494202,484
820.612732,454
820.731384,464
820.849915,470
820.968506,448
821.087097,462
821.205627,478
821.324158,476
821.442749,468
821.561279,455
821.679871,460
821.798401,441
821.916931,467
822.035461,468
822.154053,440
822.272583,474
822.391174,475
822.509583,471
822.628174,458
822.746704,469
822.865234,456
822.983765,470
823.102295,474
823.220825,456
823.339294,468
823.457825,468
823.576355,458
823.694824,472
823.813354,462
823.931885,467
824.050354,452
824.168884,465
824.287354,469
824.405823,474
824.524353,458
824.642822,447
824.761353,460
824.879822,466
824.998291,470
825.116699,458
825.235291,447
825.353699,462
825.472168,450
825.590637,459
825.709106,482
825.827576,461
825.946045,442
826.064453,454
826.182983,454
826.301392,461
826.4198,457
826.53833,459
826.656738,455
826.775208,485
826.893677,455
827.012024,460
827.130493,451
827.248962,465
827.36731,463
827.485779,448
827.604248,464
827.722595,440
827.841064,451
827.959412,454
828.077942,446
828.196289,447
828.314636,471
828.433105,456
828.551514,470
828.669861,478
828.78833,446
828.906677,446
829.025085,443
829.143433,451
829.261841,447
829.38031,455
829.498657,432
829.617004,457
829.735413,449
829.85376,447
829.972107,449
830.090515,447
830.208862,457
830.327209,450
830.445557,461
830.563904,462
830.682312,440
830.800659,468
830.919006,437
831.037354,432
831.155701,471
831.274048,442
831.392395,458
831.51062,443
831.629028,461
831.747314,458
831.865662,441
831.984009,473
832.102356,440
832.220642,459
832.338928,432
832.457275,436
832.575623,454
832.693909,443
832.812134,442
832.930481,440
833.048828,437
833.167114,448
833.2854,430
833.403687,460
833.521973,450
833.640259,432
833.758545,450
833.876831,453
833.995056,433
834.113281,434
834.231628,473
834.349915,453
834.468201,442
834.586426,439
834.704651,451
834.822998,451
834.941162,474
835.059448,455
835.177673,454
835.295959,449
835.414246,432
835.53241,453
835.650635,452
835.768921,455
835.887146,459
836.005371,458
836.123596,444
836.241821,453
836.360046,459
836.478271,448
836.596497,436
836.714722,458
836.832886,465
836.95105,440
837.069336,460
837.1875,440
837.305725,463
837.423889,457
837.542053,459
837.660339,445
837.778503,454
837.896667,447
838.014832,438
838.132996,453
838.25116,434
838.369385,458
838.487488,452
838.605713,449
838.723877,461
838.84198,445
838.960205,449
839.078308,454
839.196472,448
839.314636,453
839.4328,459
839.550964,448
839.669067,451
839.787231,458
839.905396,444
840.023499,447
840.141602,454
840.259766,459
840.377869,439
840.495972,443
840.614136,443
840.732239,446
840.850342,451
840.968445,458
841.086548,442
841.204651,439
841.322754,458
841.440918,436
841.55896,466
841.677002,438
841.795166,454
841.913208,429
842.031311,463
842.149353,455
842.267456,454
842.385498,450
842.503601,435
842.621643,450
842.739746,454
842.857788,438
842.97583,459
843.093933,442
843.211975,434
843.330017,447
843.44812,455
843.566101,459
843.684204,453
843.802246,435
843.920227,444
844.038269,433
844.156311,437
844.274292,459
844.392395,459
844.510376,463
844.628357,448
844.74646,444
844.864441,444
844.982422,435
845.100403,455
845.218384,439
845.336426,428
845.454468,433
845.572449,459
845.69043,446
845.808411,454
845.926453,442
846.044373,449
846.162354,451
846.280396,452
846.398315,427
846.516296,442
846.634216,440
846.752197,449
846.870178,452
846.988098,460
847.106079,449
847.22406,445
847.34198,432
847.4599,443
847.577881,445
847.695801,428
847.813782,464
847.931641,442
848.049561,450
848.167603,447
848.285461,460
848.403381,443
848.521362,460
848.639221,445
848.75708,443
848.875,445
848.99292,460
849.110901,458
849.22876,453
849.34668,449
849.464539,467
849.582458,459
849.700317,458
849.818176,451
849.936096,456
850.053955,450
850.171875,441
850.289673,455
850.407593,451
850.525452,464
850.643311,458
850.761169,465
850.878967,450
850.996887,441
851.114746,424
851.232544,449
851.350403,459
851.468262,452
851.58606,435
851.703979,460
851.821777,450
851.939636,452
852.057434,464
852.175232,454
852.293091,433
852.410889,460
852.528687,464
852.646545,462
852.764343,467
852.88208,456
852.999939,451
853.117676,447
853.235535,444
853.353271,442
853.471069,454
853.588928,442
853.706604,436
853.824402,478
853.9422,445
854.059998,442
854.177734,447
854.295532,450
854.413269,442
854.531006,451
854.648804,444
854.766541,455
854.884277,444
855.002014,446
855.119751,436
855.237549,444
855.355225,464
855.473022,456
855.590698,466
855.708435,452
855.826172,451
855.943848,438
856.061646,440
856.179321,461
856.296997,440
856.414795,457
856.53241,455
856.650085,449
856.767822,455
856.885559,459
857.003174,438
857.120911,452
857.238586,437
857.356201,453
857.473938,474
857.591614,445
857.709351,442
857.826965,444
857.944641,453
858.062317,457
858.179993,441
858.297668,449
858.415283,443
858.532959,469
858.650574,447
858.768188,441
858.885803,446
859.003479,461
859.121094,443
859.23877,446
859.356384,449
859.473999,458
859.591675,450
859.709229,446
859.826843,453
859.944458,445
860.062012,451
860.179626,444
860.297302,454
860.414856,471
860.532471,449
860.650024,461
860.767639,468
860.885193,454
861.002808,450
861.120361,443
861.237976,445
861.35553,452
861.473022,441
861.590698,450
861.708191,464
861.825745,457
861.943298,444
862.060852,442
862.178406,457
862.295959,454
862.413513,424
862.531006,444
862.64856,452
862.766113,451
862.883667,429
863.00116,443
863.118713,443
863.236206,473
863.353699,453
863.471252,441
863.588745,446
863.706177,467
863.82373,453
863.941162,440
864.058716,450
864.176208,464
864.29364,452
864.411194,444
864.528687,439
864.646118,455
864.763611,448
864.881042,442
864.998535,447
865.116028,437
865.233459,450
865.350891,451
865.468384,443
865.585754,449
865.703308,441
865.820679,468
865.938171,454
866.055542,454
866.173035,453
866.290466,449
866.407837,456
866.52533,445
866.6427,448
866.760071,470
866.877563,442
866.994934,460
867.112305,446
867.229736,462
867.347107,456
867.464539,458
867.58197,466
867.699341,462
867.81665,436
867.934082,469
868.051453,446
868.168823,456
868.286194,460
868.403564,454
868.520935,446
868.638306,449
868.755676,449
868.872986,474
868.990295,452
869.107727,452
869.225037,455
869.342346,451
869.459717,438
869.577026,451
869.694336,455
869.811707,462
869.929016,456
870.046326,469
870.163635,460
870.280945,457
870.398254,447
870.515564,467
870.632812,457
870.750183,460
870.867432,450
870.984741,454
871.102051,468
871.219299,458
871.336609,470
871.453918,471
871.571106,438
871.688416,455
871.805664,440
871.922852,455
872.040222,434
872.157471,469
872.274719,457
872.391968,465
872.509155,448
872.626465,470
872.743652,454
872.860962,459
872.978149,460
873.095337,460
873.212646,464
873.329834,464
873.44696,463
873.564209,457
873.681396,459
873.798645,461
873.915894,461
874.03302,439
874.150208,453
874.267456,465
874.384583,471
874.501831,454
874.618958,433
874.736145,446
874.853333,456
874.970459,469
875.087646,460
875.204834,452
875.32196,444
875.439148,446
875.556274,442
875.673401,484
875.790527,447
875.907715,443
876.024841,460
876.141968,455
876.259094,449
876.376282,463
876.493347,455
876.610474,462
876.7276,440
876.844727,460
876.961853,441
877.078918,444
877.195984,451
877.313171,479
877.430237,463
877.547302,454
877.664368,465
877.781433,467
877.898499,472
878.015625,451
878.13269,441
878.249695,463
878.366821,455
878.483887,469
878.600952,443
878.717957,442
878.834961,452
878.952087,445
879.069092,458
879.186157,458
879.303162,444
879.420227,463
879.537231,447
879.654236,466
879.77124,465
879.888306,468
880.005249,462
880.122314,447
880.239319,447
880.356323,444
880.473328,447
880.590271,451
880.707275,455
880.824341,449
880.941284,452
881.058228,463
881.175232,467
881.292236,453
881.40918,475
881.526123,451
881.643066,454
881.760071,467
881.877014,442
881.993958,472
882.11084,459
882.227783,452
882.344727,434
882.46167,457
882.578613,446
882.695618,456
882.812439,441
882.929382,452
883.046326,454
883.163208,470
883.280151,438
883.397034,451
883.513916,459
883.630798,441
883.747742,443
883.864563,458
883.981506,455
884.098389,479
884.21521,462
884.332153,458
884.448975,458
884.565796,448
884.682678,463
884.7995,470
884.916443,451
885.033264,444
885.150085,466
885.266968,470
885.383789,458
885.500671,462
885.617493,474
885.734314,481
885.851196,457
885.967896,459
886.084717,457
886.201599,466
886.318359,440
886.435181,476
886.552002,461
886.668762,465
886.785645,451
886.902344,458
887.019165,448
887.135925,475
887.252747,466
887.369446,433
887.486267,446
887.603027,467
887.719788,486
887.836548,465
887.953247,453
888.070068,455
888.186829,458
888.303528,458
888.420288,463
888.536987,472
888.653687,462
888.770447,465
888.887146,478
889.003967,469
889.120667,456
889.237305,462
889.354065,491
889.470703,464
889.587463,461
889.704163,468
889.820862,459
889.937561,466
890.054199,459
890.170837,465
890.287598,466
890.404236,433
890.520874,445
890.637634,455
890.754211,458
890.87085,478
890.987549,466
891.104187,464
891.220886,451
891.337463,485
891.454102,479
891.57074,455
891.687378,446
891.804077,480
891.920654,458
892.037231,462
892.15387,471
892.270447,455
892.387085,447
892.503723,466
892.6203,481
892.736877,474
892.853516,470
892.970032,468
893.08667,465
893.203186,484
893.319763,459
893.43634,467
893.552917,472
893.669556,480
893.786011,472
893.902588,480
894.019165,465
894.135681,474
894.252197,480
894.368835,473
894.485291,460
894.601868,469
894.718384,474
894.8349,467
894.951355,453
895.067932,469
895.184448,450
895.300964,477
895.417419,442
895.533936,474
895.650452,464
895.766907,471
895.883423,458
895.999878,464
896.116333,460
896.232849,494
896.349304,472
896.465759,475
896.582214,466
896.698669,461
896.815125,449
896.931641,472
897.048035,462
897.164551,465
897.280884,466
897.397339,467
897.513794,478
897.630249,459
897.746582,483
897.863098,471
897.979431,469
898.095886,472
898.212341,484
898.328674,484
898.445129,470
898.561462,465
898.677795,462
898.794312,487
898.910645,466
899.026978,455
899.143433,489
899.259766,466
899.37616,472
899.492493,473
899.608765,468
899.725159,466
899.841553,460
899.957947,474
900.07428,477
900.190552,482
900.306946,453
900.423157,486
900.53949,475
900.655884,473
900.772156,485
900.888489,478
901.004822,486
901.121033,468
901.237366,479
901.353699,477
901.46991,463
901.586304,472
901.702515,469
901.818787,473
901.93512,477
902.051331,465
902.167603,474
902.283875,475
902.400085,479
902.516418,472
902.632629,466
902.74884,469
902.865112,461
902.981384,488
903.097595,459
903.213867,477
903.330017,473
903.446289,470
903.5625,487
903.67865,496
903.794922,450
903.911072,488
904.027344,484
904.143494,480
904.259705,453
904.375916,463
904.492065,466
904.608215,476
904.724426,491
904.840576,485
904.956726,472
905.072876,449
905.189087,467
905.305176,480
905.421387,470
905.537537,470
905.653687,475
905.769775,479
905.885925,468
906.002014,474
906.118164,474
906.234314,472
906.350403,479
906.466492,491
906.582642,477
906.69873,484
906.814758,487
906.930908,474
907.046936,485
907.163086,480
907.279175,476
907.395264,465
907.511353,497
907.62738,485
907.743408,459
907.859497,486
907.975525,473
908.091553,479
908.207703,462
908.32373,475
908.439758,470
908.555786,486
908.671814,454
908.787842,478
908.90387,458
909.019775,472
909.135864,468
909.251892,481
909.367859,486
909.483826,481
909.599854,451
909.715881,475
909.831848,483
909.947815,481
910.063782,479
910.179749,490
910.295776,469
910.411743,476
910.527649,478
910.643616,463
910.759583,467
910.875488,486
910.991455,458
911.107361,471
911.223267,472
911.339294,481
911.4552,473
911.571106,492
911.687073,461
911.802979,477
911.918823,468
912.034729,489
912.150635,470
912.266602,492
912.382446,489
912.498352,472
912.614197,474
912.730103,457
912.846008,481
792.44574,546
792.56488,564
792.68396,599
792.80304,592
792.92218,527
793.041199,524
793.160339,523
793.279419,521
793.398499,524
793.517578,512
793.636658,515
793.755737,501
793.874817,532
793.993896,534
794.112976,506
794.232056,508
794.351074,518
794.470215,539
794.589233,501
794.708313,512
794.827393,506
794.946411,516
795.065552,527
795.18457,527
795.303589,508
795.422668,526
795.541687,506
795.660767,523
795.779846,506
795.898865,500
796.017883,493
796.136963,500
796.255981,519
796.375061,502
796.49408,502
796.613037,522
796.732117,522
796.851135,482
796.970154,525
797.089233,506
797.208191,497
797.327271,505
797.446228,508
797.565186,480
797.684265,497
797.803223,487
797.922241,515
798.04126,489
798.160278,491
798.279297,494
798.398315,509
798.517273,524
798.636292,489
798.75531,489
798.874268,508
798.993286,507
799.112244,501
799.231323,478
799.350281,490
799.469238,522
799.588257,522
799.707153,507
799.826111,487
799.945129,496
800.064087,494
800.183044,486
800.302063,513
800.421021,485
800.539978,492
800.658936,478
800.777893,498
800.896912,499
801.015747,497
801.134705,514
801.253723,494
801.37262,485
801.491638,506
801.610535,495
801.729492,486
801.84845,520
801.967407,503
802.086243,483
802.205261,472
802.324158,494
802.443115,488
802.562073,498
802.680969,516
802.799927,498
802.918762,505
803.037659,511
803.156677,485
803.275574,498
803.39447,504
803.513428,511
803.632263,501
803.751221,494
803.870117,486
803.989014,499
804.107971,515
804.226746,486
804.345642,503
804.4646,505
804.583496,487
804.702393,502
804.821228,490
804.940125,476
805.059021,499
805.177917,476
805.296814,501
805.415649,499
805.534546,502
805.653442,513
805.772278,497
805.891113,499
806.01001,494
806.128906,496
806.247742,503
806.366577,496
806.485413,505
806.604309,502
806.723145,503
806.84198,494
806.960876,500
807.079712,499
807.198486,488
807.317383,494
807.436218,502
807.554993,499
807.673889,513
807.792725,499
807.91156,488
808.030396,508
808.14917,508
808.268005,486
808.386841,501
808.505676,504
808.624451,510
808.743286,479
808.862122,500
808.980896,490
809.099731,501
809.218506,499
809.337341,504
809.456116,506
809.57489,515
809.693726,522
809.8125,508
809.931274,499
810.050049,496
810.168884,492
810.287659,505
810.406372,495
810.525269,493
810.643982,516
810.762756,507
810.881531,504
811.000305,519
811.11908,493
811.237854,502
811.356567,500
811.475403,508
811.594116,492
811.71283,497
811.831604,490
811.950378,510
812.069153,514
812.187927,496
812.30658,510
812.425415,498
812.544128,480
812.662781,491
812.781616,501
812.900269,492
813.019043,499
813.137756,484
813.256531,505
813.375244,479
813.493896,507
813.612671,489
813.731384,515
813.850037,517
813.96875,493
814.087524,484
814.206238,494
814.324951,501
814.443604,496
814.562256,491
814.68103,501
814.799683,489
814.918335,481
815.037109,489
815.155762,501
815.274475,506
815.393188,482
815.511841,499
815.630554,502
815.749146,489
815.867859,486
815.986572,469
816.105164,509
816.223877,504
816.342529,492
816.461182,520
816.579895,499
816.698486,479
816.817139,511
816.935791,501
817.054504,481
817.173096,473
817.291748,491
817.4104,497
817.529053,489
817.647644,490
817.766235,480
817.884949,473
818.00354,483
818.122192,471
818.240845,479
818.359436,480
818.478088,479
818.59668,467
818.715271,475
818.833923,488
818.952515,485
819.071106,474
819.189758,467
819.30835,473
819.426941,472
819.545532,471
819.664124,479
819.782715,464
819.901306,464
820.019897,475
820.138489,454
820.25708,466
820.375671,483
820.494202,472
820.612732,450
820.731384,488
820.849915,480
820.968506,461
821.087097,457
821.205627,473
821.324158,470
821.442749,469
821.561279,448
821.679871,459
821.798401,474
821.916931,455
822.035461,475
822.154053,475
822.272583,459
822.391174,467
822.509583,482
822.628174,461
822.746704,468
822.865234,453
822.983765,462
823.102295,469
823.220825,449
823.339294,463
823.457825,456
823.576355,463
823.694824,466
823.813354,432
823.931885,475
824.050354,466
824.168884,469
824.287354,454
824.405823,459
824.524353,461
824.642822,488
824.761353,437
824.879822,447
824.998291,455
825.116699,469
825.235291,448
825.353699,458
825.472168,451
825.590637,466
825.709106,462
825.827576,466
825.946045,454
826.064453,475
826.182983,449
826.301392,480
826.4198,458
826.53833,457
826.656738,455
826.775208,471
826.893677,459
827.012024,439
827.130493,448
827.248962,473
827.36731,456
827.485779,469
827.604248,460
827.722595,466
827.841064,469
827.959412,465
828.077942,433
828.196289,452
828.314636,460
828.433105,436
828.551514,452
828.669861,446
828.78833,452
828.906677,442
829.025085,455
829.143433,469
829.261841,467
829.38031,435
829.498657,446
829.617004,458
829.735413,429
829.85376,452
829.972107,457
830.090515,449
830.208862,442
830.327209,447
830.445557,448
830.563904,450
830.682312,446
830.800659,456
830.919006,439
831.037354,446
831.155701,460
831.274048,455
831.392395,443
831.51062,461
831.629028,454
831.747314,459
831.865662,453
831.984009,446
832.102356,457
832.220642,458
832.338928,459
832.457275,457
832.575623,434
832.693909,448
832.812134,450
832.930481,448
833.048828,449
833.167114,459
833.2854,452
833.403687,452
833.521973,447
833.640259,449
833.758545,438
833.876831,466
833.995056,472
834.113281,446
834.231628,456
834.349915,488
834.468201,451
834.586426,467
834.704651,441
834.822998,468
834.941162,458
835.059448,451
835.177673,446
835.295959,463
835.414246,431
835.53241,443
835.650635,441
835.768921,435
835.887146,466
836.005371,457
836.123596,457
836.241821,451
836.360046,455
836.478271,469
836.596497,461
836.714722,452
836.832886,447
836.95105,449
837.069336,458
837.1875,460
837.305725,463
837.423889,458
837.542053,444
837.660339,453
837.778503,443
837.896667,464
838.014832,472
838.132996,456
838.25116,452
838.369385,446
838.487488,467
838.605713,466
838.723877,445
838.84198,462
838.960205,444
839.078308,460
839.196472,434
839.314636,461
839.4328,465
839.550964,438
839.669067,450
839.787231,454
839.905396,456
840.023499,459
840.141602,465
840.259766,457
840.377869,457
840.495972,453
840.614136,453
840.732239,463
840.850342,440
840.968445,446
841.086548,465
841.204651,474
841.322754,432
841.440918,434
841.55896,449
841.677002,447
841.795166,448
841.913208,449
842.031311,462
842.149353,446
842.267456,450
842.385498,462
842.503601,445
842.621643,451
842.739746,469
842.857788,447
842.97583,468
843.093933,466
843.211975,456
843.330017,458
843.44812,453
843.566101,454
843.684204,470
843.802246,447
843.920227,461
844.038269,446
844.156311,467
844.274292,469
844.392395,437
844.510376,467
844.628357,440
844.74646,457
844.864441,452
844.982422,459
845.100403,439
845.218384,439
845.336426,438
845.454468,455
845.572449,445
845.69043,433
845.808411,454
845.926453,454
846.044373,428
846.162354,456
846.280396,451
846.398315,434
846.516296,454
846.634216,459
846.752197,445
846.870178,452
846.988098,431
847.106079,442
847.22406,451
847.34198,456
847.4599,424
847.577881,466
847.695801,447
847.813782,454
847.931641,460
848.049561,455
848.167603,431
848.285461,454
848.403381,444
848.521362,454
848.639221,449
848.75708,451
848.875,457
848.99292,446
849.110901,421
849.22876,445
849.34668,462
849.464539,465
849.582458,453
849.700317,459
849.818176,439
849.936096,448
850.053955,445
850.171875,431
850.289673,451
850.407593,442
850.525452,439
850.643311,455
850.761169,465
850.878967,464
850.996887,458
851.114746,452
851.232544,451
851.350403,461
851.468262,441
851.58606,461
851.703979,457
851.821777,457
851.939636,436
852.057434,454
852.175232,439
852.293091,456
852.410889,435
852.528687,475
852.646545,449
852.764343,441
852.88208,452
852.999939,442
853.117676,437
853.235535,448
853.353271,448
853.471069,447
853.588928,452
853.706604,460
853.824402,444
853.9422,469
854.059998,446
854.177734,473
854.295532,431
854.413269,439
854.531006,438
854.648804,460
854.766541,449
854.884277,473
855.002014,451
855.119751,449
855.237549,468
855.355225,455
855.473022,448
855.590698,473
855.708435,463
855.826172,449
855.943848,440
856.061646,461
856.179321,457
856.296997,467
856.414795,463
856.53241,454
856.650085,456
856.767822,464
856.885559,473
857.003174,442
857.120911,476
857.238586,472
857.356201,454
857.473938,467
857.591614,448
857.709351,458
857.826965,438
857.944641,438
858.062317,438
858.179993,457
858.297668,453
858.415283,429
858.532959,445
858.650574,428
858.768188,447
858.885803,434
859.003479,474
859.121094,464
859.23877,443
859.356384,447
859.473999,455
859.591675,459
859.709229,446
859.826843,478
859.944458,450
860.062012,438
860.179626,456
860.297302,451
860.414856,463
860.532471,449
860.650024,446
860.767639,458
860.885193,432
861.002808,454
861.120361,451
861.237976,455
861.35553,473
861.473022,464
861.590698,436
861.708191,418
861.825745,455
861.943298,453
862.060852,457
862.178406,451
862.295959,446
862.413513,458
862.531006,454
862.64856,465
862.766113,465
862.883667,446
863.00116,466
863.118713,440
863.236206,465
863.353699,454
863.471252,434
863.588745,454
863.706177,437
863.82373,436
863.941162,478
864.058716,461
864.176208,446
864.29364,450
864.411194,457
864.528687,458
864.646118,450
864.763611,456
864.881042,460
864.998535,444
865.116028,472
865.233459,466
865.350891,465
865.468384,448
865.585754,462
865.703308,445
865.820679,450
865.938171,455
866.055542,459
866.173035,452
866.290466,473
866.407837,452
866.52533,430
866.6427,451
866.760071,449
866.877563,452
866.994934,449
867.112305,466
867.229736,452
867.347107,445
867.464539,471
867.58197,452
867.699341,452
867.81665,447
867.934082,465
868.051453,462
868.168823,473
868.286194,473
868.403564,452
868.520935,461
868.638306,457
868.755676,440
868.872986,463
868.990295,465
869.107727,446
869.225037,475
869.342346,442
869.459717,463
869.577026,454
869.694336,459
869.811707,450
869.929016,447
870.046326,469
870.163635,459
870.280945,457
870.398254,455
870.515564,466
870.632812,445
870.750183,452
870.867432,458
870.984741,456
871.102051,473
871.219299,447
871.336609,463
871.453918,450
871.571106,471
871.688416,443
871.805664,436
871.922852,462
872.040222,459
872.157471,457
872.274719,466
872.391968,449
872.509155,452
872.626465,450
872.743652,453
872.860962,466
872.978149,457
873.095337,454
873.212646,443
873.329834,465
873.44696,458
873.564209,446
873.681396,457
873.798645,466
873.915894,458
874.03302,437
874.150208,461
874.267456,464
874.384583,459
874.501831,455
874.618958,448
874.736145,458
874.853333,473
874.970459,459
875.087646,455
875.204834,461
875.32196,449
875.439148,468
875.556274,462
875.673401,449
875.790527,456
875.907715,447
876.024841,471
876.141968,463
876.259094,446
876.376282,442
876.493347,470
876.610474,460
876.7276,460
876.844727,463
876.961853,459
877.078918,455
877.195984,455
877.313171,445
877.430237,470
877.547302,464
877.664368,473
877.781433,449
877.898499,478
878.015625,451
878.13269,469
878.249695,467
878.366821,445
878.483887,454
878.600952,473
878.717957,458
878.834961,468
878.952087,438
879.069092,459
879.186157,471
879.303162,460
879.420227,468
879.537231,446
879.654236,455
879.77124,483
879.888306,437
880.005249,469
880.122314,442
880.239319,453
880.356323,450
880.473328,466
880.590271,458
880.707275,450
880.824341,474
880.941284,474
881.058228,479
881.175232,469
881.292236,465
881.40918,462
881.526123,456
881.643066,475
881.760071,448
881.877014,455
881.993958,436
882.11084,468
882.227783,465
882.344727,461
882.46167,456
882.578613,464
882.695618,433
882.812439,472
882.929382,451
883.046326,454
883.163208,465
883.280151,466
883.397034,466
883.513916,460
883.630798,468
883.747742,453
883.864563,487
883.981506,482
884.098389,480
884.21521,475
884.332153,475
884.448975,455
884.565796,450
884.682678,456
884.7995,464
884.916443,459
885.033264,472
885.150085,469
885.266968,452
885.383789,457
885.500671,451
885.617493,466
885.734314,465
885.851196,483
885.967896,467
886.084717,472
886.201599,467
886.318359,455
886.435181,477
886.552002,470
886.668762,460
886.785645,461
886.902344,465
887.019165,465
887.135925,457
887.252747,479
887.369446,458
887.486267,454
887.603027,462
887.719788,465
887.836548,454
887.953247,456
888.070068,453
888.186829,473
888.303528,478
888.420288,462
888.536987,467
888.653687,472
888.770447,459
888.887146,461
889.003967,462
889.120667,464
889.237305,475
889.354065,466
889.470703,443
889.587463,462
889.704163,468
889.820862,474
889.937561,470
890.054199,469
890.170837,481
890.287598,474
890.404236,465
890.520874,468
890.637634,449
890.754211,454
890.87085,494
890.987549,448
891.104187,463
891.220886,473
891.337463,470
891.454102,475
891.57074,456
891.687378,455
891.804077,458
891.920654,469
892.037231,474
892.15387,482
892.270447,478
892.387085,472
892.503723,451
892.6203,457
892.736877,491
892.853516,474
892.970032,469
893.08667,465
893.203186,479
893.319763,471
893.43634,455
893.552917,451
893.669556,457
893.786011,479
893.902588,467
894.019165,467
894.135681,487
894.252197,476
894.368835,463
894.485291,466
894.601868,473
894.718384,473
894.8349,462
894.951355,455
895.067932,462
895.184448,482
895.300964,475
895.417419,472
895.533936,471
895.650452,475
895.766907,474
895.883423,482
895.999878,477
896.116333,468
896.232849,472
896.349304,483
896.465759,489
896.582214,469
896.698669,464
896.815125,505
896.931641,464
897.048035,476
897.164551,471
897.280884,482
897.397339,484
897.513794,456
897.630249,464
897.746582,475
897.863098,471
897.979431,480
898.095886,466
898.212341,486
898.328674,462
898.445129,484
898.561462,474
898.677795,471
898.794312,481
898.910645,483
899.026978,458
899.143433,453
899.259766,467
899.37616,489
899.492493,467
899.608765,500
899.725159,457
899.841553,476
899.957947,451
900.07428,459
900.190552,468
900.306946,475
900.423157,497
900.53949,475
900.655884,476
900.772156,481
900.888489,473
901.004822,471
901.121033,482
901.237366,473
901.353699,469
901.46991,462
901.586304,458
901.702515,467
901.818787,479
901.93512,484
902.051331,464
902.167603,459
902.283875,483
902.400085,473
902.516418,498
902.632629,467
902.74884,485
902.865112,489
902.981384,460
903.097595,472
903.213867,485
903.330017,503
903.446289,462
903.5625,479
903.67865,464
903.794922,478
903.911072,483
904.027344,481
904.143494,476
904.259705,488
904.375916,472
904.492065,473
904.608215,481
904.724426,469
904.840576,473
904.956726,473
905.072876,495
905.189087,468
905.305176,473
905.421387,466
905.537537,478
905.653687,452
905.769775,478
905.885925,477
906.002014,485
906.118164,482
906.234314,480
906.350403,497
906.466492,492
906.582642,478
906.69873,464
906.814758,468
906.930908,477
907.046936,461
907.163086,489
907.279175,481
907.395264,475
907.511353,476
907.62738,478
907.743408,484
907.859497,499
907.975525,471
908.091553,470
908.207703,493
908.32373,475
908.439758,481
908.555786,465
908.671814,474
908.787842,466
908.90387,475
909.019775,466
909.135864,491
909.251892,483
909.367859,480
909.483826,475
909.599854,484
909.715881,469
909.831848,467
909.947815,456
910.063782,469
910.179749,471
910.295776,491
910.411743,481
910.527649,470
910.643616,472
910.759583,455
910.875488,462
910.991455,457
911.107361,451
911.223267,481
911.339294,452
911.4552,468
911.571106,468
911.687073,484
911.802979,486
911.918823,472
912.034729,474
912.150635,460
912.266602,479
912.382446,491
912.498352,461
912.614197,480
912.730103,463
912.846008,475
