792.44574,607
792.56488,642
792.68396,691
792.80304,657
792.92218,634
793.041199,586
793.160339,600
793.279419,600
793.398499,609
793.517578,593
793.636658,574
793.755737,589
793.874817,569
793.993896,582
794.112976,558
794.232056,557
794.351074,568
794.470215,557
794.589233,573
794.708313,546
794.827393,562
794.946411,544
795.065552,558
795.18457,565
795.303589,584
795.422668,539
795.541687,533
795.660767,550
795.779846,563
795.898865,568
796.017883,561
796.136963,520
796.255981,561
796.375061,560
796.49408,547
796.613037,525
796.732117,541
796.851135,525
796.970154,530
797.089233,506
797.208191,537
797.327271,523
797.446228,518
797.565186,520
797.684265,526
797.803223,534
797.922241,526
798.04126,510
798.160278,511
798.279297,517
798.398315,525
798.517273,511
798.636292,520
798.75531,529
798.874268,510
798.993286,526
799.112244,484
799.231323,503
799.350281,509
799.469238,512
799.588257,515
799.707153,516
799.826111,501
799.945129,500
800.064087,510
800.183044,509
800.302063,508
800.421021,535
800.539978,509
800.658936,490
800.777893,506
800.896912,517
801.015747,510
801.134705,509
801.253723,500
801.37262,482
801.491638,500
801.610535,523
801.729492,511
801.84845,511
801.967407,501
802.086243,497
802.205261,506
802.324158,503
802.443115,505
802.562073,503
802.680969,507
802.799927,499
802.918762,494
803.037659,500
803.156677,497
803.275574,496
803.39447,506
803.513428,489
803.632263,513
803.751221,510
803.870117,508
803.989014,489
804.107971,506
804.226746,504
804.345642,503
804.4646,516
804.583496,516
804.702393,519
804.821228,527
804.940125,499
805.059021,503
805.177917,488
805.296814,521
805.415649,480
805.534546,504
805.653442,491
805.772278,506
805.891113,504
806.01001,493
806.128906,502
806.247742,520
806.366577,502
806.485413,514
806.604309,479
806.723145,500
806.84198,506
806.960876,495
807.079712,497
807.198486,504
807.317383,498
807.436218,486
807.554993,487
807.673889,495
807.792725,498
807.91156,495
808.030396,501
808.14917,499
808.268005,484
808.386841,483
808.505676,490
808.624451,519
808.743286,501
808.862122,486
808.980896,505
809.099731,499
809.218506,493
809.337341,485
809.456116,469
809.57489,499
809.693726,502
809.8125,497
809.931274,497
810.050049,497
810.168884,479
810.287659,495
810.406372,527
810.525269,492
810.643982,485
810.762756,491
810.881531,492
811.000305,472
811.11908,480
811.237854,492
811.356567,501
811.475403,499
811.594116,504
811.71283,483
811.831604,499
811.950378,508
812.069153,486
812.187927,475
812.30658,495
812.425415,508
812.544128,499
812.662781,492
812.781616,508
812.900269,502
813.019043,478
813.137756,495
813.256531,493
813.375244,500
813.493896,505
813.612671,490
813.731384,513
813.850037,497
813.96875,483
814.087524,482
814.206238,490
814.324951,481
814.443604,481
814.562256,492
814.68103,497
814.799683,481
814.918335,498
815.037109,487
815.155762,482
815.274475,491
815.393188,472
815.511841,471
815.630554,497
815.749146,498
815.867859,501
815.986572,503
816.105164,482
816.223877,496
816.342529,496
816.461182,498
816.579895,486
816.698486,491
816.817139,504
816.935791,496
817.054504,489
817.173096,493
817.291748,481
817.4104,473
817.529053,483
817.647644,473
817.766235,478
817.884949,479
818.00354,472
818.122192,492
818.240845,450
818.359436,472
818.478088,483
818.59668,478
818.715271,464
818.833923,474
818.952515,461
819.071106,466
819.189758,467
819.30835,477
819.426941,462
819.545532,484
819.664124,475
819.782715,474
819.901306,472
820.019897,470
820.138489,462
820.25708,476
820.375671,466
820.494202,459
820.612732,469
820.731384,477
820.849915,463
820.968506,475
821.087097,482
821.205627,488
821.324158,455
821.442749,458
821.561279,459
821.679871,467
821.798401,468
821.916931,462
822.035461,458
822.154053,453
822.272583,449
822.391174,462
822.509583,468
822.628174,456
822.746704,456
822.865234,472
822.983765,450
823.102295,452
823.220825,448
823.339294,472
823.457825,470
823.576355,461
823.694824,469
823.813354,485
823.931885,470
824.050354,460
824.168884,483
824.287354,463
824.405823,475
824.524353,469
824.642822,455
824.761353,474
824.879822,472
824.998291,472
825.116699,465
825.235291,463
825.353699,449
825.472168,454
825.590637,464
825.709106,468
825.827576,454
825.946045,458
826.064453,454
826.182983,483
826.301392,456
826.4198,481
826.53833,451
826.656738,455
826.775208,459
826.893677,455
827.012024,454
827.130493,459
827.248962,448
827.36731,468
827.485779,454
827.604248,474
827.722595,452
827.841064,444
827.959412,454
828.077942,450
828.196289,467
828.314636,463
828.433105,451
828.551514,454
828.669861,465
828.78833,457
828.906677,438
829.025085,464
829.143433,463
829.261841,457
829.38031,469
829.498657,455
829.617004,442
829.735413,464
829.85376,479
829.972107,470
830.090515,467
830.208862,450
830.327209,464
830.445557,438
830.563904,461
830.682312,442
830.800659,452
830.919006,459
831.037354,456
831.155701,455
831.274048,456
831.392395,463
831.51062,452
831.629028,450
831.747314,457
831.865662,484
831.984009,475
832.102356,461
832.220642,472
832.338928,454
832.457275,467
832.575623,461
832.693909,445
832.812134,447
832.930481,481
833.048828,455
833.167114,473
833.2854,458
833.403687,459
833.521973,460
833.640259,463
833.758545,440
833.876831,451
833.995056,483
834.113281,434
834.231628,466
834.349915,462
834.468201,452
834.586426,449
834.704651,475
834.822998,469
834.941162,463
835.059448,455
835.177673,466
835.295959,459
835.414246,461
835.53241,447
835.650635,463
835.768921,453
835.887146,463
836.005371,452
836.123596,443
836.241821,442
836.360046,443
836.478271,449
836.596497,465
836.714722,462
836.832886,454
836.95105,449
837.069336,467
837.1875,435
837.305725,454
837.423889,444
837.542053,470
837.660339,458
837.778503,463
837.896667,476
838.014832,458
838.132996,463
838.25116,452
838.369385,459
838.487488,450
838.605713,462
838.723877,457
838.84198,476
838.960205,471
839.078308,448
839.196472,474
839.314636,445
839.4328,462
839.550964,422
839.669067,441
839.787231,465
839.905396,458
840.023499,469
840.141602,456
840.259766,450
840.377869,452
840.495972,469
840.614136,476
840.732239,464
840.850342,454
840.968445,480
841.086548,460
841.204651,483
841.322754,450
841.440918,455
841.55896,472
841.677002,464
841.795166,466
841.913208,464
842.031311,466
842.149353,451
842.267456,464
842.385498,462
842.503601,453
842.621643,460
842.739746,466
842.857788,468
842.97583,464
843.093933,465
843.211975,449
843.330017,440
843.44812,465
843.566101,446
843.684204,470
843.802246,454
843.920227,464
844.038269,466
844.156311,442
844.274292,469
844.392395,466
844.510376,451
844.628357,439
844.74646,443
844.864441,465
844.982422,451
845.100403,476
845.218384,465
845.336426,459
845.454468,439
845.572449,441
845.69043,453
845.808411,467
845.926453,457
846.044373,471
846.162354,436
846.280396,445
846.398315,439
846.516296,453
846.634216,436
846.752197,467
846.870178,460
846.988098,460
847.106079,461
847.22406,458
847.34198,444
847.4599,471
847.577881,462
847.695801,455
847.813782,446
847.931641,476
848.049561,452
848.167603,455
848.285461,453
848.403381,463
848.521362,456
848.639221,463
848.75708,442
848.875,445
848.99292,449
849.110901,457
849.22876,461
849.34668,450
849.464539,446
849.582458,468
849.700317,472
849.818176,468
849.936096,460
850.053955,470
850.171875,456
850.289673,473
850.407593,452
850.525452,474
850.643311,459
850.761169,459
850.878967,479
850.996887,477
851.114746,463
851.232544,461
851.350403,467
851.468262,460
851.58606,466
851.703979,429
851.821777,462
851.939636,470
852.057434,446
852.175232,473
852.293091,447
852.410889,469
852.528687,468
852.646545,454
852.764343,469
852.88208,478
852.999939,442
853.117676,472
853.235535,453
853.353271,445
853.471069,453
853.588928,472
853.706604,462
853.824402,458
853.9422,464
854.059998,456
854.177734,435
854.295532,454
854.413269,463
854.531006,474
854.648804,474
854.766541,452
854.884277,464
855.002014,466
855.119751,451
855.237549,465
855.355225,462
855.473022,462
855.590698,467
855.708435,444
855.826172,455
855.943848,472
856.061646,456
856.179321,462
856.296997,462
856.414795,450
856.53241,448
856.650085,468
856.767822,481
856.885559,466
857.003174,440
857.120911,467
857.238586,465
857.356201,471
857.473938,461
857.591614,472
857.709351,458
857.826965,460
857.944641,444
858.062317,481
858.179993,447
858.297668,465
858.415283,462
858.532959,473
858.650574,479
858.768188,463
858.885803,465
859.003479,458
859.121094,469
859.23877,467
859.356384,457
859.473999,445
859.591675,447
859.709229,472
859.826843,457
859.944458,451
860.062012,463
860.179626,458
860.297302,449
860.414856,468
860.532471,447
860.650024,459
860.767639,452
860.885193,459
861.002808,455
861.120361,465
861.237976,453
861.35553,439
861.473022,454
861.590698,458
861.708191,455
861.825745,461
861.943298,447
862.060852,475
862.178406,474
862.295959,451
862.413513,456
862.531006,457
862.64856,446
862.766113,450
862.883667,468
863.00116,454
863.118713,451
863.236206,471
863.353699,461
863.471252,486
863.588745,449
863.706177,468
863.82373,450
863.941162,466
864.058716,469
864.176208,465
864.29364,447
864.411194,454
864.528687,465
864.646118,475
864.763611,447
864.881042,456
864.998535,447
865.116028,433
865.233459,457
865.350891,467
865.468384,466
865.585754,458
865.703308,448
865.820679,470
865.938171,455
866.055542,456
866.173035,450
866.290466,461
866.407837,433
866.52533,453
866.6427,445
866.760071,471
866.877563,449
866.994934,466
867.112305,459
867.229736,444
867.347107,441
867.464539,470
867.58197,460
867.699341,468
867.81665,461
867.934082,454
868.051453,457
868.168823,461
868.286194,462
868.403564,471
868.520935,458
868.638306,451
868.755676,457
868.872986,463
868.990295,469
869.107727,467
869.225037,449
869.342346,474
869.459717,456
869.577026,479
869.694336,452
869.811707,483
869.929016,434
870.046326,468
870.163635,443
870.280945,483
870.398254,473
870.515564,469
870.632812,458
870.750183,461
870.867432,475
870.984741,489
871.102051,471
871.219299,468
871.336609,446
871.453918,471
871.571106,469
871.688416,475
871.805664,466
871.922852,446
872.040222,452
872.157471,468
872.274719,459
872.391968,464
872.509155,447
872.626465,457
872.743652,482
872.860962,485
872.978149,477
873.095337,466
873.212646,457
873.329834,479
873.44696,458
873.564209,470
873.681396,460
873.798645,475
873.915894,454
874.03302,475
874.150208,474
874.267456,482
874.384583,468
874.501831,472
874.618958,467
874.736145,474
874.853333,495
874.970459,487
875.087646,451
875.204834,465
875.32196,470
875.439148,469
875.556274,456
875.673401,477
875.790527,462
875.907715,487
876.024841,457
876.141968,455
876.259094,473
876.376282,478
876.493347,476
876.610474,477
876.7276,445
876.844727,454
876.961853,470
877.078918,450
877.195984,451
877.313171,478
877.430237,478
877.547302,474
877.664368,459
877.781433,471
877.898499,459
878.015625,476
878.13269,460
878.249695,475
878.366821,458
878.483887,474
878.600952,454
878.717957,450
878.834961,469
878.952087,481
879.069092,488
879.186157,470
879.303162,470
879.420227,467
879.537231,467
879.654236,452
879.77124,465
879.888306,441
880.005249,458
880.122314,453
880.239319,463
880.356323,455
880.473328,450
880.590271,449
880.707275,458
880.824341,435
880.941284,465
881.058228,459
881.175232,448
881.292236,460
881.40918,439
881.526123,453
881.643066,448
881.760071,461
881.877014,440
881.993958,470
882.11084,457
882.227783,475
882.344727,465
882.46167,479
882.578613,436
882.695618,458
882.812439,466
882.929382,457
883.046326,472
883.163208,453
883.280151,455
883.397034,469
883.513916,444
883.630798,448
883.747742,452
883.864563,467
883.981506,472
884.098389,474
884.21521,462
884.332153,465
884.448975,460
884.565796,485
884.682678,463
884.7995,483
884.916443,487
885.033264,476
885.150085,461
885.266968,488
885.383789,505
885.500671,477
885.617493,488
885.734314,495
885.851196,491
885.967896,478
886.084717,492
886.201599,484
886.318359,493
886.435181,493
886.552002,492
886.668762,474
886.785645,475
886.902344,481
887.019165,473
887.135925,470
887.252747,492
887.369446,458
887.486267,470
887.603027,467
887.719788,470
887.836548,491
887.953247,478
888.070068,483
888.186829,439
888.303528,455
888.420288,467
888.536987,455
888.653687,463
888.770447,449
888.887146,464
889.003967,451
889.120667,469
889.237305,469
889.354065,460
889.470703,470
889.587463,447
889.704163,465
889.820862,448
889.937561,473
890.054199,453
890.170837,464
890.287598,457
890.404236,473
890.520874,466
890.637634,456
890.754211,451
890.87085,455
890.987549,469
891.104187,481
891.220886,448
891.337463,480
891.454102,450
891.57074,467
891.687378,453
891.804077,470
891.920654,442
892.037231,468
892.15387,447
892.270447,475
892.387085,459
892.503723,474
892.6203,458
892.736877,460
892.853516,432
892.970032,453
893.08667,463
893.203186,478
893.319763,455
893.43634,472
893.552917,449
893.669556,443
893.786011,461
893.902588,457
894.019165,448
894.135681,468
894.252197,478
894.368835,465
894.485291,465
894.601868,455
894.718384,454
894.8349,474
894.951355,448
895.067932,464
895.184448,444
895.300964,469
895.417419,436
895.533936,455
895.650452,470
895.766907,466
895.883423,455
895.999878,445
896.116333,447
896.232849,461
896.349304,458
896.465759,476
896.582214,470
896.698669,475
896.815125,454
896.931641,456
897.048035,455
897.164551,462
897.280884,463
897.397339,438
897.513794,461
897.630249,468
897.746582,467
897.863098,475
897.979431,448
898.095886,451
898.212341,461
898.328674,473
898.445129,473
898.561462,464
898.677795,458
898.794312,446
898.910645,471
899.026978,458
899.143433,474
899.259766,464
899.37616,456
899.492493,454
899.608765,473
899.725159,487
899.841553,464
899.957947,467
900.07428,466
900.190552,472
900.306946,458
900.423157,463
900.53949,471
900.655884,458
900.772156,476
900.888489,462
901.004822,488
901.121033,479
901.237366,458
901.353699,459
901.46991,460
901.586304,480
901.702515,480
901.818787,476
901.93512,455
902.051331,467
902.167603,481
902.283875,464
902.400085,461
902.516418,485
902.632629,466
902.74884,490
902.865112,462
902.981384,468
903.097595,470
903.213867,484
903.330017,463
903.446289,494
903.5625,470
903.67865,499
903.794922,473
903.911072,461
904.027344,478
904.143494,476
904.259705,475
904.375916,475
904.492065,462
904.608215,468
904.724426,454
904.840576,478
904.956726,463
905.072876,474
905.189087,460
905.305176,491
905.421387,485
905.537537,470
905.653687,454
905.769775,476
905.885925,459
906.002014,460
906.118164,459
906.234314,470
906.350403,465
906.466492,478
906.582642,461
906.69873,467
906.814758,463
906.930908,459
907.046936,468
907.163086,466
907.279175,460
907.395264,477
907.511353,466
907.62738,464
907.743408,477
907.859497,486
907.975525,465
908.091553,466
908.207703,473
908.32373,479
908.439758,459
908.555786,462
908.671814,470
908.787842,476
908.90387,467
909.019775,502
909.135864,467
909.251892,468
909.367859,462
909.483826,474
909.599854,469
909.715881,476
909.831848,476
909.947815,479
910.063782,459
910.179749,457
910.295776,465
910.411743,479
910.527649,473
910.643616,464
910.759583,452
910.875488,483
910.991455,468
911.107361,443
911.223267,475
911.339294,459
911.4552,482
911.571106,462
911.687073,468
911.802979,478
911.918823,465
912.034729,468
912.150635,480
912.266602,446
912.382446,467
912.498352,457
912.614197,471
912.730103,474
912.846008,458
792.44574,644
792.56488,688
792.68396,674
792.80304,677
792.92218,634
793.041199,615
793.160339,571
793.279419,624
793.398499,588
793.517578,576
793.636658,584
793.755737,607
793.874817,587
793.993896,570
794.112976,559
794.232056,590
794.351074,554
794.470215,567
794.589233,567
794.708313,583
794.827393,549
794.946411,580
795.065552,537
795.18457,579
795.303589,551
795.422668,548
795.541687,543
795.660767,548
795.779846,559
795.898865,549
796.017883,553
796.136963,537
796.255981,538
796.375061,529
796.49408,533
796.613037,537
796.732117,546
796.851135,533
796.970154,539
797.089233,529
797.208191,542
797.327271,523
797.446228,540
797.565186,537
797.684265,534
797.803223,548
797.922241,502
798.04126,539
798.160278,505
798.279297,502
798.398315,507
798.517273,528
798.636292,519
798.75531,527
798.874268,522
798.993286,527
799.112244,511
799.231323,523
799.350281,512
799.469238,523
799.588257,538
799.707153,527
799.826111,528
799.945129,517
800.064087,523
800.183044,526
800.302063,521
800.421021,506
800.539978,526
800.658936,506
800.777893,516
800.896912,522
801.015747,524
801.134705,500
801.253723,516
801.37262,535
801.491638,523
801.610535,515
801.729492,515
801.84845,486
801.967407,520
802.086243,493
802.205261,485
802.324158,512
802.443115,507
802.562073,509
802.680969,507
802.799927,518
802.918762,494
803.037659,496
803.156677,502
803.275574,523
803.39447,512
803.513428,509
803.632263,497
803.751221,490
803.870117,491
803.989014,514
804.107971,516
804.226746,491
804.345642,485
804.4646,476
804.583496,508
804.702393,498
804.821228,517
804.940125,486
805.059021,489
805.177917,522
805.296814,505
805.415649,500
805.534546,505
805.653442,479
805.772278,496
805.891113,498
806.01001,501
806.128906,500
806.247742,502
806.366577,515
806.485413,476
806.604309,518
806.723145,484
806.84198,491
806.960876,509
807.079712,515
807.198486,511
807.317383,503
807.436218,503
807.554993,504
807.673889,500
807.792725,490
807.91156,490
808.030396,489
808.14917,495
808.268005,487
808.386841,500
808.505676,511
808.624451,512
808.743286,496
808.862122,485
808.980896,508
809.099731,526
809.218506,492
809.337341,492
809.456116,481
809.57489,482
809.693726,479
809.8125,521
809.931274,500
810.050049,487
810.168884,516
810.287659,500
810.406372,503
810.525269,499
810.643982,503
810.762756,464
810.881531,490
811.000305,526
811.11908,499
811.237854,493
811.356567,488
811.475403,493
811.594116,491
811.71283,504
811.831604,502
811.950378,508
812.069153,511
812.187927,492
812.30658,500
812.425415,477
812.544128,477
812.662781,521
812.781616,499
812.900269,477
813.019043,509
813.137756,480
813.256531,491
813.375244,487
813.493896,502
813.612671,477
813.731384,505
813.850037,484
813.96875,510
814.087524,486
814.206238,470
814.324951,507
814.443604,480
814.562256,497
814.68103,471
814.799683,490
814.918335,499
815.037109,484
815.155762,495
815.274475,490
815.393188,505
815.511841,483
815.630554,471
815.749146,485
815.867859,490
815.986572,475
816.105164,506
816.223877,475
816.342529,504
816.461182,490
816.579895,491
816.698486,480
816.817139,509
816.935791,498
817.054504,484
817.173096,502
817.291748,479
817.4104,513
817.529053,468
817.647644,480
817.766235,475
817.884949,489
818.00354,476
818.122192,492
818.240845,496
818.359436,461
818.478088,498
818.59668,480
818.715271,471
818.833923,487
818.952515,474
819.071106,485
819.189758,469
819.30835,487
819.426941,480
819.545532,489
819.664124,458
819.782715,469
819.901306,467
820.019897,469
820.138489,472
820.25708,474
820.375671,450
820.494202,471
820.612732,464
820.731384,476
820.849915,479
820.968506,488
821.087097,472
821.205627,470
821.324158,458
821.442749,474
821.561279,456
821.679871,482
821.798401,476
821.916931,464
822.035461,458
822.154053,451
822.272583,475
822.391174,455
822.509583,471
822.628174,460
822.746704,466
822.865234,466
822.983765,474
823.102295,469
823.220825,450
823.339294,478
823.457825,458
823.576355,469
823.694824,467
823.813354,470
823.931885,492
824.050354,455
824.168884,466
824.287354,471
824.405823,461
824.524353,455
824.642822,455
824.761353,454
824.879822,465
824.998291,452
825.116699,461
825.235291,463
825.353699,474
825.472168,449
825.590637,457
825.709106,460
825.827576,483
825.946045,460
826.064453,477
826.182983,453
826.301392,469
826.4198,472
826.53833,477
826.656738,466
826.775208,439
826.893677,458
827.012024,460
827.130493,465
827.248962,471
827.36731,462
827.485779,456
827.604248,467
827.722595,461
827.841064,468
827.959412,467
828.077942,448
828.196289,450
828.314636,458
828.433105,466
828.551514,460
828.669861,457
828.78833,450
828.906677,448
829.025085,473
829.143433,473
829.261841,448
829.38031,458
829.498657,456
829.617004,468
829.735413,458
829.85376,459
829.972107,457
830.090515,458
830.208862,453
830.327209,448
830.445557,454
830.563904,441
830.682312,463
830.800659,479
830.919006,462
831.037354,483
831.155701,452
831.274048,461
831.392395,456
831.51062,448
831.629028,458
831.747314,447
831.865662,466
831.984009,472
832.102356,477
832.220642,457
832.338928,473
832.457275,458
832.575623,458
832.693909,462
832.812134,466
832.930481,475
833.048828,469
833.167114,466
833.2854,465
833.403687,454
833.521973,436
833.640259,453
833.758545,457
833.876831,467
833.995056,452
834.113281,465
834.231628,445
834.349915,450
834.468201,463
834.586426,466
834.704651,455
834.822998,470
834.941162,460
835.059448,459
835.177673,462
835.295959,445
835.414246,459
835.53241,446
835.650635,444
835.768921,450
835.887146,475
836.005371,486
836.123596,457
836.241821,462
836.360046,467
836.478271,462
836.596497,473
836.714722,459
836.832886,454
836.95105,450
837.069336,459
837.1875,443
837.305725,470
837.423889,472
837.542053,446
837.660339,463
837.778503,446
837.896667,467
838.014832,457
838.132996,457
838.25116,447
838.369385,462
838.487488,442
838.605713,466
838.723877,478
838.84198,460
838.960205,459
839.078308,458
839.196472,445
839.314636,472
839.4328,453
839.550964,471
839.669067,458
839.787231,461
839.905396,430
840.023499,458
840.141602,472
840.259766,460
840.377869,461
840.495972,477
840.614136,440
840.732239,463
840.850342,436
840.968445,473
841.086548,473
841.204651,476
841.322754,445
841.440918,457
841.55896,460
841.677002,466
841.795166,470
841.913208,453
842.031311,466
842.149353,459
842.267456,472
842.385498,474
842.503601,475
842.621643,471
842.739746,463
842.857788,470
842.97583,458
843.093933,469
843.211975,451
843.330017,452
843.44812,462
843.566101,445
843.684204,452
843.802246,451
843.920227,465
844.038269,467
844.156311,471
844.274292,466
844.392395,472
844.510376,449
844.628357,462
844.74646,446
844.864441,469
844.982422,469
845.100403,444
845.218384,452
845.336426,468
845.454468,465
845.572449,462
845.69043,477
845.808411,455
845.926453,456
846.044373,456
846.162354,466
846.280396,439
846.398315,482
846.516296,454
846.634216,464
846.752197,457
846.870178,451
846.988098,467
847.106079,441
847.22406,449
847.34198,482
847.4599,455
847.577881,460
847.695801,464
847.813782,464
847.931641,438
848.049561,457
848.167603,460
848.285461,459
848.403381,467
848.521362,446
848.639221,466
848.75708,477
848.875,436
848.99292,482
849.110901,463
849.22876,464
849.34668,473
849.464539,461
849.582458,471
849.700317,470
849.818176,451
849.936096,462
850.053955,452
850.171875,471
850.289673,475
850.407593,461
850.525452,472
850.643311,480
850.761169,461
850.878967,454
850.996887,469
851.114746,451
851.232544,474
851.350403,451
851.468262,454
851.58606,475
851.703979,439
851.821777,460
851.939636,452
852.057434,460
852.175232,445
852.293091,465
852.410889,476
852.528687,465
852.646545,469
852.764343,469
852.88208,468
852.999939,458
853.117676,457
853.235535,445
853.353271,486
853.471069,452
853.588928,444
853.706604,497
853.824402,466
853.9422,449
854.059998,463
854.177734,451
854.295532,464
854.413269,466
854.531006,476
854.648804,450
854.766541,453
854.884277,484
855.002014,457
855.119751,450
855.237549,444
855.355225,449
855.473022,467
855.590698,453
855.708435,462
855.826172,472
855.943848,471
856.061646,466
856.179321,444
856.296997,478
856.414795,444
856.53241,465
856.650085,462
856.767822,473
856.885559,477
857.003174,473
857.120911,442
857.238586,456
857.356201,473
857.473938,455
857.591614,466
857.709351,480
857.826965,466
857.944641,478
858.062317,443
858.179993,471
858.297668,461
858.415283,478
858.532959,481
858.650574,474
858.768188,470
858.885803,435
859.003479,470
859.121094,455
859.23877,451
859.356384,476
859.473999,464
859.591675,472
859.709229,471
859.826843,466
859.944458,446
860.062012,455
860.179626,461
860.297302,480
860.414856,460
860.532471,463
860.650024,460
860.767639,459
860.885193,483
861.002808,482
861.120361,446
861.237976,451
861.35553,463
861.473022,448
861.590698,455
861.708191,458
861.825745,452
861.943298,462
862.060852,468
862.178406,452
862.295959,475
862.413513,460
862.531006,433
862.64856,440
862.766113,458
862.883667,455
863.00116,466
863.118713,455
863.236206,453
863.353699,472
863.471252,447
863.588745,448
863.706177,460
863.82373,461
863.941162,457
864.058716,458
864.176208,440
864.29364,455
864.411194,451
864.528687,450
864.646118,456
864.763611,466
864.881042,439
864.998535,468
865.116028,461
865.233459,457
865.350891,465
865.468384,461
865.585754,469
865.703308,470
865.820679,483
865.938171,442
866.055542,445
866.173035,444
866.290466,449
866.407837,462
866.52533,461
866.6427,472
866.760071,459
866.877563,470
866.994934,453
867.112305,448
867.229736,448
867.347107,464
867.464539,475
867.58197,456
867.699341,469
867.81665,460
867.934082,446
868.051453,469
868.168823,443
868.286194,457
868.403564,453
868.520935,438
868.638306,483
868.755676,483
868.872986,462
868.990295,470
869.107727,452
869.225037,461
869.342346,453
869.459717,465
869.577026,456
869.694336,469
869.811707,471
869.929016,467
870.046326,455
870.163635,476
870.280945,458
870.398254,465
870.515564,477
870.632812,480
870.750183,479
870.867432,469
870.984741,474
871.102051,475
871.219299,467
871.336609,479
871.453918,485
871.571106,474
871.688416,472
871.805664,458
871.922852,478
872.040222,453
872.157471,465
872.274719,466
872.391968,471
872.509155,447
872.626465,466
872.743652,481
872.860962,469
872.978149,448
873.095337,461
873.212646,466
873.329834,461
873.44696,467
873.564209,472
873.681396,468
873.798645,461
873.915894,480
874.03302,466
874.150208,476
874.267456,462
874.384583,476
874.501831,465
874.618958,486
874.736145,485
874.853333,473
874.970459,453
875.087646,484
875.204834,471
875.32196,473
875.439148,464
875.556274,463
875.673401,480
875.790527,471
875.907715,447
876.024841,470
876.141968,471
876.259094,456
876.376282,470
876.493347,474
876.610474,461
876.7276,475
876.844727,451
876.961853,479
877.078918,458
877.195984,463
877.313171,471
877.430237,459
877.547302,468
877.664368,463
877.781433,450
877.898499,481
878.015625,464
878.13269,436
878.249695,477
878.366821,454
878.483887,465
878.600952,471
878.717957,468
878.834961,476
878.952087,459
879.069092,476
879.186157,460
879.303162,449
879.420227,470
879.537231,466
879.654236,469
879.77124,476
879.888306,462
880.005249,464
880.122314,450
880.239319,456
880.356323,463
880.473328,459
880.590271,469
880.707275,476
880.824341,447
880.941284,458
881.058228,468
881.175232,456
881.292236,479
881.40918,461
881.526123,451
881.643066,473
881.760071,454
881.877014,451
881.993958,461
882.11084,445
882.227783,446
882.344727,466
882.46167,466
882.578613,473
882.695618,461
882.812439,481
882.929382,450
883.046326,479
883.163208,459
883.280151,463
883.397034,464
883.513916,458
883.630798,466
883.747742,473
883.864563,457
883.981506,460
884.098389,464
884.21521,461
884.332153,464
884.448975,485
884.565796,452
884.682678,455
884.7995,476
884.916443,509
885.033264,476
885.150085,488
885.266968,485
885.383789,491
885.500671,494
885.617493,498
885.734314,481
885.851196,502
885.967896,479
886.084717,482
886.201599,492
886.318359,474
886.435181,486
886.552002,481
886.668762,482
886.785645,465
886.902344,478
887.019165,481
887.135925,487
887.252747,468
887.369446,496
887.486267,472
887.603027,459
887.719788,469
887.836548,467
887.953247,483
888.070068,455
888.186829,465
888.303528,467
888.420288,471
888.536987,472
888.653687,469
888.770447,467
888.887146,456
889.003967,479
889.120667,451
889.237305,469
889.354065,467
889.470703,483
889.587463,463
889.704163,465
889.820862,459
889.937561,442
890.054199,453
890.170837,462
890.287598,467
890.404236,463
890.520874,486
890.637634,463
890.754211,470
890.87085,462
890.987549,474
891.104187,452
891.220886,455
891.337463,459
891.454102,486
891.57074,480
891.687378,465
891.804077,459
891.920654,456
892.037231,467
892.15387,473
892.270447,448
892.387085,451
892.503723,459
892.6203,456
892.736877,461
892.853516,463
892.970032,469
893.08667,470
893.203186,449
893.319763,458
893.43634,454
893.552917,474
893.669556,471
893.786011,474
893.902588,449
894.019165,473
894.135681,470
894.252197,485
894.368835,476
894.485291,466
894.601868,467
894.718384,476
894.8349,463
894.951355,454
895.067932,452
895.184448,469
895.300964,460
895.417419,449
895.533936,447
895.650452,461
895.766907,454
895.883423,469
895.999878,458
896.116333,480
896.232849,471
896.349304,455
896.465759,472
896.582214,458
896.698669,449
896.815125,476
896.931641,449
897.048035,458
897.164551,456
897.280884,462
897.397339,471
897.513794,471
897.630249,467
897.746582,474
897.863098,471
897.979431,483
898.095886,466
898.212341,458
898.328674,479
898.445129,454
898.561462,451
898.677795,464
898.794312,467
898.910645,467
899.026978,471
899.143433,465
899.259766,456
899.37616,474
899.492493,448
899.608765,477
899.725159,460
899.841553,467
899.957947,475
900.07428,463
900.190552,451
900.306946,476
900.423157,463
900.53949,491
900.655884,458
900.772156,464
900.888489,467
901.004822,473
901.121033,477
901.237366,462
901.353699,502
901.46991,487
901.586304,463
901.702515,456
901.818787,462
901.93512,477
902.051331,483
902.167603,469
902.283875,474
902.400085,493
902.516418,483
902.632629,500
902.74884,481
902.865112,485
902.981384,489
903.097595,482
903.213867,491
903.330017,477
903.446289,469
903.5625,470
903.67865,494
903.794922,459
903.911072,469
904.027344,478
904.143494,456
904.259705,471
904.375916,469
904.492065,464
904.608215,469
904.724426,462
904.840576,455
904.956726,473
905.072876,460
905.189087,489
905.305176,447
905.421387,473
905.537537,484
905.653687,492
905.769775,481
905.885925,462
906.002014,471
906.118164,474
906.234314,473
906.350403,453
906.466492,451
906.582642,479
906.69873,476
906.814758,464
906.930908,464
907.046936,477
907.163086,470
907.279175,455
907.395264,457
907.511353,483
907.62738,469
907.743408,467
907.859497,461
907.975525,456
908.091553,466
908.207703,456
908.32373,460
908.439758,459
908.555786,466
908.671814,473
908.787842,466
908.90387,495
909.019775,461
909.135864,482
909.251892,469
909.367859,464
909.483826,464
909.599854,463
909.715881,473
909.831848,453
909.947815,477
910.063782,480
910.179749,465
910.295776,454
910.411743,461
910.527649,476
910.643616,461
910.759583,464
910.875488,467
910.991455,473
911.107361,464
911.223267,457
911.339294,439
911.4552,455
911.571106,462
911.687073,455
911.802979,469
911.918823,465
912.034729,458
912.150635,462
912.266602,470
912.382446,477
912.498352,460
912.614197,470
912.730103,459
912.846008,464
792.44574,631
792.56488,643
792.68396,678
792.80304,695
792.92218,632
793.041199,600
793.160339,605
793.279419,604
793.398499,592
793.517578,594
793.636658,581
793.755737,574
793.874817,595
793.993896,603
794.112976,583
794.232056,564
794.351074,562
794.470215,596
794.589233,570
794.708313,561
794.827393,572
794.946411,538
795.065552,560
795.18457,555
795.303589,554
795.422668,548
795.541687,534
795.660767,551
795.779846,552
795.898865,555
796.017883,535
796.136963,520
796.255981,531
796.375061,522
796.49408,546
796.613037,549
796.732117,523
796.851135,550
796.970154,537
797.089233,521
797.208191,510
797.327271,538
797.446228,516
797.565186,521
797.684265,537
797.803223,524
797.922241,523
798.04126,533
798.160278,506
798.279297,510
798.398315,522
798.517273,524
798.636292,522
798.75531,546
798.874268,518
798.993286,526
799.112244,516
799.231323,514
799.350281,522
799.469238,516
799.588257,503
799.707153,505
799.826111,514
799.945129,512
800.064087,530
800.183044,522
800.302063,520
800.421021,514
800.539978,522
800.658936,519
800.777893,508
800.896912,490
801.015747,512
801.134705,510
801.253723,520
801.37262,513
801.491638,487
801.610535,504
801.729492,505
801.84845,519
801.967407,482
802.086243,514
802.205261,503
802.324158,507
802.443115,510
802.562073,502
802.680969,533
802.799927,488
802.918762,492
803.037659,495
803.156677,493
803.275574,512
803.39447,474
803.513428,494
803.632263,492
803.751221,503
803.870117,515
803.989014,506
804.107971,484
804.226746,503
804.345642,500
804.4646,502
804.583496,483
804.702393,504
804.821228,505
804.940125,491
805.059021,498
805.177917,510
805.296814,513
805.415649,509
805.534546,493
805.653442,514
805.772278,513
805.891113,511
806.01001,496
806.128906,492
806.247742,486
806.366577,489
806.485413,507
806.604309,503
806.723145,504
806.84198,526
806.960876,483
807.079712,496
807.198486,496
807.317383,499
807.436218,486
807.554993,487
807.673889,491
807.792725,492
807.91156,521
808.030396,490
808.14917,502
808.268005,506
808.386841,495
808.505676,483
808.624451,478
808.743286,503
808.862122,495
808.980896,501
809.099731,502
809.218506,505
809.337341,507
809.456116,484
809.57489,499
809.693726,495
809.8125,526
809.931274,491
810.050049,524
810.168884,480
810.287659,500
810.406372,517
810.525269,506
810.643982,502
810.762756,507
810.881531,503
811.000305,489
811.11908,498
811.237854,507
811.356567,506
811.475403,482
811.594116,497
811.71283,483
811.831604,497
811.950378,496
812.069153,493
812.187927,513
812.30658,493
812.425415,511
812.544128,495
812.662781,500
812.781616,500
812.900269,492
813.019043,514
813.137756,498
813.256531,498
813.375244,482
813.493896,482
813.612671,509
813.731384,498
813.850037,485
813.96875,499
814.087524,488
814.206238,481
814.324951,532
814.443604,503
814.562256,498
814.68103,511
814.799683,499
814.918335,502
815.037109,484
815.155762,489
815.274475,493
815.393188,490
815.511841,489
815.630554,504
815.749146,485
815.867859,505
815.986572,485
816.105164,479
816.223877,510
816.342529,488
816.461182,507
816.579895,489
816.698486,493
816.817139,506
816.935791,507
817.054504,507
817.173096,468
817.291748,476
817.4104,478
817.529053,481
817.647644,484
817.766235,498
817.884949,493
818.00354,473
818.122192,489
818.240845,491
818.359436,485
818.478088,489
818.59668,493
818.715271,496
818.833923,478
818.952515,465
819.071106,477
819.189758,472
819.30835,466
819.426941,469
819.545532,482
819.664124,471
819.782715,475
819.901306,484
820.019897,481
820.138489,503
820.25708,474
820.375671,468
820.494202,468
820.612732,483
820.731384,466
820.849915,466
820.968506,463
821.087097,491
821.205627,467
821.324158,466
821.442749,468
821.561279,457
821.679871,485
821.798401,472
821.916931,456
822.035461,478
822.154053,476
822.272583,470
822.391174,444
822.509583,478
822.628174,471
822.746704,442
822.865234,464
822.983765,458
823.102295,476
823.220825,459
823.339294,467
823.457825,458
823.576355,449
823.694824,488
823.813354,468
823.931885,465
824.050354,461
824.168884,452
824.287354,456
824.405823,460
824.524353,458
824.642822,469
824.761353,457
824.879822,466
824.998291,457
825.116699,475
825.235291,466
825.353699,454
825.472168,469
825.590637,452
825.709106,467
825.827576,454
825.946045,472
826.064453,451
826.182983,461
826.301392,457
826.4198,469
826.53833,447
826.656738,438
826.775208,478
826.893677,442
827.012024,455
827.130493,456
827.248962,479
827.36731,458
827.485779,463
827.604248,466
827.722595,446
827.841064,452
827.959412,454
828.077942,444
828.196289,445
828.314636,454
828.433105,472
828.551514,448
828.669861,474
828.78833,446
828.906677,471
829.025085,452
829.143433,444
829.261841,445
829.38031,454
829.498657,466
829.617004,447
829.735413,448
829.85376,465
829.972107,465
830.090515,478
830.208862,453
830.327209,454
830.445557,464
830.563904,448
830.682312,477
830.800659,449
830.919006,453
831.037354,472
831.155701,460
831.274048,482
831.392395,464
831.51062,473
831.629028,472
831.747314,459
831.865662,460
831.984009,467
832.102356,443
832.220642,474
832.338928,449
832.457275,469
832.575623,474
832.693909,465
832.812134,465
832.930481,447
833.048828,450
833.167114,459
833.2854,465
833.403687,450
833.521973,471
833.640259,453
833.758545,447
833.876831,459
833.995056,480
834.113281,460
834.231628,459
834.349915,474
834.468201,455
834.586426,467
834.704651,442
834.822998,468
834.941162,444
835.059448,473
835.177673,446
835.295959,475
835.414246,451
835.53241,470
835.650635,447
835.768921,440
835.887146,472
836.005371,442
836.123596,450
836.241821,461
836.360046,473
836.478271,452
836.596497,453
836.714722,454
836.832886,439
836.95105,457
837.069336,478
837.1875,461
837.305725,438
837.423889,458
837.542053,455
837.660339,470
837.778503,453
837.896667,459
838.014832,463
838.132996,456
838.25116,473
838.369385,454
838.487488,441
838.605713,450
838.723877,467
838.84198,450
838.960205,483
839.078308,438
839.196472,451
839.314636,446
839.4328,464
839.550964,456
839.669067,477
839.787231,470
839.905396,437
840.023499,458
840.141602,443
840.259766,450
840.377869,446
840.495972,463
840.614136,477
840.732239,449
840.850342,460
840.968445,461
841.086548,468
841.204651,467
841.322754,469
841.440918,462
841.55896,468
841.677002,480
841.795166,460
841.913208,457
842.031311,464
842.149353,465
842.267456,461
842.385498,476
842.503601,433
842.621643,471
842.739746,461
842.857788,466
842.97583,458
843.093933,456
843.211975,472
843.330017,454
843.44812,446
843.566101,457
843.684204,452
843.802246,484
843.920227,462
844.038269,441
844.156311,467
844.274292,470
844.392395,475
844.510376,474
844.628357,445
844.74646,476
844.864441,462
844.982422,457
845.100403,453
845.218384,466
845.336426,457
845.454468,481
845.572449,459
845.69043,453
845.808411,458
845.926453,471
846.044373,439
846.162354,477
846.280396,459
846.398315,468
846.516296,452
846.634216,451
846.752197,465
846.870178,467
846.988098,450
847.106079,477
847.22406,458
847.34198,473
847.4599,454
847.577881,457
847.695801,458
847.813782,473
847.931641,487
848.049561,485
848.167603,456
848.285461,443
848.403381,442
848.521362,481
848.639221,466
848.75708,466
848.875,470
848.99292,459
849.110901,444
849.22876,465
849.34668,476
849.464539,476
849.582458,457
849.700317,448
849.818176,458
849.936096,451
850.053955,452
850.171875,453
850.289673,473
850.407593,458
850.525452,444
850.643311,467
850.761169,468
850.878967,474
850.996887,473
851.114746,456
851.232544,457
851.350403,469
851.468262,457
851.58606,468
851.703979,449
851.821777,455
851.939636,449
852.057434,453
852.175232,468
852.293091,453
852.410889,459
852.528687,474
852.646545,476
852.764343,479
852.88208,466
852.999939,463
853.117676,453
853.235535,491
853.353271,464
853.471069,454
853.588928,458
853.706604,464
853.824402,481
853.9422,451
854.059998,462
854.177734,461
854.295532,478
854.413269,472
854.531006,489
854.648804,463
854.766541,436
854.884277,458
855.002014,462
855.119751,449
855.237549,449
855.355225,450
855.473022,471
855.590698,441
855.708435,472
855.826172,448
855.943848,461
856.061646,455
856.179321,457
856.296997,463
856.414795,457
856.53241,471
856.650085,460
856.767822,461
856.885559,486
857.003174,468
857.120911,458
857.238586,447
857.356201,452
857.473938,474
857.591614,462
857.709351,455
857.826965,465
857.944641,459
858.062317,481
858.179993,455
858.297668,448
858.415283,472
858.532959,477
858.650574,450
858.768188,482
858.885803,461
859.003479,464
859.121094,469
859.23877,449
859.356384,444
859.473999,460
859.591675,478
859.709229,446
859.826843,462
859.944458,458
860.062012,469
860.179626,463
860.297302,452
860.414856,458
860.532471,463
860.650024,484
860.767639,458
860.885193,467
861.002808,465
861.120361,476
861.237976,467
861.35553,446
861.473022,472
861.590698,464
861.708191,449
861.825745,462
861.943298,448
862.060852,455
862.178406,457
862.295959,442
862.413513,458
862.531006,455
862.64856,453
862.766113,454
862.883667,457
863.00116,457
863.118713,477
863.236206,468
863.353699,460
863.471252,463
863.588745,456
863.706177,457
863.82373,466
863.941162,461
864.058716,484
864.176208,452
864.29364,462
864.411194,478
864.528687,448
864.646118,468
864.763611,467
864.881042,457
864.998535,440
865.116028,448
865.233459,445
865.350891,473
865.468384,458
865.585754,461
865.703308,466
865.820679,447
865.938171,456
866.055542,486
866.173035,461
866.290466,465
866.407837,473
866.52533,444
866.6427,454
866.760071,474
866.877563,455
866.994934,464
867.112305,446
867.229736,441
867.347107,445
867.464539,455
867.58197,469
867.699341,463
867.81665,449
867.934082,463
868.051453,457
868.168823,446
868.286194,463
868.403564,466
868.520935,469
868.638306,467
868.755676,448
868.872986,461
868.990295,458
869.107727,460
869.225037,483
869.342346,447
869.459717,450
869.577026,468
869.694336,471
869.811707,453
869.929016,467
870.046326,464
870.163635,467
870.280945,473
870.398254,474
870.515564,466
870.632812,468
870.750183,463
870.867432,444
870.984741,471
871.102051,454
871.219299,457
871.336609,460
871.453918,474
871.571106,471
871.688416,478
871.805664,452
871.922852,471
872.040222,483
872.157471,494
872.274719,474
872.391968,488
872.509155,444
872.626465,475
872.743652,472
872.860962,468
872.978149,466
873.095337,469
873.212646,498
873.329834,451
873.44696,466
873.564209,457
873.681396,469
873.798645,468
873.915894,465
874.03302,468
874.150208,477
874.267456,465
874.384583,470
874.501831,471
874.618958,459
874.736145,474
874.853333,470
874.970459,499
875.087646,472
875.204834,476
875.32196,465
875.439148,481
875.556274,481
875.673401,458
875.790527,483
875.907715,472
876.024841,477
876.141968,465
876.259094,481
876.376282,483
876.493347,452
876.610474,463
876.7276,457
876.844727,475
876.961853,446
877.078918,463
877.195984,454
877.313171,456
877.430237,477
877.547302,475
877.664368,473
877.781433,470
877.898499,454
878.015625,472
878.13269,462
878.249695,462
878.366821,460
878.483887,470
878.600952,448
878.717957,476
878.834961,446
878.952087,455
879.069092,474
879.186157,456
879.303162,441
879.420227,468
879.537231,458
879.654236,467
879.77124,467
879.888306,443
880.005249,460
880.122314,434
880.239319,474
880.356323,452
880.473328,453
880.590271,454
880.707275,463
880.824341,455
880.941284,467
881.058228,466
881.175232,469
881.292236,437
881.40918,477
881.526123,460
881.643066,463
881.760071,462
881.877014,456
881.993958,467
882.11084,472
882.227783,479
882.344727,452
882.46167,451
882.578613,462
882.695618,463
882.812439,456
882.929382,454
883.046326,463
883.163208,447
883.280151,463
883.397034,456
883.513916,466
883.630798,468
883.747742,460
883.864563,459
883.981506,477
884.098389,471
884.21521,467
884.332153,468
884.448975,459
884.565796,466
884.682678,471
884.7995,472
884.916443,468
885.033264,508
885.150085,475
885.266968,483
885.383789,480
885.500671,505
885.617493,485
885.734314,463
885.851196,483
885.967896,479
886.084717,502
886.201599,497
886.318359,478
886.435181,486
886.552002,483
886.668762,463
886.785645,497
886.902344,475
887.019165,483
887.135925,483
887.252747,483
887.369446,460
887.486267,464
887.603027,468
887.719788,477
887.836548,475
887.953247,459
888.070068,456
888.186829,473
888.303528,471
888.420288,456
888.536987,481
888.653687,449
888.770447,471
888.887146,477
889.003967,470
889.120667,464
889.237305,468
889.354065,469
889.470703,466
889.587463,460
889.704163,462
889.820862,453
889.937561,462
890.054199,490
890.170837,457
890.287598,443
890.404236,450
890.520874,465
890.637634,470
890.754211,466
890.87085,454
890.987549,454
891.104187,474
891.220886,484
891.337463,450
891.454102,484
891.57074,456
891.687378,458
891.804077,460
891.920654,456
892.037231,458
892.15387,460
892.270447,468
892.387085,451
892.503723,476
892.6203,464
892.736877,458
892.853516,452
892.970032,472
893.08667,472
893.203186,462
893.319763,463
893.43634,478
893.552917,443
893.669556,461
893.786011,462
893.902588,465
894.019165,469
894.135681,464
894.252197,454
894.368835,462
894.485291,462
894.601868,465
894.718384,470
894.8349,484
894.951355,473
895.067932,450
895.184448,471
895.300964,475
895.417419,460
895.533936,493
895.650452,466
895.766907,469
895.883423,465
895.999878,487
896.116333,464
896.232849,473
896.349304,474
896.465759,459
896.582214,459
896.698669,467
896.815125,450
896.931641,472
897.048035,473
897.164551,453
897.280884,463
897.397339,460
897.513794,463
897.630249,450
897.746582,480
897.863098,475
897.979431,457
898.095886,455
898.212341,468
898.328674,458
898.445129,465
898.561462,470
898.677795,447
898.794312,457
898.910645,454
899.026978,450
899.143433,444
899.259766,449
899.37616,479
899.492493,477
899.608765,452
899.725159,453
899.841553,484
899.957947,441
900.07428,475
900.190552,476
900.306946,485
900.423157,485
900.53949,462
900.655884,471
900.772156,449
900.888489,481
901.004822,458
901.121033,478
901.237366,483
901.353699,475
901.46991,478
901.586304,471
901.702515,465
901.818787,470
901.93512,475
902.051331,480
902.167603,489
902.283875,485
902.400085,492
902.516418,477
902.632629,481
902.74884,490
902.865112,472
902.981384,488
903.097595,489
903.213867,499
903.330017,484
903.446289,490
903.5625,482
903.67865,469
903.794922,459
903.911072,460
904.027344,466
904.143494,481
904.259705,483
904.375916,449
904.492065,482
904.608215,471
904.724426,454
904.840576,471
904.956726,468
905.072876,471
905.189087,475
905.305176,473
905.421387,479
905.537537,477
905.653687,465
905.769775,458
905.885925,481
906.002014,468
906.118164,477
906.234314,462
906.350403,487
906.466492,467
906.582642,459
906.69873,483
906.814758,484
906.930908,479
907.046936,460
907.163086,470
907.279175,471
907.395264,461
907.511353,470
907.62738,485
907.743408,483
907.859497,453
907.975525,470
908.091553,464
908.207703,467
908.32373,466
908.439758,462
908.555786,462
908.671814,456
908.787842,481
908.90387,480
909.019775,465
909.135864,494
909.251892,461
909.367859,473
909.483826,478
909.599854,458
909.715881,462
909.831848,476
909.947815,470
910.063782,486
910.179749,493
910.295776,471
910.411743,467
910.527649,471
910.643616,486
910.759583,481
910.875488,475
910.991455,454
911.107361,465
911.223267,482
911.339294,478
911.4552,480
911.571106,467
911.687073,484
911.802979,474
911.918823,475
912.034729,468
912.150635,456
912.266602,461
912.382446,466
912.498352,478
912.614197,472
912.730103,473
912.846008,476
