792.44574,496
792.56488,531
792.68396,578
792.80304,567
792.92218,527
793.041199,471
793.160339,514
793.279419,521
793.398499,510
793.517578,494
793.636658,494
793.755737,517
793.874817,510
793.993896,530
794.112976,504
794.232056,499
794.351074,501
794.470215,511
794.589233,498
794.708313,483
794.827393,498
794.946411,494
795.065552,504
795.18457,502
795.303589,500
795.422668,504
795.541687,485
795.660767,493
795.779846,477
795.898865,515
796.017883,484
796.136963,504
796.255981,501
796.375061,494
796.49408,503
796.613037,496
796.732117,494
796.851135,491
796.970154,463
797.089233,484
797.208191,482
797.327271,494
797.446228,481
797.565186,472
797.684265,497
797.803223,490
797.922241,511
798.04126,468
798.160278,480
798.279297,502
798.398315,493
798.517273,474
798.636292,474
798.75531,482
798.874268,481
798.993286,474
799.112244,491
799.231323,496
799.350281,471
799.469238,480
799.588257,485
799.707153,470
799.826111,483
799.945129,468
800.064087,498
800.183044,478
800.302063,474
800.421021,493
800.539978,478
800.658936,474
800.777893,462
800.896912,487
801.015747,493
801.134705,484
801.253723,463
801.37262,476
801.491638,500
801.610535,479
801.729492,466
801.84845,461
801.967407,483
802.086243,495
802.205261,495
802.324158,477
802.443115,469
802.562073,469
802.680969,493
802.799927,492
802.918762,467
803.037659,476
803.156677,478
803.275574,480
803.39447,465
803.513428,478
803.632263,487
803.751221,469
803.870117,477
803.989014,478
804.107971,479
804.226746,465
804.345642,469
804.4646,477
804.583496,475
804.702393,490
804.821228,487
804.940125,484
805.059021,469
805.177917,477
805.296814,482
805.415649,468
805.534546,461
805.653442,477
805.772278,486
805.891113,482
806.01001,492
806.128906,472
806.247742,485
806.366577,470
806.485413,483
806.604309,482
806.723145,472
806.84198,499
806.960876,476
807.079712,487
807.198486,480
807.317383,466
807.436218,464
807.554993,485
807.673889,463
807.792725,479
807.91156,476
808.030396,475
808.14917,482
808.268005,484
808.386841,487
808.505676,466
808.624451,481
808.743286,476
808.862122,481
808.980896,470
809.099731,476
809.218506,489
809.337341,481
809.456116,485
809.57489,470
809.693726,475
809.8125,476
809.931274,476
810.050049,485
810.168884,479
810.287659,473
810.406372,465
810.525269,470
810.643982,481
810.762756,485
810.881531,477
811.000305,480
811.11908,491
811.237854,446
811.356567,497
811.475403,477
811.594116,457
811.71283,481
811.831604,504
811.950378,469
812.069153,470
812.187927,468
812.30658,474
812.425415,473
812.544128,467
812.662781,482
812.781616,477
812.900269,460
813.019043,480
813.137756,463
813.256531,471
813.375244,472
813.493896,467
813.612671,476
813.731384,504
813.850037,455
813.96875,467
814.087524,490
814.206238,475
814.324951,469
814.443604,484
814.562256,469
814.68103,476
814.799683,478
814.918335,491
815.037109,455
815.155762,471
815.274475,472
815.393188,457
815.511841,476
815.630554,470
815.749146,459
815.867859,475
815.986572,466
816.105164,467
816.223877,477
816.342529,477
816.461182,465
816.579895,481
816.698486,472
816.817139,464
816.935791,495
817.054504,459
817.173096,472
817.291748,467
817.4104,465
817.529053,470
817.647644,471
817.766235,447
817.884949,473
818.00354,461
818.122192,465
818.240845,449
818.359436,462
818.478088,466
818.59668,461
818.715271,469
818.833923,450
818.952515,465
819.071106,456
819.189758,477
819.30835,464
819.426941,465
819.545532,446
819.664124,448
819.782715,453
819.901306,485
820.019897,464
820.138489,454
820.25708,457
820.375671,466
820.494202,474
820.612732,459
820.731384,446
820.849915,491
820.968506,463
821.087097,473
821.205627,462
821.324158,455
821.442749,456
821.561279,449
821.679871,447
821.798401,455
821.916931,463
822.035461,471
822.154053,461
822.272583,436
822.391174,455
822.509583,455
822.628174,457
822.746704,452
822.865234,441
822.983765,470
823.102295,450
823.220825,456
823.339294,444
823.457825,436
823.576355,470
823.694824,456
823.813354,452
823.931885,452
824.050354,449
824.168884,459
824.287354,443
824.405823,462
824.524353,453
824.642822,469
824.761353,452
824.879822,450
824.998291,468
825.116699,441
825.235291,455
825.353699,454
825.472168,455
825.590637,467
825.709106,463
825.827576,437
825.946045,461
826.064453,454
826.182983,437
826.301392,467
826.4198,435
826.53833,460
826.656738,445
826.775208,463
826.893677,446
827.012024,450
827.130493,446
827.248962,461
827.36731,452
827.485779,448
827.604248,446
827.722595,444
827.841064,463
827.959412,472
828.077942,424
828.196289,442
828.314636,453
828.433105,469
828.551514,457
828.669861,445
828.78833,458
828.906677,438
829.025085,435
829.143433,458
829.261841,456
829.38031,454
829.498657,456
829.617004,443
829.735413,435
829.85376,437
829.972107,455
830.090515,453
830.208862,452
830.327209,449
830.445557,456
830.563904,440
830.682312,439
830.800659,452
830.919006,450
831.037354,475
831.155701,449
831.274048,435
831.392395,445
831.51062,460
831.629028,449
831.747314,457
831.865662,469
831.984009,412
832.102356,454
832.220642,448
832.338928,429
832.457275,446
832.575623,433
832.693909,451
832.812134,460
832.930481,446
833.048828,445
833.167114,449
833.2854,434
833.403687,458
833.521973,427
833.640259,462
833.758545,451
833.876831,466
833.995056,460
834.113281,449
834.231628,448
834.349915,443
834.468201,473
834.586426,446
834.704651,440
834.822998,439
834.941162,442
835.059448,445
835.177673,434
835.295959,467
835.414246,446
835.53241,458
835.650635,447
835.768921,446
835.887146,460
836.005371,453
836.123596,451
836.241821,456
836.360046,446
836.478271,455
836.596497,435
836.714722,442
836.832886,440
836.95105,446
837.069336,441
837.1875,456
837.305725,437
837.423889,435
837.542053,463
837.660339,432
837.778503,452
837.896667,468
838.014832,446
838.132996,421
838.25116,457
838.369385,445
838.487488,445
838.605713,450
838.723877,430
838.84198,463
838.960205,437
839.078308,466
839.196472,429
839.314636,464
839.4328,430
839.550964,445
839.669067,438
839.787231,451
839.905396,448
840.023499,423
840.141602,435
840.259766,445
840.377869,454
840.495972,445
840.614136,422
840.732239,462
840.850342,448
840.968445,455
841.086548,453
841.204651,437
841.322754,442
841.440918,447
841.55896,451
841.677002,448
841.795166,446
841.913208,444
842.031311,459
842.149353,440
842.267456,431
842.385498,445
842.503601,444
842.621643,440
842.739746,438
842.857788,433
842.97583,452
843.093933,435
843.211975,466
843.330017,455
843.44812,441
843.566101,440
843.684204,446
843.802246,441
843.920227,456
844.038269,451
844.156311,436
844.274292,456
844.392395,428
844.510376,445
844.628357,459
844.74646,457
844.864441,439
844.982422,442
845.100403,433
845.218384,454
845.336426,441
845.454468,435
845.572449,445
845.69043,450
845.808411,428
845.926453,451
846.044373,452
846.162354,448
846.280396,454
846.398315,442
846.516296,429
846.634216,432
846.752197,444
846.870178,438
846.988098,445
847.106079,447
847.22406,432
847.34198,460
847.4599,430
847.577881,463
847.695801,423
847.813782,448
847.931641,435
848.049561,449
848.167603,451
848.285461,444
848.403381,437
848.521362,432
848.639221,452
848.75708,464
848.875,437
848.99292,458
849.110901,442
849.22876,452
849.34668,422
849.464539,444
849.582458,441
849.700317,425
849.818176,450
849.936096,467
850.053955,436
850.171875,443
850.289673,447
850.407593,441
850.525452,454
850.643311,437
850.761169,438
850.878967,438
850.996887,429
851.114746,446
851.232544,442
851.350403,442
851.468262,449
851.58606,454
851.703979,446
851.821777,445
851.939636,431
852.057434,443
852.175232,445
852.293091,451
852.410889,454
852.528687,450
852.646545,438
852.764343,441
852.88208,456
852.999939,466
853.117676,443
853.235535,459
853.353271,441
853.471069,440
853.588928,437
853.706604,460
853.824402,457
853.9422,448
854.059998,453
854.177734,432
854.295532,433
854.413269,453
854.531006,459
854.648804,448
854.766541,453
854.884277,449
855.002014,438
855.119751,427
855.237549,434
855.355225,440
855.473022,425
855.590698,449
855.708435,447
855.826172,426
855.943848,450
856.061646,441
856.179321,429
856.296997,454
856.414795,446
856.53241,451
856.650085,439
856.767822,448
856.885559,444
857.003174,438
857.120911,434
857.238586,466
857.356201,429
857.473938,455
857.591614,430
857.709351,430
857.826965,440
857.944641,441
858.062317,437
858.179993,425
858.297668,430
858.415283,433
858.532959,433
858.650574,431
858.768188,468
858.885803,467
859.003479,446
859.121094,471
859.23877,439
859.356384,458
859.473999,441
859.591675,453
859.709229,442
859.826843,452
859.944458,452
860.062012,445
860.179626,455
860.297302,438
860.414856,436
860.532471,440
860.650024,444
860.767639,442
860.885193,434
861.002808,446
861.120361,443
861.237976,445
861.35553,445
861.473022,445
861.590698,434
861.708191,453
861.825745,466
861.943298,447
862.060852,437
862.178406,440
862.295959,449
862.413513,442
862.531006,456
862.64856,454
862.766113,462
862.883667,432
863.00116,438
863.118713,440
863.236206,444
863.353699,441
863.471252,436
863.588745,467
863.706177,452
863.82373,439
863.941162,448
864.058716,461
864.176208,445
864.29364,450
864.411194,447
864.528687,453
864.646118,452
864.763611,450
864.881042,462
864.998535,442
865.116028,435
865.233459,446
865.350891,439
865.468384,433
865.585754,459
865.703308,451
865.820679,457
865.938171,447
866.055542,443
866.173035,455
866.290466,449
866.407837,443
866.52533,440
866.6427,448
866.760071,452
866.877563,441
866.994934,451
867.112305,439
867.229736,450
867.347107,421
867.464539,455
867.58197,457
867.699341,453
867.81665,431
867.934082,436
868.051453,469
868.168823,447
868.286194,440
868.403564,434
868.520935,443
868.638306,451
868.755676,446
868.872986,427
868.990295,456
869.107727,452
869.225037,445
869.342346,432
869.459717,451
869.577026,437
869.694336,439
869.811707,441
869.929016,463
870.046326,445
870.163635,476
870.280945,449
870.398254,450
870.515564,441
870.632812,480
870.750183,449
870.867432,452
870.984741,440
871.102051,447
871.219299,445
871.336609,435
871.453918,457
871.571106,450
871.688416,436
871.805664,440
871.922852,462
872.040222,453
872.157471,461
872.274719,462
872.391968,448
872.509155,452
872.626465,447
872.743652,450
872.860962,438
872.978149,466
873.095337,454
873.212646,452
873.329834,440
873.44696,438
873.564209,463
873.681396,476
873.798645,439
873.915894,475
874.03302,446
874.150208,430
874.267456,469
874.384583,452
874.501831,445
874.618958,445
874.736145,449
874.853333,440
874.970459,437
875.087646,447
875.204834,459
875.32196,460
875.439148,447
875.556274,441
875.673401,459
875.790527,444
875.907715,447
876.024841,440
876.141968,456
876.259094,458
876.376282,448
876.493347,452
876.610474,438
876.7276,443
876.844727,441
876.961853,462
877.078918,454
877.195984,432
877.313171,464
877.430237,451
877.547302,459
877.664368,437
877.781433,452
877.898499,436
878.015625,444
878.13269,461
878.249695,452
878.366821,452
878.483887,457
878.600952,450
878.717957,423
878.834961,463
878.952087,455
879.069092,448
879.186157,448
879.303162,457
879.420227,441
879.537231,443
879.654236,444
879.77124,442
879.888306,448
880.005249,444
880.122314,447
880.239319,446
880.356323,439
880.473328,435
880.590271,453
880.707275,448
880.824341,440
880.941284,450
881.058228,454
881.175232,442
881.292236,437
881.40918,439
881.526123,451
881.643066,447
881.760071,443
881.877014,451
881.993958,442
882.11084,453
882.227783,453
882.344727,441
882.46167,450
882.578613,439
882.695618,445
882.812439,456
882.929382,451
883.046326,457
883.163208,459
883.280151,452
883.397034,447
883.513916,447
883.630798,438
883.747742,436
883.864563,443
883.981506,450
884.098389,446
884.21521,448
884.332153,451
884.448975,450
884.565796,442
884.682678,441
884.7995,453
884.916443,455
885.033264,458
885.150085,471
885.266968,445
885.383789,467
885.500671,451
885.617493,454
885.734314,454
885.851196,471
885.967896,460
886.084717,460
886.201599,433
886.318359,464
886.435181,450
886.552002,456
886.668762,461
886.785645,461
886.902344,452
887.019165,452
887.135925,440
887.252747,446
887.369446,452
887.486267,453
887.603027,451
887.719788,456
887.836548,441
887.953247,470
888.070068,443
888.186829,467
888.303528,454
888.420288,446
888.536987,457
888.653687,447
888.770447,450
888.887146,453
889.003967,482
889.120667,440
889.237305,456
889.354065,471
889.470703,451
889.587463,443
889.704163,458
889.820862,473
889.937561,461
890.054199,452
890.170837,445
890.287598,461
890.404236,453
890.520874,449
890.637634,460
890.754211,457
890.87085,456
890.987549,473
891.104187,445
891.220886,451
891.337463,445
891.454102,455
891.57074,443
891.687378,455
891.804077,473
891.920654,455
892.037231,455
892.15387,447
892.270447,440
892.387085,450
892.503723,460
892.6203,463
892.736877,458
892.853516,450
892.970032,466
893.08667,474
893.203186,463
893.319763,429
893.43634,456
893.552917,453
893.669556,471
893.786011,453
893.902588,464
894.019165,455
894.135681,442
894.252197,446
894.368835,474
894.485291,459
894.601868,453
894.718384,469
894.8349,458
894.951355,466
895.067932,465
895.184448,447
895.300964,452
895.417419,451
895.533936,451
895.650452,458
895.766907,455
895.883423,459
895.999878,460
896.116333,463
896.232849,442
896.349304,454
896.465759,448
896.582214,434
896.698669,453
896.815125,457
896.931641,456
897.048035,470
897.164551,456
897.280884,480
897.397339,447
897.513794,475
897.630249,470
897.746582,466
897.863098,465
897.979431,449
898.095886,447
898.212341,461
898.328674,455
898.445129,450
898.561462,439
898.677795,452
898.794312,468
898.910645,463
899.026978,458
899.143433,449
899.259766,460
899.37616,451
899.492493,470
899.608765,442
899.725159,441
899.841553,464
899.957947,468
900.07428,471
900.190552,469
900.306946,458
900.423157,460
900.53949,458
900.655884,470
900.772156,465
900.888489,446
901.004822,449
901.121033,473
901.237366,456
901.353699,442
901.46991,438
901.586304,480
901.702515,458
901.818787,462
901.93512,468
902.051331,458
902.167603,463
902.283875,439
902.400085,475
902.516418,469
902.632629,467
902.74884,455
902.865112,464
902.981384,458
903.097595,482
903.213867,442
903.330017,466
903.446289,463
903.5625,476
903.67865,455
903.794922,460
903.911072,457
904.027344,438
904.143494,466
904.259705,458
904.375916,457
904.492065,456
904.608215,460
904.724426,469
904.840576,466
904.956726,459
905.072876,459
905.189087,466
905.305176,439
905.421387,473
905.537537,461
905.653687,451
905.769775,480
905.885925,476
906.002014,480
906.118164,459
906.234314,479
906.350403,473
906.466492,443
906.582642,458
906.69873,474
906.814758,473
906.930908,472
907.046936,465
907.163086,482
907.279175,466
907.395264,470
907.511353,471
907.62738,471
907.743408,455
907.859497,471
907.975525,458
908.091553,463
908.207703,466
908.32373,459
908.439758,474
908.555786,465
908.671814,479
908.787842,475
908.90387,456
909.019775,449
909.135864,466
909.251892,456
909.367859,447
909.483826,473
909.599854,462
909.715881,462
909.831848,465
909.947815,460
910.063782,464
910.179749,465
910.295776,472
910.411743,451
910.527649,479
910.643616,450
910.759583,456
910.875488,450
910.991455,467
911.107361,454
911.223267,478
911.339294,471
911.4552,462
911.571106,477
911.687073,478
911.802979,454
911.918823,491
912.034729,454
912.150635,472
912.266602,452
912.382446,474
912.498352,487
912.614197,458
912.730103,454
912.846008,449
792.44574,504
792.56488,541
792.68396,565
792.80304,571
792.92218,515
793.041199,491
793.160339,520
793.279419,525
793.398499,517
793.517578,473
793.636658,505
793.755737,505
793.874817,513
793.993896,548
794.112976,530
794.232056,496
794.351074,484
794.470215,488
794.589233,494
794.708313,476
794.827393,514
794.946411,482
795.065552,497
795.18457,516
795.303589,518
795.422668,479
795.541687,493
795.660767,492
795.779846,485
795.898865,507
796.017883,491
796.136963,506
796.255981,492
796.375061,482
796.49408,504
796.613037,471
796.732117,494
796.851135,482
796.970154,492
797.089233,488
797.208191,491
797.327271,474
797.446228,493
797.565186,482
797.684265,518
797.803223,469
797.922241,499
798.04126,460
798.160278,474
798.279297,494
798.398315,491
798.517273,471
798.636292,491
798.75531,468
798.874268,489
798.993286,475
799.112244,471
799.231323,491
799.350281,504
799.469238,487
799.588257,487
799.707153,491
799.826111,496
799.945129,487
800.064087,491
800.183044,481
800.302063,467
800.421021,486
800.539978,482
800.658936,491
800.777893,479
800.896912,485
801.015747,479
801.134705,480
801.253723,482
801.37262,462
801.491638,474
801.610535,488
801.729492,513
801.84845,465
801.967407,507
802.086243,473
802.205261,495
802.324158,477
802.443115,479
802.562073,461
802.680969,488
802.799927,479
802.918762,494
803.037659,473
803.156677,463
803.275574,473
803.39447,480
803.513428,487
803.632263,486
803.751221,461
803.870117,475
803.989014,470
804.107971,480
804.226746,476
804.345642,466
804.4646,494
804.583496,474
804.702393,469
804.821228,479
804.940125,495
805.059021,481
805.177917,471
805.296814,469
805.415649,462
805.534546,480
805.653442,472
805.772278,501
805.891113,479
806.01001,478
806.128906,459
806.247742,479
806.366577,486
806.485413,466
806.604309,476
806.723145,482
806.84198,474
806.960876,488
807.079712,467
807.198486,490
807.317383,501
807.436218,485
807.554993,475
807.673889,497
807.792725,465
807.91156,479
808.030396,482
808.14917,488
808.268005,475
808.386841,485
808.505676,488
808.624451,487
808.743286,473
808.862122,484
808.980896,473
809.099731,467
809.218506,462
809.337341,491
809.456116,485
809.57489,469
809.693726,470
809.8125,470
809.931274,477
810.050049,479
810.168884,493
810.287659,482
810.406372,464
810.525269,479
810.643982,466
810.762756,479
810.881531,488
811.000305,478
811.11908,477
811.237854,467
811.356567,467
811.475403,471
811.594116,481
811.71283,488
811.831604,464
811.950378,478
812.069153,470
812.187927,494
812.30658,465
812.425415,472
812.544128,479
812.662781,467
812.781616,493
812.900269,479
813.019043,475
813.137756,482
813.256531,488
813.375244,477
813.493896,477
813.612671,476
813.731384,482
813.850037,461
813.96875,480
814.087524,478
814.206238,476
814.324951,478
814.443604,461
814.562256,483
814.68103,474
814.799683,483
814.918335,468
815.037109,469
815.155762,474
815.274475,472
815.393188,474
815.511841,489
815.630554,438
815.749146,468
815.867859,474
815.986572,463
816.105164,464
816.223877,478
816.342529,460
816.461182,481
816.579895,467
816.698486,494
816.817139,482
816.935791,477
817.054504,487
817.173096,484
817.291748,469
817.4104,459
817.529053,462
817.647644,472
817.766235,449
817.884949,465
818.00354,473
818.122192,449
818.240845,463
818.359436,471
818.478088,460
818.59668,468
818.715271,465
818.833923,475
818.952515,453
819.071106,471
819.189758,459
819.30835,450
819.426941,465
819.545532,465
819.664124,453
819.782715,447
819.901306,467
820.019897,462
820.138489,462
820.25708,454
820.375671,448
820.494202,453
820.612732,468
820.731384,457
820.849915,468
820.968506,441
821.087097,437
821.205627,460
821.324158,460
821.442749,473
821.561279,466
821.679871,456
821.798401,461
821.916931,456
822.035461,443
822.154053,457
822.272583,445
822.391174,443
822.509583,447
822.628174,469
822.746704,427
822.865234,455
822.983765,444
823.102295,465
823.220825,463
823.339294,455
823.457825,458
823.576355,450
823.694824,456
823.813354,456
823.931885,446
824.050354,454
824.168884,447
824.287354,453
824.405823,465
824.524353,458
824.642822,471
824.761353,473
824.879822,455
824.998291,452
825.116699,460
825.235291,448
825.353699,465
825.472168,439
825.590637,458
825.709106,463
825.827576,437
825.946045,455
826.064453,461
826.182983,455
826.301392,465
826.4198,468
826.53833,461
826.656738,451
826.775208,453
826.893677,458
827.012024,449
827.130493,464
827.248962,455
827.36731,457
827.485779,458
827.604248,430
827.722595,453
827.841064,454
827.959412,447
828.077942,460
828.196289,450
828.314636,425
828.433105,444
828.551514,454
828.669861,450
828.78833,449
828.906677,420
829.025085,447
829.143433,453
829.261841,459
829.38031,441
829.498657,450
829.617004,443
829.735413,462
829.85376,445
829.972107,445
830.090515,429
830.208862,454
830.327209,471
830.445557,435
830.563904,440
830.682312,454
830.800659,440
830.919006,471
831.037354,445
831.155701,461
831.274048,439
831.392395,453
831.51062,442
831.629028,461
831.747314,454
831.865662,443
831.984009,446
832.102356,441
832.220642,430
832.338928,437
832.457275,424
832.575623,439
832.693909,452
832.812134,458
832.930481,445
833.048828,454
833.167114,467
833.2854,431
833.403687,448
833.521973,448
833.640259,441
833.758545,448
833.876831,459
833.995056,452
834.113281,451
834.231628,453
834.349915,441
834.468201,445
834.586426,453
834.704651,450
834.822998,438
834.941162,469
835.059448,446
835.177673,441
835.295959,443
835.414246,465
835.53241,445
835.650635,455
835.768921,440
835.887146,441
836.005371,457
836.123596,451
836.241821,459
836.360046,462
836.478271,445
836.596497,452
836.714722,446
836.832886,453
836.95105,432
837.069336,446
837.1875,461
837.305725,436
837.423889,445
837.542053,432
837.660339,442
837.778503,452
837.896667,437
838.014832,438
838.132996,441
838.25116,453
838.369385,443
838.487488,430
838.605713,425
838.723877,444
838.84198,434
838.960205,447
839.078308,432
839.196472,431
839.314636,450
839.4328,443
839.550964,445
839.669067,434
839.787231,454
839.905396,455
840.023499,470
840.141602,444
840.259766,464
840.377869,436
840.495972,431
840.614136,452
840.732239,434
840.850342,433
840.968445,471
841.086548,441
841.204651,449
841.322754,458
841.440918,443
841.55896,448
841.677002,436
841.795166,461
841.913208,448
842.031311,436
842.149353,436
842.267456,460
842.385498,433
842.503601,453
842.621643,432
842.739746,431
842.857788,444
842.97583,452
843.093933,436
843.211975,454
843.330017,459
843.44812,453
843.566101,440
843.684204,439
843.802246,440
843.920227,459
844.038269,448
844.156311,444
844.274292,457
844.392395,453
844.510376,441
844.628357,445
844.74646,425
844.864441,448
844.982422,448
845.100403,451
845.218384,436
845.336426,450
845.454468,428
845.572449,436
845.69043,455
845.808411,454
845.926453,450
846.044373,432
846.162354,439
846.280396,462
846.398315,450
846.516296,440
846.634216,450
846.752197,434
846.870178,439
846.988098,451
847.106079,449
847.22406,445
847.34198,444
847.4599,446
847.577881,450
847.695801,439
847.813782,432
847.931641,462
848.049561,458
848.167603,441
848.285461,417
848.403381,446
848.521362,445
848.639221,440
848.75708,448
848.875,444
848.99292,461
849.110901,449
849.22876,428
849.34668,453
849.464539,428
849.582458,447
849.700317,431
849.818176,440
849.936096,418
850.053955,458
850.171875,439
850.289673,432
850.407593,435
850.525452,434
850.643311,437
850.761169,429
850.878967,434
850.996887,435
851.114746,443
851.232544,457
851.350403,434
851.468262,437
851.58606,451
851.703979,444
851.821777,457
851.939636,458
852.057434,438
852.175232,442
852.293091,446
852.410889,461
852.528687,441
852.646545,471
852.764343,444
852.88208,444
852.999939,430
853.117676,436
853.235535,439
853.353271,450
853.471069,463
853.588928,439
853.706604,456
853.824402,435
853.9422,462
854.059998,450
854.177734,436
854.295532,455
854.413269,437
854.531006,435
854.648804,434
854.766541,435
854.884277,439
855.002014,421
855.119751,448
855.237549,440
855.355225,438
855.473022,432
855.590698,452
855.708435,469
855.826172,439
855.943848,452
856.061646,456
856.179321,440
856.296997,447
856.414795,446
856.53241,450
856.650085,443
856.767822,430
856.885559,445
857.003174,431
857.120911,454
857.238586,454
857.356201,465
857.473938,457
857.591614,454
857.709351,462
857.826965,426
857.944641,440
858.062317,438
858.179993,437
858.297668,441
858.415283,461
858.532959,458
858.650574,438
858.768188,444
858.885803,449
859.003479,432
859.121094,434
859.23877,443
859.356384,467
859.473999,441
859.591675,437
859.709229,454
859.826843,462
859.944458,436
860.062012,447
860.179626,454
860.297302,434
860.414856,447
860.532471,425
860.650024,458
860.767639,440
860.885193,445
861.002808,451
861.120361,433
861.237976,437
861.35553,453
861.473022,454
861.590698,458
861.708191,435
861.825745,459
861.943298,456
862.060852,450
862.178406,442
862.295959,434
862.413513,459
862.531006,447
862.64856,451
862.766113,454
862.883667,405
863.00116,456
863.118713,438
863.236206,454
863.353699,447
863.471252,451
863.588745,432
863.706177,449
863.82373,444
863.941162,453
864.058716,452
864.176208,438
864.29364,433
864.411194,451
864.528687,430
864.646118,445
864.763611,452
864.881042,448
864.998535,421
865.116028,466
865.233459,432
865.350891,443
865.468384,447
865.585754,462
865.703308,448
865.820679,444
865.938171,439
866.055542,445
866.173035,440
866.290466,447
866.407837,445
866.52533,445
866.6427,464
866.760071,454
866.877563,447
866.994934,450
867.112305,448
867.229736,461
867.347107,434
867.464539,434
867.58197,452
867.699341,458
867.81665,449
867.934082,465
868.051453,448
868.168823,462
868.286194,442
868.403564,443
868.520935,456
868.638306,464
868.755676,435
868.872986,442
868.990295,455
869.107727,444
869.225037,420
869.342346,461
869.459717,436
869.577026,481
869.694336,435
869.811707,450
869.929016,458
870.046326,451
870.163635,441
870.280945,455
870.398254,447
870.515564,451
870.632812,453
870.750183,454
870.867432,441
870.984741,453
871.102051,457
871.219299,445
871.336609,445
871.453918,465
871.571106,440
871.688416,453
871.805664,449
871.922852,457
872.040222,440
872.157471,446
872.274719,431
872.391968,449
872.509155,444
872.626465,459
872.743652,467
872.860962,453
872.978149,449
873.095337,475
873.212646,451
873.329834,454
873.44696,441
873.564209,449
873.681396,447
873.798645,478
873.915894,438
874.03302,454
874.150208,445
874.267456,464
874.384583,439
874.501831,466
874.618958,448
874.736145,465
874.853333,444
874.970459,456
875.087646,457
875.204834,457
875.32196,461
875.439148,469
875.556274,445
875.673401,469
875.790527,439
875.907715,447
876.024841,463
876.141968,447
876.259094,445
876.376282,463
876.493347,445
876.610474,451
876.7276,460
876.844727,458
876.961853,440
877.078918,446
877.195984,470
877.313171,457
877.430237,434
877.547302,468
877.664368,459
877.781433,444
877.898499,437
878.015625,457
878.13269,457
878.249695,446
878.366821,451
878.483887,449
878.600952,453
878.717957,438
878.834961,463
878.952087,455
879.069092,432
879.186157,461
879.303162,453
879.420227,457
879.537231,465
879.654236,447
879.77124,459
879.888306,443
880.005249,440
880.122314,457
880.239319,453
880.356323,451
880.473328,434
880.590271,454
880.707275,464
880.824341,454
880.941284,474
881.058228,441
881.175232,459
881.292236,445
881.40918,440
881.526123,451
881.643066,454
881.760071,450
881.877014,452
881.993958,456
882.11084,442
882.227783,458
882.344727,436
882.46167,453
882.578613,445
882.695618,446
882.812439,454
882.929382,465
883.046326,439
883.163208,449
883.280151,439
883.397034,445
883.513916,439
883.630798,471
883.747742,450
883.864563,444
883.981506,461
884.098389,452
884.21521,446
884.332153,465
884.448975,441
884.565796,456
884.682678,457
884.7995,458
884.916443,447
885.033264,442
885.150085,443
885.266968,471
885.383789,447
885.500671,453
885.617493,469
885.734314,450
885.851196,462
885.967896,464
886.084717,445
886.201599,458
886.318359,459
886.435181,438
886.552002,445
886.668762,473
886.785645,457
886.902344,450
887.019165,466
887.135925,474
887.252747,444
887.369446,468
887.486267,448
887.603027,445
887.719788,453
887.836548,444
887.953247,464
888.070068,443
888.186829,455
888.303528,460
888.420288,449
888.536987,455
888.653687,460
888.770447,450
888.887146,442
889.003967,445
889.120667,443
889.237305,447
889.354065,455
889.470703,463
889.587463,451
889.704163,454
889.820862,442
889.937561,453
890.054199,450
890.170837,455
890.287598,450
890.404236,465
890.520874,466
890.637634,464
890.754211,453
890.87085,455
890.987549,453
891.104187,445
891.220886,453
891.337463,459
891.454102,450
891.57074,466
891.687378,468
891.804077,464
891.920654,452
892.037231,472
892.15387,456
892.270447,465
892.387085,449
892.503723,455
892.6203,454
892.736877,445
892.853516,452
892.970032,448
893.08667,446
893.203186,459
893.319763,463
893.43634,461
893.552917,461
893.669556,454
893.786011,459
893.902588,450
894.019165,441
894.135681,459
894.252197,458
894.368835,474
894.485291,460
894.601868,447
894.718384,460
894.8349,469
894.951355,460
895.067932,453
895.184448,437
895.300964,446
895.417419,451
895.533936,453
895.650452,477
895.766907,477
895.883423,464
895.999878,459
896.116333,455
896.232849,466
896.349304,431
896.465759,447
896.582214,471
896.698669,448
896.815125,461
896.931641,459
897.048035,460
897.164551,454
897.280884,464
897.397339,468
897.513794,458
897.630249,472
897.746582,450
897.863098,466
897.979431,468
898.095886,475
898.212341,458
898.328674,474
898.445129,445
898.561462,455
898.677795,475
898.794312,466
898.910645,439
899.026978,453
899.143433,453
899.259766,447
899.37616,468
899.492493,456
899.608765,459
899.725159,450
899.841553,456
899.957947,473
900.07428,460
900.190552,471
900.306946,474
900.423157,459
900.53949,467
900.655884,467
900.772156,457
900.888489,459
901.004822,468
901.121033,476
901.237366,470
901.353699,458
901.46991,461
901.586304,459
901.702515,466
901.818787,472
901.93512,462
902.051331,460
902.167603,452
902.283875,457
902.400085,464
902.516418,475
902.632629,436
902.74884,477
902.865112,462
902.981384,464
903.097595,455
903.213867,468
903.330017,447
903.446289,467
903.5625,473
903.67865,465
903.794922,453
903.911072,453
904.027344,453
904.143494,484
904.259705,460
904.375916,468
904.492065,456
904.608215,446
904.724426,476
904.840576,461
904.956726,453
905.072876,472
905.189087,466
905.305176,460
905.421387,449
905.537537,491
905.653687,453
905.769775,453
905.885925,459
906.002014,474
906.118164,466
906.234314,481
906.350403,432
906.466492,438
906.582642,448
906.69873,473
906.814758,455
906.930908,457
907.046936,445
907.163086,467
907.279175,460
907.395264,452
907.511353,460
907.62738,486
907.743408,472
907.859497,470
907.975525,459
908.091553,450
908.207703,443
908.32373,446
908.439758,468
908.555786,471
908.671814,426
908.787842,465
908.90387,482
909.019775,475
909.135864,454
909.251892,478
909.367859,461
909.483826,467
909.599854,469
909.715881,464
909.831848,464
909.947815,465
910.063782,477
910.179749,472
910.295776,470
910.411743,472
910.527649,478
910.643616,455
910.759583,439
910.875488,465
910.991455,454
911.107361,471
911.223267,470
911.339294,471
911.4552,452
911.571106,463
911.687073,451
911.802979,482
911.918823,469
912.034729,471
912.150635,460
912.266602,459
912.382446,447
912.498352,470
912.614197,454
912.730103,468
912.846008,457
792.44574,500
792.56488,545
792.68396,581
792.80304,565
792.92218,530
793.041199,493
793.160339,522
793.279419,536
793.398499,514
793.517578,483
793.636658,495
793.755737,511
793.874817,537
793.993896,531
794.112976,524
794.232056,483
794.351074,511
794.470215,514
794.589233,513
794.708313,516
794.827393,481
794.946411,507
795.065552,500
795.18457,495
795.303589,498
795.422668,506
795.541687,522
795.660767,494
795.779846,492
795.898865,481
796.017883,498
796.136963,500
796.255981,513
796.375061,481
796.49408,495
796.613037,504
796.732117,500
796.851135,474
796.970154,484
797.089233,506
797.208191,502
797.327271,492
797.446228,496
797.565186,489
797.684265,485
797.803223,483
797.922241,490
798.04126,471
798.160278,489
798.279297,488
798.398315,490
798.517273,486
798.636292,500
798.75531,475
798.874268,493
798.993286,503
799.112244,500
799.231323,491
799.350281,479
799.469238,476
799.588257,493
799.707153,485
799.826111,466
799.945129,492
800.064087,477
800.183044,467
800.302063,484
800.421021,475
800.539978,458
800.658936,493
800.777893,489
800.896912,476
801.015747,497
801.134705,491
801.253723,481
801.37262,477
801.491638,506
801.610535,491
801.729492,465
801.84845,484
801.967407,468
802.086243,460
802.205261,480
802.324158,481
802.443115,482
802.562073,496
802.680969,484
802.799927,452
802.918762,498
803.037659,485
803.156677,499
803.275574,485
803.39447,478
803.513428,464
803.632263,475
803.751221,471
803.870117,467
803.989014,489
804.107971,488
804.226746,470
804.345642,484
804.4646,500
804.583496,483
804.702393,470
804.821228,457
804.940125,484
805.059021,492
805.177917,485
805.296814,491
805.415649,487
805.534546,489
805.653442,470
805.772278,470
805.891113,492
806.01001,490
806.128906,474
806.247742,488
806.366577,472
806.485413,493
806.604309,498
806.723145,489
806.84198,477
806.960876,497
807.079712,469
807.198486,471
807.317383,474
807.436218,489
807.554993,479
807.673889,470
807.792725,470
807.91156,474
808.030396,474
808.14917,492
808.268005,472
808.386841,502
808.505676,469
808.624451,478
808.743286,476
808.862122,514
808.980896,482
809.099731,484
809.218506,482
809.337341,489
809.456116,495
809.57489,477
809.693726,476
809.8125,471
809.931274,480
810.050049,479
810.168884,483
810.287659,467
810.406372,488
810.525269,481
810.643982,484
810.762756,478
810.881531,481
811.000305,477
811.11908,478
811.237854,489
811.356567,480
811.475403,465
811.594116,476
811.71283,483
811.831604,478
811.950378,509
812.069153,458
812.187927,481
812.30658,467
812.425415,462
812.544128,475
812.662781,485
812.781616,476
812.900269,470
813.019043,478
813.137756,481
813.256531,488
813.375244,489
813.493896,475
813.612671,487
813.731384,460
813.850037,466
813.96875,486
814.087524,481
814.206238,479
814.324951,475
814.443604,489
814.562256,477
814.68103,472
814.799683,476
814.918335,498
815.037109,464
815.155762,474
815.274475,478
815.393188,502
815.511841,455
815.630554,482
815.749146,477
815.867859,469
815.986572,480
816.105164,467
816.223877,482
816.342529,454
816.461182,471
816.579895,491
816.698486,459
816.817139,454
816.935791,468
817.054504,487
817.173096,463
817.291748,474
817.4104,456
817.529053,485
817.647644,484
817.766235,468
817.884949,462
818.00354,467
818.122192,467
818.240845,478
818.359436,463
818.478088,452
818.59668,465
818.715271,470
818.833923,466
818.952515,484
819.071106,481
819.189758,445
819.30835,448
819.426941,451
819.545532,450
819.664124,452
819.782715,447
819.901306,471
820.019897,444
820.138489,468
820.25708,457
820.375671,475
820.494202,470
820.612732,466
820.731384,470
820.849915,465
820.968506,477
821.087097,467
821.205627,459
821.324158,455
821.442749,455
821.561279,449
821.679871,454
821.798401,461
821.916931,444
822.035461,453
822.154053,462
822.272583,461
822.391174,454
822.509583,462
822.628174,445
822.746704,470
822.865234,458
822.983765,457
823.102295,464
823.220825,455
823.339294,465
823.457825,449
823.576355,448
823.694824,455
823.813354,441
823.931885,454
824.050354,466
824.168884,455
824.287354,459
824.405823,458
824.524353,446
824.642822,476
824.761353,456
824.879822,455
824.998291,445
825.116699,451
825.235291,456
825.353699,459
825.472168,457
825.590637,459
825.709106,454
825.827576,457
825.946045,449
826.064453,443
826.182983,468
826.301392,458
826.4198,462
826.53833,440
826.656738,453
826.775208,448
826.893677,481
827.012024,465
827.130493,478
827.248962,444
827.36731,458
827.485779,441
827.604248,463
827.722595,444
827.841064,447
827.959412,458
828.077942,452
828.196289,454
828.314636,445
828.433105,461
828.551514,472
828.669861,465
828.78833,461
828.906677,445
829.025085,458
829.143433,438
829.261841,473
829.38031,440
829.498657,464
829.617004,462
829.735413,462
829.85376,472
829.972107,451
830.090515,444
830.208862,447
830.327209,441
830.445557,446
830.563904,455
830.682312,461
830.800659,453
830.919006,458
831.037354,458
831.155701,470
831.274048,454
831.392395,443
831.51062,446
831.629028,450
831.747314,469
831.865662,465
831.984009,464
832.102356,440
832.220642,444
832.338928,453
832.457275,450
832.575623,441
832.693909,452
832.812134,442
832.930481,458
833.048828,466
833.167114,430
833.2854,438
833.403687,455
833.521973,443
833.640259,461
833.758545,437
833.876831,471
833.995056,457
834.113281,438
834.231628,452
834.349915,462
834.468201,443
834.586426,461
834.704651,440
834.822998,447
834.941162,457
835.059448,439
835.177673,446
835.295959,454
835.414246,447
835.53241,447
835.650635,449
835.768921,420
835.887146,468
836.005371,446
836.123596,457
836.241821,434
836.360046,447
836.478271,455
836.596497,450
836.714722,437
836.832886,444
836.95105,452
837.069336,462
837.1875,432
837.305725,465
837.423889,447
837.542053,462
837.660339,424
837.778503,458
837.896667,456
838.014832,455
838.132996,447
838.25116,440
838.369385,444
838.487488,450
838.605713,448
838.723877,465
838.84198,441
838.960205,432
839.078308,442
839.196472,456
839.314636,437
839.4328,442
839.550964,434
839.669067,461
839.787231,448
839.905396,453
840.023499,440
840.141602,448
840.259766,430
840.377869,460
840.495972,453
840.614136,460
840.732239,447
840.850342,444
840.968445,447
841.086548,457
841.204651,472
841.322754,450
841.440918,436
841.55896,444
841.677002,468
841.795166,465
841.913208,438
842.031311,453
842.149353,463
842.267456,446
842.385498,431
842.503601,465
842.621643,450
842.739746,462
842.857788,461
842.97583,455
843.093933,451
843.211975,461
843.330017,451
843.44812,445
843.566101,459
843.684204,445
843.802246,421
843.920227,441
844.038269,442
844.156311,460
844.274292,449
844.392395,438
844.510376,446
844.628357,446
844.74646,436
844.864441,432
844.982422,471
845.100403,438
845.218384,451
845.336426,450
845.454468,453
845.572449,468
845.69043,454
845.808411,468
845.926453,450
846.044373,464
846.162354,433
846.280396,452
846.398315,442
846.516296,462
846.634216,426
846.752197,439
846.870178,442
846.988098,426
847.106079,449
847.22406,447
847.34198,436
847.4599,449
847.577881,434
847.695801,436
847.813782,458
847.931641,441
848.049561,445
848.167603,433
848.285461,460
848.403381,433
848.521362,435
848.639221,445
848.75708,447
848.875,441
848.99292,441
849.110901,448
849.22876,443
849.34668,455
849.464539,445
849.582458,461
849.700317,429
849.818176,458
849.936096,445
850.053955,449
850.171875,444
850.289673,444
850.407593,433
850.525452,465
850.643311,437
850.761169,462
850.878967,433
850.996887,466
851.114746,446
851.232544,447
851.350403,450
851.468262,456
851.58606,442
851.703979,432
851.821777,455
851.939636,452
852.057434,430
852.175232,454
852.293091,439
852.410889,433
852.528687,421
852.646545,439
852.764343,454
852.88208,439
852.999939,452
853.117676,457
853.235535,452
853.353271,441
853.471069,446
853.588928,438
853.706604,454
853.824402,454
853.9422,457
854.059998,440
854.177734,448
854.295532,448
854.413269,459
854.531006,450
854.648804,457
854.766541,455
854.884277,448
855.002014,458
855.119751,446
855.237549,454
855.355225,436
855.473022,443
855.590698,425
855.708435,454
855.826172,441
855.943848,457
856.061646,457
856.179321,467
856.296997,452
856.414795,428
856.53241,432
856.650085,468
856.767822,476
856.885559,463
857.003174,447
857.120911,455
857.238586,447
857.356201,446
857.473938,432
857.591614,433
857.709351,435
857.826965,462
857.944641,459
858.062317,447
858.179993,425
858.297668,453
858.415283,451
858.532959,461
858.650574,443
858.768188,455
858.885803,430
859.003479,460
859.121094,445
859.23877,462
859.356384,441
859.473999,454
859.591675,441
859.709229,452
859.826843,408
859.944458,450
860.062012,456
860.179626,444
860.297302,441
860.414856,442
860.532471,456
860.650024,443
860.767639,441
860.885193,434
861.002808,436
861.120361,434
861.237976,457
861.35553,461
861.473022,444
861.590698,450
861.708191,446
861.825745,459
861.943298,429
862.060852,447
862.178406,463
862.295959,471
862.413513,435
862.531006,433
862.64856,447
862.766113,455
862.883667,447
863.00116,457
863.118713,423
863.236206,438
863.353699,467
863.471252,462
863.588745,445
863.706177,462
863.82373,428
863.941162,462
864.058716,439
864.176208,446
864.29364,441
864.411194,451
864.528687,470
864.646118,444
864.763611,450
864.881042,451
864.998535,434
865.116028,441
865.233459,442
865.350891,449
865.468384,440
865.585754,466
865.703308,441
865.820679,441
865.938171,447
866.055542,446
866.173035,442
866.290466,448
866.407837,465
866.52533,469
866.6427,437
866.760071,470
866.877563,447
866.994934,442
867.112305,461
867.229736,452
867.347107,438
867.464539,456
867.58197,456
867.699341,460
867.81665,455
867.934082,462
868.051453,444
868.168823,449
868.286194,444
868.403564,448
868.520935,439
868.638306,438
868.755676,468
868.872986,447
868.990295,461
869.107727,450
869.225037,462
869.342346,455
869.459717,445
869.577026,437
869.694336,462
869.811707,457
869.929016,431
870.046326,456
870.163635,463
870.280945,428
870.398254,444
870.515564,453
870.632812,455
870.750183,461
870.867432,442
870.984741,440
871.102051,446
871.219299,466
871.336609,437
871.453918,450
871.571106,451
871.688416,463
871.805664,458
871.922852,459
872.040222,452
872.157471,449
872.274719,440
872.391968,445
872.509155,426
872.626465,447
872.743652,452
872.860962,464
872.978149,435
873.095337,473
873.212646,452
873.329834,452
873.44696,461
873.564209,455
873.681396,437
873.798645,449
873.915894,462
874.03302,443
874.150208,453
874.267456,447
874.384583,433
874.501831,459
874.618958,450
874.736145,449
874.853333,469
874.970459,464
875.087646,459
875.204834,457
875.32196,444
875.439148,452
875.556274,456
875.673401,446
875.790527,443
875.907715,459
876.024841,436
876.141968,436
876.259094,436
876.376282,440
876.493347,453
876.610474,445
876.7276,449
876.844727,455
876.961853,468
877.078918,453
877.195984,454
877.313171,464
877.430237,449
877.547302,450
877.664368,455
877.781433,457
877.898499,431
878.015625,461
878.13269,450
878.249695,461
878.366821,443
878.483887,459
878.600952,433
878.717957,462
878.834961,452
878.952087,472
879.069092,436
879.186157,446
879.303162,445
879.420227,448
879.537231,451
879.654236,447
879.77124,466
879.888306,463
880.005249,453
880.122314,450
880.239319,435
880.356323,426
880.473328,441
880.590271,469
880.707275,444
880.824341,438
880.941284,464
881.058228,451
881.175232,433
881.292236,460
881.40918,435
881.526123,456
881.643066,441
881.760071,465
881.877014,443
881.993958,452
882.11084,431
882.227783,445
882.344727,446
882.46167,455
882.578613,456
882.695618,464
882.812439,442
882.929382,491
883.046326,448
883.163208,444
883.280151,454
883.397034,453
883.513916,469
883.630798,463
883.747742,458
883.864563,456
883.981506,462
884.098389,449
884.21521,456
884.332153,465
884.448975,432
884.565796,452
884.682678,439
884.7995,468
884.916443,465
885.033264,461
885.150085,451
885.266968,454
885.383789,471
885.500671,469
885.617493,462
885.734314,472
885.851196,449
885.967896,456
886.084717,424
886.201599,447
886.318359,465
886.435181,472
886.552002,447
886.668762,444
886.785645,438
886.902344,440
887.019165,457
887.135925,442
887.252747,456
887.369446,453
887.486267,459
887.603027,463
887.719788,425
887.836548,456
887.953247,452
888.070068,443
888.186829,450
888.303528,481
888.420288,454
888.536987,463
888.653687,457
888.770447,465
888.887146,468
889.003967,461
889.120667,459
889.237305,447
889.354065,470
889.470703,454
889.587463,452
889.704163,453
889.820862,441
889.937561,454
890.054199,465
890.170837,453
890.287598,464
890.404236,450
890.520874,461
890.637634,464
890.754211,453
890.87085,450
890.987549,460
891.104187,475
891.220886,457
891.337463,457
891.454102,437
891.57074,456
891.687378,460
891.804077,461
891.920654,451
892.037231,468
892.15387,469
892.270447,455
892.387085,465
892.503723,451
892.6203,439
892.736877,461
892.853516,464
892.970032,465
893.08667,448
893.203186,455
893.319763,455
893.43634,463
893.552917,463
893.669556,483
893.786011,454
893.902588,460
894.019165,455
894.135681,468
894.252197,448
894.368835,481
894.485291,463
894.601868,455
894.718384,467
894.8349,481
894.951355,461
895.067932,469
895.184448,453
895.300964,469
895.417419,445
895.533936,456
895.650452,449
895.766907,464
895.883423,456
895.999878,469
896.116333,459
896.232849,469
896.349304,446
896.465759,475
896.582214,463
896.698669,469
896.815125,431
896.931641,476
897.048035,442
897.164551,461
897.280884,473
897.397339,458
897.513794,467
897.630249,456
897.746582,458
897.863098,474
897.979431,465
898.095886,454
898.212341,470
898.328674,483
898.445129,450
898.561462,464
898.677795,462
898.794312,462
898.910645,453
899.026978,476
899.143433,465
899.259766,462
899.37616,461
899.492493,457
899.608765,496
899.725159,472
899.841553,467
899.957947,465
900.07428,460
900.190552,474
900.306946,441
900.423157,461
900.53949,464
900.655884,469
900.772156,455
900.888489,452
901.004822,460
901.121033,466
901.237366,455
901.353699,468
901.46991,453
901.586304,483
901.702515,474
901.818787,456
901.93512,468
902.051331,474
902.167603,463
902.283875,477
902.400085,470
902.516418,446
902.632629,465
902.74884,456
902.865112,474
902.981384,474
903.097595,460
903.213867,467
903.330017,464
903.446289,459
903.5625,474
903.67865,463
903.794922,468
903.911072,495
904.027344,455
904.143494,467
904.259705,463
904.375916,483
904.492065,456
904.608215,464
904.724426,477
904.840576,470
904.956726,469
905.072876,482
905.189087,455
905.305176,468
905.421387,464
905.537537,469
905.653687,438
905.769775,474
905.885925,465
906.002014,469
906.118164,469
906.234314,478
906.350403,472
906.466492,460
906.582642,460
906.69873,469
906.814758,468
906.930908,464
907.046936,463
907.163086,474
907.279175,457
907.395264,457
907.511353,445
907.62738,465
907.743408,474
907.859497,484
907.975525,484
908.091553,467
908.207703,476
908.32373,454
908.439758,470
908.555786,477
908.671814,474
908.787842,472
908.90387,471
909.019775,496
909.135864,468
909.251892,484
909.367859,458
909.483826,459
909.599854,465
909.715881,454
909.831848,455
909.947815,469
910.063782,451
910.179749,467
910.295776,467
910.411743,456
910.527649,460
910.643616,483
910.759583,450
910.875488,453
910.991455,483
911.107361,460
911.223267,473
911.339294,482
911.4552,458
911.571106,469
911.687073,488
911.802979,469
911.918823,464
912.034729,477
912.150635,462
912.266602,461
912.382446,479
912.498352,472
912.614197,459
912.730103,462
912.846008,460
