792.44574,454
792.56488,502
792.68396,569
792.80304,511
792.92218,501
793.041199,484
793.160339,480
793.279419,488
793.398499,493
793.517578,467
793.636658,463
793.755737,493
793.874817,498
793.993896,497
794.112976,497
794.232056,484
794.351074,475
794.470215,487
794.589233,495
794.708313,476
794.827393,496
794.946411,451
795.065552,484
795.18457,493
795.303589,479
795.422668,470
795.541687,486
795.660767,478
795.779846,505
795.898865,471
796.017883,470
796.136963,481
796.255981,488
796.375061,479
796.49408,483
796.613037,479
796.732117,470
796.851135,486
796.970154,477
797.089233,479
797.208191,477
797.327271,486
797.446228,469
797.565186,482
797.684265,491
797.803223,468
797.922241,472
798.04126,488
798.160278,469
798.279297,473
798.398315,481
798.517273,469
798.636292,487
798.75531,465
798.874268,480
798.993286,467
799.112244,461
799.231323,474
799.350281,487
799.469238,459
799.588257,464
799.707153,468
799.826111,478
799.945129,453
800.064087,463
800.183044,473
800.302063,474
800.421021,464
800.539978,483
800.658936,475
800.777893,453
800.896912,480
801.015747,486
801.134705,474
801.253723,461
801.37262,470
801.491638,482
801.610535,480
801.729492,469
801.84845,489
801.967407,468
802.086243,453
802.205261,469
802.324158,465
802.443115,484
802.562073,460
802.680969,494
802.799927,474
802.918762,470
803.037659,479
803.156677,466
803.275574,455
803.39447,490
803.513428,450
803.632263,482
803.751221,467
803.870117,497
803.989014,459
804.107971,476
804.226746,488
804.345642,445
804.4646,480
804.583496,468
804.702393,455
804.821228,465
804.940125,469
805.059021,474
805.177917,451
805.296814,480
805.415649,459
805.534546,486
805.653442,479
805.772278,462
805.891113,473
806.01001,464
806.128906,475
806.247742,484
806.366577,456
806.485413,467
806.604309,471
806.723145,481
806.84198,457
806.960876,461
807.079712,474
807.198486,464
807.317383,468
807.436218,467
807.554993,439
807.673889,471
807.792725,478
807.91156,480
808.030396,467
808.14917,466
808.268005,494
808.386841,464
808.505676,462
808.624451,467
808.743286,466
808.862122,463
808.980896,462
809.099731,458
809.218506,465
809.337341,478
809.456116,469
809.57489,458
809.693726,481
809.8125,461
809.931274,485
810.050049,467
810.168884,468
810.287659,467
810.406372,465
810.525269,461
810.643982,457
810.762756,482
810.881531,463
811.000305,457
811.11908,466
811.237854,457
811.356567,485
811.475403,458
811.594116,469
811.71283,473
811.831604,468
811.950378,492
812.069153,466
812.187927,458
812.30658,485
812.425415,466
812.544128,476
812.662781,461
812.781616,456
812.900269,469
813.019043,448
813.137756,461
813.256531,453
813.375244,449
813.493896,456
813.612671,467
813.731384,442
813.850037,478
813.96875,463
814.087524,470
814.206238,476
814.324951,449
814.443604,457
814.562256,466
814.68103,457
814.799683,484
814.918335,473
815.037109,458
815.155762,461
815.274475,467
815.393188,484
815.511841,483
815.630554,469
815.749146,474
815.867859,446
815.986572,466
816.105164,469
816.223877,456
816.342529,455
816.461182,483
816.579895,476
816.698486,465
816.817139,448
816.935791,480
817.054504,472
817.173096,460
817.291748,457
817.4104,472
817.529053,461
817.647644,461
817.766235,467
817.884949,450
818.00354,462
818.122192,459
818.240845,464
818.359436,461
818.478088,458
818.59668,462
818.715271,446
818.833923,458
818.952515,453
819.071106,454
819.189758,458
819.30835,455
819.426941,443
819.545532,461
819.664124,463
819.782715,450
819.901306,455
820.019897,445
820.138489,452
820.25708,454
820.375671,457
820.494202,448
820.612732,477
820.731384,447
820.849915,440
820.968506,462
821.087097,461
821.205627,449
821.324158,467
821.442749,459
821.561279,456
821.679871,462
821.798401,446
821.916931,456
822.035461,441
822.154053,461
822.272583,409
822.391174,463
822.509583,448
822.628174,429
822.746704,432
822.865234,445
822.983765,452
823.102295,445
823.220825,432
823.339294,455
823.457825,443
823.576355,459
823.694824,438
823.813354,434
823.931885,455
824.050354,449
824.168884,429
824.287354,456
824.405823,441
824.524353,448
824.642822,446
824.761353,462
824.879822,435
824.998291,447
825.116699,463
825.235291,437
825.353699,455
825.472168,427
825.590637,457
825.709106,441
825.827576,457
825.946045,463
826.064453,421
826.182983,455
826.301392,437
826.4198,459
826.53833,441
826.656738,452
826.775208,443
826.893677,442
827.012024,447
827.130493,465
827.248962,458
827.36731,454
827.485779,456
827.604248,457
827.722595,437
827.841064,435
827.959412,451
828.077942,464
828.196289,438
828.314636,447
828.433105,446
828.551514,435
828.669861,463
828.78833,440
828.906677,441
829.025085,458
829.143433,453
829.261841,436
829.38031,444
829.498657,423
829.617004,453
829.735413,455
829.85376,449
829.972107,468
830.090515,445
830.208862,455
830.327209,459
830.445557,451
830.563904,444
830.682312,452
830.800659,446
830.919006,446
831.037354,437
831.155701,445
831.274048,448
831.392395,442
831.51062,430
831.629028,459
831.747314,432
831.865662,464
831.984009,422
832.102356,429
832.220642,435
832.338928,445
832.457275,457
832.575623,438
832.693909,462
832.812134,439
832.930481,431
833.048828,451
833.167114,453
833.2854,443
833.403687,436
833.521973,459
833.640259,441
833.758545,465
833.876831,440
833.995056,445
834.113281,437
834.231628,431
834.349915,436
834.468201,426
834.586426,450
834.704651,454
834.822998,440
834.941162,459
835.059448,447
835.177673,444
835.295959,448
835.414246,456
835.53241,433
835.650635,441
835.768921,443
835.887146,439
836.005371,436
836.123596,449
836.241821,437
836.360046,423
836.478271,446
836.596497,455
836.714722,431
836.832886,432
836.95105,437
837.069336,438
837.1875,435
837.305725,439
837.423889,455
837.542053,442
837.660339,460
837.778503,441
837.896667,440
838.014832,432
838.132996,434
838.25116,462
838.369385,419
838.487488,458
838.605713,444
838.723877,450
838.84198,450
838.960205,442
839.078308,449
839.196472,455
839.314636,434
839.4328,453
839.550964,439
839.669067,440
839.787231,439
839.905396,430
840.023499,438
840.141602,442
840.259766,436
840.377869,435
840.495972,415
840.614136,436
840.732239,426
840.850342,435
840.968445,421
841.086548,447
841.204651,433
841.322754,453
841.440918,421
841.55896,473
841.677002,451
841.795166,427
841.913208,439
842.031311,423
842.149353,440
842.267456,446
842.385498,447
842.503601,428
842.621643,428
842.739746,463
842.857788,423
842.97583,448
843.093933,444
843.211975,445
843.330017,448
843.44812,430
843.566101,446
843.684204,438
843.802246,441
843.920227,452
844.038269,437
844.156311,434
844.274292,430
844.392395,435
844.510376,431
844.628357,454
844.74646,431
844.864441,450
844.982422,437
845.100403,441
845.218384,432
845.336426,439
845.454468,429
845.572449,432
845.69043,438
845.808411,445
845.926453,428
846.044373,427
846.162354,444
846.280396,437
846.398315,420
846.516296,440
846.634216,434
846.752197,420
846.870178,428
846.988098,435
847.106079,441
847.22406,430
847.34198,426
847.4599,453
847.577881,429
847.695801,432
847.813782,422
847.931641,432
848.049561,437
848.167603,443
848.285461,442
848.403381,445
848.521362,445
848.639221,426
848.75708,439
848.875,458
848.99292,444
849.110901,455
849.22876,444
849.34668,442
849.464539,440
849.582458,436
849.700317,431
849.818176,462
849.936096,440
850.053955,423
850.171875,433
850.289673,429
850.407593,436
850.525452,445
850.643311,435
850.761169,444
850.878967,433
850.996887,458
851.114746,434
851.232544,446
851.350403,438
851.468262,449
851.58606,431
851.703979,443
851.821777,443
851.939636,417
852.057434,435
852.175232,441
852.293091,449
852.410889,428
852.528687,428
852.646545,442
852.764343,438
852.88208,435
852.999939,439
853.117676,438
853.235535,431
853.353271,432
853.471069,428
853.588928,449
853.706604,450
853.824402,451
853.9422,433
854.059998,435
854.177734,431
854.295532,440
854.413269,420
854.531006,435
854.648804,434
854.766541,443
854.884277,421
855.002014,426
855.119751,431
855.237549,422
855.355225,431
855.473022,442
855.590698,429
855.708435,451
855.826172,456
855.943848,445
856.061646,448
856.179321,436
856.296997,450
856.414795,446
856.53241,432
856.650085,443
856.767822,437
856.885559,453
857.003174,460
857.120911,451
857.238586,463
857.356201,443
857.473938,434
857.591614,423
857.709351,423
857.826965,460
857.944641,445
858.062317,440
858.179993,448
858.297668,446
858.415283,426
858.532959,448
858.650574,435
858.768188,459
858.885803,427
859.003479,444
859.121094,455
859.23877,433
859.356384,435
859.473999,461
859.591675,451
859.709229,464
859.826843,435
859.944458,443
860.062012,426
860.179626,436
860.297302,429
860.414856,446
860.532471,422
860.650024,452
860.767639,440
860.885193,433
861.002808,446
861.120361,430
861.237976,458
861.35553,451
861.473022,422
861.590698,438
861.708191,437
861.825745,446
861.943298,422
862.060852,447
862.178406,436
862.295959,450
862.413513,431
862.531006,442
862.64856,448
862.766113,424
862.883667,429
863.00116,444
863.118713,431
863.236206,441
863.353699,437
863.471252,452
863.588745,424
863.706177,449
863.82373,435
863.941162,435
864.058716,431
864.176208,442
864.29364,429
864.411194,446
864.528687,444
864.646118,452
864.763611,449
864.881042,436
864.998535,447
865.116028,457
865.233459,439
865.350891,449
865.468384,417
865.585754,470
865.703308,419
865.820679,436
865.938171,441
866.055542,442
866.173035,443
866.290466,448
866.407837,427
866.52533,444
866.6427,425
866.760071,443
866.877563,429
866.994934,449
867.112305,454
867.229736,442
867.347107,464
867.464539,454
867.58197,424
867.699341,443
867.81665,442
867.934082,437
868.051453,458
868.168823,429
868.286194,449
868.403564,448
868.520935,449
868.638306,444
868.755676,435
868.872986,421
868.990295,452
869.107727,435
869.225037,439
869.342346,447
869.459717,445
869.577026,448
869.694336,452
869.811707,454
869.929016,442
870.046326,439
870.163635,433
870.280945,454
870.398254,450
870.515564,444
870.632812,445
870.750183,432
870.867432,444
870.984741,436
871.102051,447
871.219299,434
871.336609,432
871.453918,447
871.571106,425
871.688416,431
871.805664,432
871.922852,447
872.040222,435
872.157471,441
872.274719,443
872.391968,452
872.509155,439
872.626465,453
872.743652,451
872.860962,456
872.978149,459
873.095337,435
873.212646,433
873.329834,432
873.44696,432
873.564209,452
873.681396,432
873.798645,444
873.915894,438
874.03302,437
874.150208,441
874.267456,439
874.384583,443
874.501831,456
874.618958,426
874.736145,442
874.853333,446
874.970459,455
875.087646,431
875.204834,456
875.32196,450
875.439148,456
875.556274,446
875.673401,450
875.790527,441
875.907715,448
876.024841,422
876.141968,458
876.259094,451
876.376282,460
876.493347,439
876.610474,461
876.7276,455
876.844727,443
876.961853,436
877.078918,459
877.195984,436
877.313171,440
877.430237,435
877.547302,451
877.664368,422
877.781433,435
877.898499,435
878.015625,451
878.13269,453
878.249695,439
878.366821,448
878.483887,441
878.600952,437
878.717957,443
878.834961,431
878.952087,439
879.069092,431
879.186157,444
879.303162,442
879.420227,454
879.537231,459
879.654236,452
879.77124,441
879.888306,439
880.005249,429
880.122314,441
880.239319,446
880.356323,445
880.473328,429
880.590271,454
880.707275,437
880.824341,468
880.941284,444
881.058228,438
881.175232,453
881.292236,450
881.40918,441
881.526123,428
881.643066,449
881.760071,455
881.877014,435
881.993958,461
882.11084,445
882.227783,443
882.344727,455
882.46167,444
882.578613,437
882.695618,449
882.812439,432
882.929382,452
883.046326,425
883.163208,452
883.280151,441
883.397034,430
883.513916,437
883.630798,446
883.747742,458
883.864563,445
883.981506,454
884.098389,459
884.21521,451
884.332153,453
884.448975,466
884.565796,442
884.682678,442
884.7995,436
884.916443,440
885.033264,437
885.150085,422
885.266968,448
885.383789,441
885.500671,457
885.617493,442
885.734314,452
885.851196,452
885.967896,438
886.084717,460
886.201599,468
886.318359,434
886.435181,452
886.552002,454
886.668762,446
886.785645,439
886.902344,449
887.019165,460
887.135925,455
887.252747,441
887.369446,444
887.486267,440
887.603027,474
887.719788,442
887.836548,439
887.953247,432
888.070068,453
888.186829,449
888.303528,449
888.420288,447
888.536987,451
888.653687,434
888.770447,458
888.887146,450
889.003967,457
889.120667,451
889.237305,454
889.354065,452
889.470703,486
889.587463,434
889.704163,440
889.820862,435
889.937561,455
890.054199,448
890.170837,475
890.287598,455
890.404236,445
890.520874,453
890.637634,454
890.754211,453
890.87085,455
890.987549,442
891.104187,461
891.220886,449
891.337463,461
891.454102,476
891.57074,450
891.687378,439
891.804077,455
891.920654,433
892.037231,448
892.15387,437
892.270447,449
892.387085,456
892.503723,451
892.6203,450
892.736877,449
892.853516,440
892.970032,452
893.08667,461
893.203186,440
893.319763,473
893.43634,451
893.552917,438
893.669556,464
893.786011,438
893.902588,449
894.019165,440
894.135681,455
894.252197,450
894.368835,454
894.485291,465
894.601868,462
894.718384,421
894.8349,444
894.951355,437
895.067932,442
895.184448,434
895.300964,452
895.417419,435
895.533936,475
895.650452,447
895.766907,455
895.883423,438
895.999878,453
896.116333,446
896.232849,449
896.349304,433
896.465759,438
896.582214,437
896.698669,440
896.815125,440
896.931641,468
897.048035,462
897.164551,473
897.280884,468
897.397339,474
897.513794,470
897.630249,460
897.746582,456
897.863098,473
897.979431,459
898.095886,466
898.212341,461
898.328674,458
898.445129,456
898.561462,466
898.677795,438
898.794312,449
898.910645,443
899.026978,463
899.143433,456
899.259766,464
899.37616,448
899.492493,470
899.608765,455
899.725159,441
899.841553,456
899.957947,458
900.07428,452
900.190552,465
900.306946,443
900.423157,448
900.53949,434
900.655884,472
900.772156,469
900.888489,451
901.004822,466
901.121033,463
901.237366,461
901.353699,478
901.46991,466
901.586304,463
901.702515,467
901.818787,430
901.93512,456
902.051331,460
902.167603,473
902.283875,449
902.400085,453
902.516418,462
902.632629,436
902.74884,464
902.865112,442
902.981384,463
903.097595,460
903.213867,467
903.330017,469
903.446289,471
903.5625,468
903.67865,467
903.794922,461
903.911072,467
904.027344,470
904.143494,464
904.259705,464
904.375916,448
904.492065,439
904.608215,466
904.724426,451
904.840576,470
904.956726,449
905.072876,460
905.189087,434
905.305176,451
905.421387,474
905.537537,456
905.653687,459
905.769775,479
905.885925,440
906.002014,477
906.118164,478
906.234314,469
906.350403,469
906.466492,463
906.582642,461
906.69873,456
906.814758,459
906.930908,463
907.046936,454
907.163086,472
907.279175,459
907.395264,478
907.511353,456
907.62738,479
907.743408,460
907.859497,459
907.975525,447
908.091553,474
908.207703,440
908.32373,451
908.439758,444
908.555786,463
908.671814,436
908.787842,465
908.90387,454
909.019775,474
909.135864,471
909.251892,475
909.367859,463
909.483826,464
909.599854,477
909.715881,462
909.831848,476
909.947815,459
910.063782,478
910.179749,469
910.295776,462
910.411743,462
910.527649,453
910.643616,477
910.759583,486
910.875488,470
910.991455,450
911.107361,475
911.223267,464
911.339294,454
911.4552,464
911.571106,442
911.687073,468
911.802979,471
911.918823,456
912.034729,472
912.150635,439
912.266602,457
912.382446,463
912.498352,445
912.614197,447
912.730103,463
912.846008,450
792.44574,488
792.56488,511
792.68396,575
792.80304,526
792.92218,487
793.041199,472
793.160339,477
793.279419,494
793.398499,503
793.517578,461
793.636658,486
793.755737,465
793.874817,498
793.993896,491
794.112976,485
794.232056,489
794.351074,478
794.470215,483
794.589233,492
794.708313,473
794.827393,496
794.946411,493
795.065552,461
795.18457,494
795.303589,478
795.422668,478
795.541687,476
795.660767,472
795.779846,514
795.898865,468
796.017883,485
796.136963,486
796.255981,483
796.375061,488
796.49408,484
796.613037,487
796.732117,488
796.851135,473
796.970154,485
797.089233,480
797.208191,472
797.327271,483
797.446228,493
797.565186,487
797.684265,497
797.803223,479
797.922241,487
798.04126,483
798.160278,470
798.279297,505
798.398315,479
798.517273,481
798.636292,487
798.75531,475
798.874268,485
798.993286,471
799.112244,468
799.231323,463
799.350281,480
799.469238,473
799.588257,484
799.707153,479
799.826111,470
799.945129,461
800.064087,474
800.183044,478
800.302063,471
800.421021,490
800.539978,477
800.658936,474
800.777893,462
800.896912,470
801.015747,471
801.134705,503
801.253723,471
801.37262,455
801.491638,489
801.610535,475
801.729492,480
801.84845,453
801.967407,472
802.086243,460
802.205261,484
802.324158,469
802.443115,475
802.562073,478
802.680969,482
802.799927,474
802.918762,483
803.037659,449
803.156677,480
803.275574,481
803.39447,479
803.513428,472
803.632263,462
803.751221,489
803.870117,468
803.989014,481
804.107971,466
804.226746,467
804.345642,492
804.4646,476
804.583496,472
804.702393,485
804.821228,475
804.940125,457
805.059021,471
805.177917,467
805.296814,489
805.415649,460
805.534546,472
805.653442,476
805.772278,461
805.891113,483
806.01001,468
806.128906,465
806.247742,491
806.366577,456
806.485413,492
806.604309,484
806.723145,494
806.84198,460
806.960876,479
807.079712,474
807.198486,469
807.317383,479
807.436218,467
807.554993,477
807.673889,476
807.792725,465
807.91156,484
808.030396,492
808.14917,470
808.268005,479
808.386841,460
808.505676,480
808.624451,478
808.743286,474
808.862122,473
808.980896,459
809.099731,471
809.218506,462
809.337341,457
809.456116,471
809.57489,477
809.693726,469
809.8125,479
809.931274,468
810.050049,487
810.168884,464
810.287659,479
810.406372,467
810.525269,477
810.643982,458
810.762756,473
810.881531,471
811.000305,484
811.11908,474
811.237854,455
811.356567,461
811.475403,463
811.594116,463
811.71283,483
811.831604,461
811.950378,476
812.069153,453
812.187927,451
812.30658,469
812.425415,466
812.544128,465
812.662781,458
812.781616,455
812.900269,470
813.019043,484
813.137756,473
813.256531,460
813.375244,462
813.493896,452
813.612671,464
813.731384,475
813.850037,467
813.96875,467
814.087524,462
814.206238,447
814.324951,469
814.443604,449
814.562256,475
814.68103,453
814.799683,473
814.918335,467
815.037109,484
815.155762,480
815.274475,468
815.393188,461
815.511841,463
815.630554,491
815.749146,471
815.867859,465
815.986572,493
816.105164,462
816.223877,457
816.342529,476
816.461182,480
816.579895,479
816.698486,459
816.817139,494
816.935791,463
817.054504,483
817.173096,476
817.291748,468
817.4104,466
817.529053,459
817.647644,466
817.766235,468
817.884949,458
818.00354,490
818.122192,471
818.240845,454
818.359436,477
818.478088,470
818.59668,475
818.715271,454
818.833923,473
818.952515,437
819.071106,456
819.189758,433
819.30835,474
819.426941,467
819.545532,450
819.664124,451
819.782715,461
819.901306,454
820.019897,446
820.138489,443
820.25708,453
820.375671,442
820.494202,458
820.612732,471
820.731384,459
820.849915,461
820.968506,457
821.087097,441
821.205627,462
821.324158,461
821.442749,467
821.561279,462
821.679871,467
821.798401,456
821.916931,449
822.035461,448
822.154053,454
822.272583,462
822.391174,464
822.509583,467
822.628174,446
822.746704,474
822.865234,468
822.983765,454
823.102295,459
823.220825,448
823.339294,464
823.457825,465
823.576355,460
823.694824,453
823.813354,438
823.931885,461
824.050354,456
824.168884,456
824.287354,466
824.405823,447
824.524353,466
824.642822,455
824.761353,464
824.879822,466
824.998291,461
825.116699,462
825.235291,456
825.353699,451
825.472168,448
825.590637,478
825.709106,448
825.827576,450
825.946045,455
826.064453,456
826.182983,456
826.301392,453
826.4198,460
826.53833,457
826.656738,430
826.775208,449
826.893677,469
827.012024,448
827.130493,456
827.248962,430
827.36731,435
827.485779,448
827.604248,450
827.722595,448
827.841064,454
827.959412,443
828.077942,447
828.196289,459
828.314636,455
828.433105,456
828.551514,457
828.669861,453
828.78833,444
828.906677,435
829.025085,457
829.143433,441
829.261841,457
829.38031,450
829.498657,452
829.617004,464
829.735413,445
829.85376,446
829.972107,450
830.090515,442
830.208862,455
830.327209,434
830.445557,440
830.563904,463
830.682312,444
830.800659,468
830.919006,427
831.037354,453
831.155701,459
831.274048,449
831.392395,452
831.51062,443
831.629028,443
831.747314,442
831.865662,465
831.984009,459
832.102356,449
832.220642,454
832.338928,459
832.457275,436
832.575623,432
832.693909,450
832.812134,452
832.930481,454
833.048828,445
833.167114,440
833.2854,444
833.403687,435
833.521973,457
833.640259,452
833.758545,448
833.876831,447
833.995056,440
834.113281,431
834.231628,469
834.349915,446
834.468201,434
834.586426,441
834.704651,454
834.822998,478
834.941162,426
835.059448,442
835.177673,440
835.295959,446
835.414246,461
835.53241,442
835.650635,440
835.768921,433
835.887146,436
836.005371,451
836.123596,449
836.241821,458
836.360046,432
836.478271,436
836.596497,457
836.714722,451
836.832886,433
836.95105,444
837.069336,454
837.1875,435
837.305725,436
837.423889,449
837.542053,452
837.660339,434
837.778503,456
837.896667,450
838.014832,454
838.132996,442
838.25116,439
838.369385,432
838.487488,439
838.605713,454
838.723877,430
838.84198,449
838.960205,444
839.078308,443
839.196472,445
839.314636,452
839.4328,421
839.550964,439
839.669067,450
839.787231,438
839.905396,430
840.023499,438
840.141602,443
840.259766,437
840.377869,452
840.495972,435
840.614136,458
840.732239,452
840.850342,451
840.968445,456
841.086548,434
841.204651,427
841.322754,466
841.440918,430
841.55896,454
841.677002,435
841.795166,437
841.913208,443
842.031311,439
842.149353,453
842.267456,435
842.385498,428
842.503601,451
842.621643,438
842.739746,457
842.857788,440
842.97583,457
843.093933,439
843.211975,439
843.330017,440
843.44812,452
843.566101,434
843.684204,430
843.802246,418
843.920227,446
844.038269,447
844.156311,428
844.274292,444
844.392395,431
844.510376,450
844.628357,457
844.74646,433
844.864441,445
844.982422,440
845.100403,464
845.218384,452
845.336426,440
845.454468,444
845.572449,449
845.69043,452
845.808411,454
845.926453,447
846.044373,450
846.162354,438
846.280396,453
846.398315,427
846.516296,452
846.634216,450
846.752197,437
846.870178,446
846.988098,422
847.106079,429
847.22406,423
847.34198,434
847.4599,444
847.577881,439
847.695801,449
847.813782,438
847.931641,431
848.049561,423
848.167603,443
848.285461,443
848.403381,444
848.521362,461
848.639221,443
848.75708,436
848.875,430
848.99292,445
849.110901,432
849.22876,460
849.34668,442
849.464539,451
849.582458,446
849.700317,448
849.818176,444
849.936096,436
850.053955,437
850.171875,434
850.289673,450
850.407593,445
850.525452,441
850.643311,422
850.761169,445
850.878967,445
850.996887,451
851.114746,431
851.232544,456
851.350403,451
851.468262,452
851.58606,448
851.703979,454
851.821777,426
851.939636,442
852.057434,455
852.175232,446
852.293091,422
852.410889,449
852.528687,435
852.646545,440
852.764343,460
852.88208,450
852.999939,445
853.117676,437
853.235535,457
853.353271,436
853.471069,448
853.588928,438
853.706604,456
853.824402,437
853.9422,420
854.059998,448
854.177734,445
854.295532,445
854.413269,443
854.531006,438
854.648804,445
854.766541,450
854.884277,440
855.002014,439
855.119751,450
855.237549,448
855.355225,440
855.473022,463
855.590698,436
855.708435,428
855.826172,456
855.943848,431
856.061646,439
856.179321,463
856.296997,442
856.414795,446
856.53241,434
856.650085,460
856.767822,447
856.885559,447
857.003174,443
857.120911,449
857.238586,432
857.356201,452
857.473938,437
857.591614,448
857.709351,433
857.826965,435
857.944641,443
858.062317,429
858.179993,435
858.297668,446
858.415283,428
858.532959,448
858.650574,442
858.768188,461
858.885803,445
859.003479,439
859.121094,466
859.23877,444
859.356384,444
859.473999,433
859.591675,459
859.709229,455
859.826843,433
859.944458,456
860.062012,431
860.179626,444
860.297302,441
860.414856,447
860.532471,439
860.650024,455
860.767639,447
860.885193,441
861.002808,436
861.120361,432
861.237976,438
861.35553,445
861.473022,442
861.590698,443
861.708191,441
861.825745,466
861.943298,427
862.060852,439
862.178406,442
862.295959,439
862.413513,445
862.531006,431
862.64856,434
862.766113,448
862.883667,456
863.00116,445
863.118713,450
863.236206,441
863.353699,445
863.471252,451
863.588745,441
863.706177,445
863.82373,449
863.941162,444
864.058716,455
864.176208,438
864.29364,443
864.411194,427
864.528687,454
864.646118,452
864.763611,428
864.881042,443
864.998535,454
865.116028,458
865.233459,443
865.350891,440
865.468384,453
865.585754,461
865.703308,436
865.820679,427
865.938171,439
866.055542,442
866.173035,438
866.290466,426
866.407837,447
866.52533,470
866.6427,430
866.760071,433
866.877563,438
866.994934,468
867.112305,437
867.229736,461
867.347107,430
867.464539,454
867.58197,441
867.699341,468
867.81665,439
867.934082,432
868.051453,443
868.168823,441
868.286194,440
868.403564,447
868.520935,455
868.638306,451
868.755676,444
868.872986,446
868.990295,442
869.107727,440
869.225037,438
869.342346,444
869.459717,446
869.577026,452
869.694336,452
869.811707,437
869.929016,454
870.046326,458
870.163635,448
870.280945,432
870.398254,435
870.515564,439
870.632812,459
870.750183,463
870.867432,448
870.984741,439
871.102051,454
871.219299,461
871.336609,433
871.453918,450
871.571106,462
871.688416,461
871.805664,434
871.922852,438
872.040222,446
872.157471,456
872.274719,447
872.391968,459
872.509155,456
872.626465,460
872.743652,445
872.860962,462
872.978149,446
873.095337,442
873.212646,434
873.329834,460
873.44696,459
873.564209,445
873.681396,443
873.798645,449
873.915894,437
874.03302,428
874.150208,434
874.267456,442
874.384583,452
874.501831,445
874.618958,448
874.736145,442
874.853333,446
874.970459,452
875.087646,439
875.204834,458
875.32196,428
875.439148,465
875.556274,458
875.673401,431
875.790527,427
875.907715,464
876.024841,454
876.141968,455
876.259094,432
876.376282,457
876.493347,461
876.610474,441
876.7276,425
876.844727,449
876.961853,435
877.078918,460
877.195984,446
877.313171,450
877.430237,454
877.547302,448
877.664368,466
877.781433,476
877.898499,458
878.015625,471
878.13269,426
878.249695,453
878.366821,456
878.483887,459
878.600952,438
878.717957,437
878.834961,449
878.952087,451
879.069092,444
879.186157,431
879.303162,456
879.420227,447
879.537231,449
879.654236,446
879.77124,449
879.888306,451
880.005249,457
880.122314,445
880.239319,455
880.356323,449
880.473328,455
880.590271,466
880.707275,450
880.824341,456
880.941284,449
881.058228,437
881.175232,452
881.292236,458
881.40918,435
881.526123,441
881.643066,471
881.760071,469
881.877014,450
881.993958,446
882.11084,439
882.227783,457
882.344727,433
882.46167,459
882.578613,452
882.695618,454
882.812439,455
882.929382,457
883.046326,437
883.163208,457
883.280151,448
883.397034,460
883.513916,436
883.630798,457
883.747742,438
883.864563,473
883.981506,464
884.098389,448
884.21521,444
884.332153,445
884.448975,448
884.565796,454
884.682678,439
884.7995,452
884.916443,476
885.033264,450
885.150085,454
885.266968,456
885.383789,447
885.500671,451
885.617493,448
885.734314,462
885.851196,433
885.967896,468
886.084717,437
886.201599,457
886.318359,436
886.435181,430
886.552002,460
886.668762,462
886.785645,460
886.902344,446
887.019165,436
887.135925,472
887.252747,447
887.369446,452
887.486267,441
887.603027,449
887.719788,475
887.836548,469
887.953247,445
888.070068,449
888.186829,473
888.303528,452
888.420288,446
888.536987,439
888.653687,442
888.770447,461
888.887146,480
889.003967,478
889.120667,451
889.237305,437
889.354065,453
889.470703,458
889.587463,453
889.704163,443
889.820862,463
889.937561,455
890.054199,476
890.170837,465
890.287598,446
890.404236,445
890.520874,447
890.637634,453
890.754211,451
890.87085,475
890.987549,459
891.104187,475
891.220886,437
891.337463,441
891.454102,467
891.57074,463
891.687378,446
891.804077,467
891.920654,468
892.037231,465
892.15387,458
892.270447,454
892.387085,467
892.503723,443
892.6203,454
892.736877,463
892.853516,459
892.970032,467
893.08667,477
893.203186,446
893.319763,470
893.43634,458
893.552917,437
893.669556,454
893.786011,453
893.902588,464
894.019165,441
894.135681,480
894.252197,449
894.368835,478
894.485291,452
894.601868,467
894.718384,454
894.8349,471
894.951355,450
895.067932,459
895.184448,453
895.300964,462
895.417419,459
895.533936,468
895.650452,452
895.766907,464
895.883423,460
895.999878,449
896.116333,451
896.232849,456
896.349304,446
896.465759,447
896.582214,457
896.698669,447
896.815125,460
896.931641,460
897.048035,448
897.164551,462
897.280884,455
897.397339,447
897.513794,445
897.630249,461
897.746582,456
897.863098,457
897.979431,456
898.095886,458
898.212341,465
898.328674,455
898.445129,472
898.561462,448
898.677795,467
898.794312,467
898.910645,469
899.026978,475
899.143433,443
899.259766,470
899.37616,449
899.492493,457
899.608765,461
899.725159,452
899.841553,461
899.957947,471
900.07428,443
900.190552,452
900.306946,463
900.423157,471
900.53949,468
900.655884,438
900.772156,448
900.888489,455
901.004822,440
901.121033,458
901.237366,447
901.353699,455
901.46991,471
901.586304,452
901.702515,443
901.818787,462
901.93512,463
902.051331,466
902.167603,466
902.283875,442
902.400085,466
902.516418,471
902.632629,452
902.74884,460
902.865112,455
902.981384,443
903.097595,463
903.213867,484
903.330017,467
903.446289,454
903.5625,475
903.67865,474
903.794922,446
903.911072,448
904.027344,467
904.143494,467
904.259705,458
904.375916,460
904.492065,448
904.608215,465
904.724426,453
904.840576,456
904.956726,469
905.072876,455
905.189087,462
905.305176,464
905.421387,482
905.537537,467
905.653687,467
905.769775,452
905.885925,441
906.002014,455
906.118164,447
906.234314,449
906.350403,463
906.466492,480
906.582642,442
906.69873,464
906.814758,468
906.930908,479
907.046936,459
907.163086,470
907.279175,472
907.395264,457
907.511353,463
907.62738,477
907.743408,456
907.859497,470
907.975525,461
908.091553,471
908.207703,484
908.32373,455
908.439758,460
908.555786,463
908.671814,455
908.787842,475
908.90387,462
909.019775,456
909.135864,469
909.251892,483
909.367859,465
909.483826,483
909.599854,458
909.715881,467
909.831848,470
909.947815,473
910.063782,475
910.179749,467
910.295776,464
910.411743,485
910.527649,467
910.643616,467
910.759583,468
910.875488,493
910.991455,445
911.107361,472
911.223267,480
911.339294,467
911.4552,459
911.571106,490
911.687073,470
911.802979,459
911.918823,454
912.034729,478
912.150635,466
912.266602,470
912.382446,451
912.498352,469
912.614197,448
912.730103,482
912.846008,476
792.44574,514
792.56488,501
792.68396,559
792.80304,520
792.92218,483
793.041199,476
793.160339,462
793.279419,483
793.398499,479
793.517578,485
793.636658,461
793.755737,516
793.874817,505
793.993896,505
794.112976,491
794.232056,490
794.351074,482
794.470215,480
794.589233,483
794.708313,489
794.827393,491
794.946411,469
795.065552,496
795.18457,487
795.303589,489
795.422668,479
795.541687,494
795.660767,483
795.779846,477
795.898865,480
796.017883,500
796.136963,465
796.255981,473
796.375061,478
796.49408,467
796.613037,488
796.732117,489
796.851135,487
796.970154,463
797.089233,500
797.208191,492
797.327271,487
797.446228,485
797.565186,471
797.684265,485
797.803223,479
797.922241,481
798.04126,470
798.160278,468
798.279297,464
798.398315,487
798.517273,481
798.636292,484
798.75531,488
798.874268,499
798.993286,498
799.112244,469
799.231323,475
799.350281,483
799.469238,470
799.588257,478
799.707153,481
799.826111,475
799.945129,487
800.064087,481
800.183044,479
800.302063,486
800.421021,496
800.539978,477
800.658936,483
800.777893,474
800.896912,463
801.015747,491
801.134705,478
801.253723,454
801.37262,470
801.491638,468
801.610535,473
801.729492,453
801.84845,474
801.967407,490
802.086243,470
802.205261,482
802.324158,487
802.443115,464
802.562073,478
802.680969,473
802.799927,480
802.918762,485
803.037659,470
803.156677,477
803.275574,491
803.39447,468
803.513428,466
803.632263,464
803.751221,499
803.870117,477
803.989014,446
804.107971,489
804.226746,488
804.345642,480
804.4646,465
804.583496,462
804.702393,460
804.821228,490
804.940125,475
805.059021,478
805.177917,469
805.296814,456
805.415649,472
805.534546,465
805.653442,476
805.772278,490
805.891113,465
806.01001,453
806.128906,474
806.247742,476
806.366577,464
806.485413,480
806.604309,467
806.723145,491
806.84198,470
806.960876,438
807.079712,447
807.198486,465
807.317383,481
807.436218,473
807.554993,474
807.673889,458
807.792725,477
807.91156,477
808.030396,488
808.14917,467
808.268005,475
808.386841,477
808.505676,464
808.624451,468
808.743286,468
808.862122,445
808.980896,470
809.099731,463
809.218506,470
809.337341,472
809.456116,480
809.57489,463
809.693726,499
809.8125,470
809.931274,471
810.050049,465
810.168884,465
810.287659,471
810.406372,477
810.525269,459
810.643982,479
810.762756,465
810.881531,468
811.000305,465
811.11908,448
811.237854,487
811.356567,480
811.475403,453
811.594116,490
811.71283,470
811.831604,464
811.950378,489
812.069153,486
812.187927,491
812.30658,466
812.425415,471
812.544128,453
812.662781,453
812.781616,472
812.900269,468
813.019043,474
813.137756,471
813.256531,472
813.375244,491
813.493896,461
813.612671,489
813.731384,471
813.850037,477
813.96875,468
814.087524,474
814.206238,463
814.324951,468
814.443604,474
814.562256,465
814.68103,467
814.799683,472
814.918335,484
815.037109,482
815.155762,464
815.274475,470
815.393188,466
815.511841,453
815.630554,458
815.749146,452
815.867859,456
815.986572,491
816.105164,472
816.223877,468
816.342529,477
816.461182,465
816.579895,487
816.698486,462
816.817139,467
816.935791,452
817.054504,459
817.173096,457
817.291748,453
817.4104,482
817.529053,464
817.647644,458
817.766235,464
817.884949,479
818.00354,462
818.122192,467
818.240845,456
818.359436,465
818.478088,459
818.59668,468
818.715271,454
818.833923,448
818.952515,476
819.071106,447
819.189758,450
819.30835,450
819.426941,463
819.545532,459
819.664124,459
819.782715,468
819.901306,456
820.019897,447
820.138489,455
820.25708,447
820.375671,461
820.494202,466
820.612732,475
820.731384,438
820.849915,452
820.968506,458
821.087097,456
821.205627,441
821.324158,460
821.442749,452
821.561279,445
821.679871,443
821.798401,428
821.916931,452
822.035461,444
822.154053,464
822.272583,463
822.391174,447
822.509583,456
822.628174,446
822.746704,447
822.865234,450
822.983765,448
823.102295,446
823.220825,462
823.339294,468
823.457825,463
823.576355,452
823.694824,459
823.813354,451
823.931885,472
824.050354,444
824.168884,460
824.287354,470
824.405823,454
824.524353,452
824.642822,436
824.761353,446
824.879822,454
824.998291,450
825.116699,451
825.235291,443
825.353699,454
825.472168,451
825.590637,442
825.709106,461
825.827576,460
825.946045,449
826.064453,465
826.182983,448
826.301392,446
826.4198,451
826.53833,445
826.656738,458
826.775208,448
826.893677,456
827.012024,422
827.130493,448
827.248962,451
827.36731,457
827.485779,454
827.604248,431
827.722595,438
827.841064,456
827.959412,445
828.077942,455
828.196289,445
828.314636,451
828.433105,470
828.551514,450
828.669861,461
828.78833,448
828.906677,454
829.025085,448
829.143433,466
829.261841,457
829.38031,456
829.498657,432
829.617004,432
829.735413,448
829.85376,431
829.972107,450
830.090515,465
830.208862,440
830.327209,440
830.445557,459
830.563904,450
830.682312,465
830.800659,444
830.919006,433
831.037354,428
831.155701,442
831.274048,449
831.392395,452
831.51062,440
831.629028,468
831.747314,447
831.865662,446
831.984009,444
832.102356,452
832.220642,456
832.338928,447
832.457275,434
832.575623,448
832.693909,445
832.812134,452
832.930481,432
833.048828,441
833.167114,460
833.2854,456
833.403687,467
833.521973,443
833.640259,450
833.758545,452
833.876831,436
833.995056,461
834.113281,471
834.231628,440
834.349915,450
834.468201,447
834.586426,447
834.704651,457
834.822998,447
834.941162,441
835.059448,448
835.177673,443
835.295959,451
835.414246,460
835.53241,436
835.650635,442
835.768921,460
835.887146,448
836.005371,437
836.123596,432
836.241821,447
836.360046,454
836.478271,447
836.596497,443
836.714722,426
836.832886,447
836.95105,454
837.069336,440
837.1875,469
837.305725,441
837.423889,420
837.542053,452
837.660339,448
837.778503,442
837.896667,467
838.014832,429
838.132996,448
838.25116,457
838.369385,448
838.487488,428
838.605713,461
838.723877,448
838.84198,455
838.960205,440
839.078308,446
839.196472,420
839.314636,429
839.4328,457
839.550964,452
839.669067,440
839.787231,437
839.905396,476
840.023499,443
840.141602,442
840.259766,437
840.377869,427
840.495972,473
840.614136,436
840.732239,458
840.850342,480
840.968445,435
841.086548,451
841.204651,441
841.322754,450
841.440918,450
841.55896,432
841.677002,436
841.795166,456
841.913208,451
842.031311,439
842.149353,461
842.267456,441
842.385498,446
842.503601,429
842.621643,445
842.739746,444
842.857788,430
842.97583,425
843.093933,424
843.211975,437
843.330017,457
843.44812,456
843.566101,458
843.684204,433
843.802246,437
843.920227,436
844.038269,442
844.156311,433
844.274292,450
844.392395,441
844.510376,465
844.628357,453
844.74646,445
844.864441,434
844.982422,444
845.100403,439
845.218384,438
845.336426,433
845.454468,436
845.572449,446
845.69043,431
845.808411,464
845.926453,450
846.044373,442
846.162354,447
846.280396,446
846.398315,453
846.516296,436
846.634216,437
846.752197,448
846.870178,450
846.988098,431
847.106079,462
847.22406,425
847.34198,455
847.4599,448
847.577881,433
847.695801,450
847.813782,468
847.931641,445
848.049561,449
848.167603,425
848.285461,446
848.403381,448
848.521362,460
848.639221,444
848.75708,457
848.875,451
848.99292,446
849.110901,418
849.22876,433
849.34668,465
849.464539,441
849.582458,441
849.700317,433
849.818176,458
849.936096,448
850.053955,458
850.171875,463
850.289673,448
850.407593,453
850.525452,442
850.643311,448
850.761169,425
850.878967,438
850.996887,436
851.114746,440
851.232544,458
851.350403,420
851.468262,448
851.58606,450
851.703979,439
851.821777,459
851.939636,470
852.057434,447
852.175232,448
852.293091,464
852.410889,427
852.528687,448
852.646545,430
852.764343,445
852.88208,422
852.999939,451
853.117676,462
853.235535,437
853.353271,453
853.471069,445
853.588928,459
853.706604,446
853.824402,440
853.9422,468
854.059998,445
854.177734,452
854.295532,448
854.413269,459
854.531006,449
854.648804,454
854.766541,439
854.884277,425
855.002014,447
855.119751,443
855.237549,447
855.355225,450
855.473022,446
855.590698,456
855.708435,458
855.826172,450
855.943848,449
856.061646,457
856.179321,443
856.296997,428
856.414795,440
856.53241,439
856.650085,436
856.767822,453
856.885559,436
857.003174,441
857.120911,434
857.238586,423
857.356201,437
857.473938,436
857.591614,433
857.709351,458
857.826965,441
857.944641,445
858.062317,448
858.179993,441
858.297668,440
858.415283,435
858.532959,445
858.650574,454
858.768188,451
858.885803,437
859.003479,430
859.121094,442
859.23877,451
859.356384,456
859.473999,446
859.591675,446
859.709229,442
859.826843,453
859.944458,436
860.062012,450
860.179626,436
860.297302,452
860.414856,438
860.532471,451
860.650024,450
860.767639,455
860.885193,462
861.002808,438
861.120361,442
861.237976,454
861.35553,443
861.473022,450
861.590698,438
861.708191,432
861.825745,439
861.943298,461
862.060852,442
862.178406,440
862.295959,446
862.413513,445
862.531006,457
862.64856,431
862.766113,447
862.883667,431
863.00116,468
863.118713,444
863.236206,447
863.353699,452
863.471252,420
863.588745,464
863.706177,436
863.82373,450
863.941162,447
864.058716,441
864.176208,452
864.29364,440
864.411194,436
864.528687,442
864.646118,455
864.763611,435
864.881042,439
864.998535,459
865.116028,429
865.233459,453
865.350891,442
865.468384,427
865.585754,468
865.703308,440
865.820679,465
865.938171,460
866.055542,455
866.173035,453
866.290466,435
866.407837,451
866.52533,451
866.6427,445
866.760071,459
866.877563,456
866.994934,428
867.112305,430
867.229736,466
867.347107,444
867.464539,459
867.58197,449
867.699341,441
867.81665,446
867.934082,457
868.051453,454
868.168823,447
868.286194,442
868.403564,439
868.520935,445
868.638306,445
868.755676,449
868.872986,446
868.990295,459
869.107727,426
869.225037,442
869.342346,450
869.459717,456
869.577026,438
869.694336,451
869.811707,446
869.929016,438
870.046326,469
870.163635,452
870.280945,455
870.398254,452
870.515564,453
870.632812,453
870.750183,442
870.867432,449
870.984741,461
871.102051,474
871.219299,448
871.336609,453
871.453918,463
871.571106,463
871.688416,455
871.805664,460
871.922852,449
872.040222,443
872.157471,444
872.274719,447
872.391968,460
872.509155,453
872.626465,440
872.743652,439
872.860962,450
872.978149,445
873.095337,446
873.212646,455
873.329834,444
873.44696,443
873.564209,455
873.681396,452
873.798645,442
873.915894,457
874.03302,473
874.150208,445
874.267456,434
874.384583,441
874.501831,435
874.618958,460
874.736145,460
874.853333,440
874.970459,429
875.087646,463
875.204834,447
875.32196,458
875.439148,441
875.556274,427
875.673401,453
875.790527,461
875.907715,451
876.024841,448
876.141968,448
876.259094,447
876.376282,430
876.493347,458
876.610474,465
876.7276,445
876.844727,444
876.961853,458
877.078918,447
877.195984,457
877.313171,448
877.430237,453
877.547302,448
877.664368,437
877.781433,451
877.898499,459
878.015625,457
878.13269,443
878.249695,462
878.366821,463
878.483887,446
878.600952,460
878.717957,464
878.834961,441
878.952087,452
879.069092,451
879.186157,452
879.303162,455
879.420227,454
879.537231,447
879.654236,438
879.77124,463
879.888306,459
880.005249,454
880.122314,462
880.239319,438
880.356323,454
880.473328,464
880.590271,449
880.707275,457
880.824341,448
880.941284,462
881.058228,427
881.175232,461
881.292236,455
881.40918,447
881.526123,442
881.643066,440
881.760071,459
881.877014,445
881.993958,455
882.11084,453
882.227783,455
882.344727,434
882.46167,448
882.578613,446
882.695618,441
882.812439,466
882.929382,460
883.046326,447
883.163208,442
883.280151,450
883.397034,455
883.513916,445
883.630798,459
883.747742,449
883.864563,445
883.981506,454
884.098389,439
884.21521,441
884.332153,445
884.448975,457
884.565796,474
884.682678,455
884.7995,448
884.916443,461
885.033264,464
885.150085,456
885.266968,453
885.383789,442
885.500671,461
885.617493,451
885.734314,456
885.851196,448
885.967896,451
886.084717,445
886.201599,455
886.318359,451
886.435181,450
886.552002,475
886.668762,464
886.785645,436
886.902344,465
887.019165,454
887.135925,450
887.252747,457
887.369446,441
887.486267,445
887.603027,460
887.719788,461
887.836548,445
887.953247,459
888.070068,456
888.186829,460
888.303528,471
888.420288,453
888.536987,445
888.653687,455
888.770447,457
888.887146,454
889.003967,434
889.120667,443
889.237305,450
889.354065,446
889.470703,450
889.587463,456
889.704163,479
889.820862,464
889.937561,461
890.054199,458
890.170837,452
890.287598,456
890.404236,455
890.520874,443
890.637634,438
890.754211,468
890.87085,431
890.987549,433
891.104187,445
891.220886,465
891.337463,477
891.454102,443
891.57074,454
891.687378,463
891.804077,466
891.920654,471
892.037231,460
892.15387,454
892.270447,467
892.387085,460
892.503723,450
892.6203,445
892.736877,447
892.853516,460
892.970032,450
893.08667,462
893.203186,443
893.319763,465
893.43634,446
893.552917,458
893.669556,458
893.786011,457
893.902588,459
894.019165,460
894.135681,469
894.252197,467
894.368835,451
894.485291,464
894.601868,465
894.718384,445
894.8349,459
894.951355,446
895.067932,452
895.184448,444
895.300964,455
895.417419,461
895.533936,444
895.650452,449
895.766907,445
895.883423,442
895.999878,461
896.116333,456
896.232849,447
896.349304,437
896.465759,465
896.582214,462
896.698669,449
896.815125,443
896.931641,465
897.048035,461
897.164551,467
897.280884,461
897.397339,466
897.513794,454
897.630249,440
897.746582,470
897.863098,465
897.979431,466
898.095886,474
898.212341,445
898.328674,444
898.445129,464
898.561462,470
898.677795,462
898.794312,466
898.910645,440
899.026978,462
899.143433,446
899.259766,464
899.37616,470
899.492493,450
899.608765,469
899.725159,455
899.841553,428
899.957947,448
900.07428,458
900.190552,445
900.306946,448
900.423157,442
900.53949,469
900.655884,464
900.772156,458
900.888489,463
901.004822,456
901.121033,452
901.237366,452
901.353699,452
901.46991,470
901.586304,458
901.702515,459
901.818787,477
901.93512,456
902.051331,448
902.167603,456
902.283875,459
902.400085,452
902.516418,455
902.632629,451
902.74884,445
902.865112,466
902.981384,453
903.097595,467
903.213867,446
903.330017,461
903.446289,460
903.5625,469
903.67865,467
903.794922,448
903.911072,448
904.027344,464
904.143494,465
904.259705,469
904.375916,474
904.492065,462
904.608215,457
904.724426,462
904.840576,455
904.956726,470
905.072876,451
905.189087,470
905.305176,470
905.421387,467
905.537537,465
905.653687,464
905.769775,452
905.885925,468
906.002014,471
906.118164,463
906.234314,454
906.350403,457
906.466492,463
906.582642,477
906.69873,454
906.814758,487
906.930908,472
907.046936,471
907.163086,453
907.279175,464
907.395264,461
907.511353,461
907.62738,473
907.743408,462
907.859497,481
907.975525,466
908.091553,461
908.207703,469
908.32373,447
908.439758,485
908.555786,480
908.671814,476
908.787842,478
908.90387,471
909.019775,467
909.135864,462
909.251892,448
909.367859,475
909.483826,464
909.599854,468
909.715881,465
909.831848,461
909.947815,454
910.063782,458
910.179749,484
910.295776,443
910.411743,439
910.527649,468
910.643616,480
910.759583,484
910.875488,473
910.991455,468
911.107361,475
911.223267,469
911.339294,470
911.4552,463
911.571106,451
911.687073,465
911.802979,454
911.918823,480
912.034729,468
912.150635,462
912.266602,463
912.382446,445
912.498352,475
912.614197,472
912.730103,449
912.846008,463
