792.44574,717
792.56488,669
792.68396,720
792.80304,694
792.92218,643
793.041199,625
793.160339,623
793.279419,646
793.398499,601
793.517578,610
793.636658,647
793.755737,632
793.874817,623
793.993896,634
794.112976,604
794.232056,599
794.351074,596
794.470215,615
794.589233,563
794.708313,596
794.827393,593
794.946411,587
795.065552,582
795.18457,588
795.303589,571
795.422668,572
795.541687,565
795.660767,598
795.779846,549
795.898865,551
796.017883,590
796.136963,576
796.255981,549
796.375061,556
796.49408,572
796.613037,543
796.732117,550
796.851135,580
796.970154,554
797.089233,544
797.208191,554
797.327271,538
797.446228,536
797.565186,540
797.684265,538
797.803223,543
797.922241,543
798.04126,548
798.160278,549
798.279297,541
798.398315,513
798.517273,544
798.636292,542
798.75531,529
798.874268,508
798.993286,538
799.112244,539
799.231323,521
799.350281,528
799.469238,545
799.588257,524
799.707153,540
799.826111,509
799.945129,554
800.064087,541
800.183044,507
800.302063,530
800.421021,517
800.539978,533
800.658936,534
800.777893,526
800.896912,520
801.015747,547
801.134705,532
801.253723,520
801.37262,504
801.491638,514
801.610535,510
801.729492,516
801.84845,513
801.967407,535
802.086243,539
802.205261,513
802.324158,535
802.443115,518
802.562073,527
802.680969,531
802.799927,529
802.918762,515
803.037659,516
803.156677,544
803.275574,501
803.39447,525
803.513428,511
803.632263,521
803.751221,521
803.870117,523
803.989014,531
804.107971,525
804.226746,510
804.345642,524
804.4646,503
804.583496,516
804.702393,519
804.821228,529
804.940125,539
805.059021,525
805.177917,516
805.296814,520
805.415649,524
805.534546,496
805.653442,492
805.772278,522
805.891113,534
806.01001,508
806.128906,536
806.247742,517
806.366577,515
806.485413,555
806.604309,515
806.723145,513
806.84198,527
806.960876,522
807.079712,518
807.198486,512
807.317383,504
807.436218,504
807.554993,528
807.673889,496
807.792725,512
807.91156,513
808.030396,514
808.14917,514
808.268005,508
808.386841,508
808.505676,534
808.624451,509
808.743286,512
808.862122,504
808.980896,517
809.099731,515
809.218506,530
809.337341,512
809.456116,517
809.57489,524
809.693726,489
809.8125,508
809.931274,510
810.050049,517
810.168884,518
810.287659,523
810.406372,490
810.525269,512
810.643982,521
810.762756,516
810.881531,518
811.000305,503
811.11908,518
811.237854,508
811.356567,499
811.475403,526
811.594116,520
811.71283,517
811.831604,512
811.950378,514
812.069153,526
812.187927,509
812.30658,532
812.425415,520
812.544128,512
812.662781,519
812.781616,529
812.900269,511
813.019043,506
813.137756,493
813.256531,499
813.375244,499
813.493896,519
813.612671,515
813.731384,510
813.850037,522
813.96875,531
814.087524,526
814.206238,514
814.324951,488
814.443604,503
814.562256,514
814.68103,510
814.799683,499
814.918335,509
815.037109,497
815.155762,508
815.274475,495
815.393188,493
815.511841,494
815.630554,520
815.749146,504
815.867859,501
815.986572,494
816.105164,510
816.223877,506
816.342529,506
816.461182,500
816.579895,503
816.698486,494
816.817139,518
816.935791,515
817.054504,527
817.173096,496
817.291748,493
817.4104,505
817.529053,527
817.647644,511
817.766235,503
817.884949,489
818.00354,496
818.122192,478
818.240845,498
818.359436,490
818.478088,490
818.59668,480
818.715271,475
818.833923,483
818.952515,484
819.071106,479
819.189758,490
819.30835,466
819.426941,484
819.545532,467
819.664124,487
819.782715,472
819.901306,468
820.019897,471
820.138489,494
820.25708,474
820.375671,477
820.494202,477
820.612732,464
820.731384,467
820.849915,474
820.968506,480
821.087097,476
821.205627,471
821.324158,475
821.442749,477
821.561279,462
821.679871,487
821.798401,477
821.916931,490
822.035461,468
822.154053,474
822.272583,465
822.391174,477
822.509583,493
822.628174,453
822.746704,458
822.865234,442
822.983765,469
823.102295,466
823.220825,443
823.339294,476
823.457825,472
823.576355,451
823.694824,454
823.813354,475
823.931885,473
824.050354,476
824.168884,465
824.287354,471
824.405823,456
824.524353,463
824.642822,483
824.761353,482
824.879822,465
824.998291,451
825.116699,463
825.235291,453
825.353699,463
825.472168,451
825.590637,472
825.709106,467
825.827576,458
825.946045,464
826.064453,477
826.182983,454
826.301392,478
826.4198,449
826.53833,447
826.656738,452
826.775208,450
826.893677,456
827.012024,480
827.130493,456
827.248962,464
827.36731,467
827.485779,475
827.604248,475
827.722595,446
827.841064,456
827.959412,466
828.077942,449
828.196289,473
828.314636,447
828.433105,471
828.551514,461
828.669861,447
828.78833,459
828.906677,482
829.025085,459
829.143433,445
829.261841,465
829.38031,470
829.498657,462
829.617004,458
829.735413,463
829.85376,467
829.972107,439
830.090515,446
830.208862,457
830.327209,445
830.445557,443
830.563904,444
830.682312,472
830.800659,454
830.919006,452
831.037354,465
831.155701,486
831.274048,471
831.392395,438
831.51062,464
831.629028,460
831.747314,462
831.865662,475
831.984009,442
832.102356,477
832.220642,462
832.338928,463
832.457275,459
832.575623,456
832.693909,483
832.812134,447
832.930481,459
833.048828,443
833.167114,448
833.2854,477
833.403687,463
833.521973,459
833.640259,462
833.758545,448
833.876831,461
833.995056,452
834.113281,452
834.231628,457
834.349915,471
834.468201,461
834.586426,461
834.704651,464
834.822998,464
834.941162,467
835.059448,463
835.177673,457
835.295959,454
835.414246,462
835.53241,474
835.650635,451
835.768921,461
835.887146,462
836.005371,462
836.123596,458
836.241821,449
836.360046,453
836.478271,449
836.596497,459
836.714722,476
836.832886,451
836.95105,444
837.069336,456
837.1875,454
837.305725,453
837.423889,460
837.542053,452
837.660339,466
837.778503,459
837.896667,474
838.014832,458
838.132996,482
838.25116,458
838.369385,444
838.487488,459
838.605713,459
838.723877,458
838.84198,472
838.960205,474
839.078308,462
839.196472,448
839.314636,446
839.4328,471
839.550964,456
839.669067,449
839.787231,488
839.905396,463
840.023499,480
840.141602,450
840.259766,469
840.377869,469
840.495972,463
840.614136,461
840.732239,465
840.850342,468
840.968445,461
841.086548,467
841.204651,466
841.322754,467
841.440918,459
841.55896,474
841.677002,480
841.795166,481
841.913208,465
842.031311,475
842.149353,466
842.267456,460
842.385498,455
842.503601,493
842.621643,477
842.739746,438
842.857788,470
842.97583,469
843.093933,460
843.211975,480
843.330017,462
843.44812,469
843.566101,457
843.684204,486
843.802246,448
843.920227,474
844.038269,479
844.156311,468
844.274292,476
844.392395,452
844.510376,466
844.628357,435
844.74646,456
844.864441,463
844.982422,464
845.100403,489
845.218384,452
845.336426,470
845.454468,471
845.572449,467
845.69043,473
845.808411,452
845.926453,454
846.044373,448
846.162354,451
846.280396,459
846.398315,453
846.516296,467
846.634216,469
846.752197,466
846.870178,475
846.988098,447
847.106079,490
847.22406,459
847.34198,449
847.4599,463
847.577881,462
847.695801,444
847.813782,476
847.931641,457
848.049561,446
848.167603,447
848.285461,453
848.403381,451
848.521362,447
848.639221,463
848.75708,468
848.875,455
848.99292,475
849.110901,451
849.22876,468
849.34668,440
849.464539,455
849.582458,454
849.700317,454
849.818176,464
849.936096,444
850.053955,460
850.171875,461
850.289673,461
850.407593,467
850.525452,452
850.643311,473
850.761169,455
850.878967,478
850.996887,462
851.114746,467
851.232544,464
851.350403,458
851.468262,453
851.58606,458
851.703979,435
851.821777,459
851.939636,456
852.057434,461
852.175232,465
852.293091,457
852.410889,484
852.528687,481
852.646545,498
852.764343,485
852.88208,465
852.999939,468
853.117676,478
853.235535,465
853.353271,454
853.471069,454
853.588928,455
853.706604,466
853.824402,461
853.9422,469
854.059998,464
854.177734,464
854.295532,473
854.413269,458
854.531006,462
854.648804,440
854.766541,460
854.884277,454
855.002014,453
855.119751,450
855.237549,471
855.355225,465
855.473022,450
855.590698,445
855.708435,470
855.826172,468
855.943848,470
856.061646,444
856.179321,458
856.296997,467
856.414795,468
856.53241,468
856.650085,467
856.767822,473
856.885559,464
857.003174,449
857.120911,465
857.238586,454
857.356201,481
857.473938,480
857.591614,476
857.709351,456
857.826965,487
857.944641,479
858.062317,467
858.179993,462
858.297668,483
858.415283,474
858.532959,470
858.650574,474
858.768188,459
858.885803,478
859.003479,472
859.121094,469
859.23877,461
859.356384,471
859.473999,456
859.591675,461
859.709229,481
859.826843,460
859.944458,451
860.062012,473
860.179626,466
860.297302,454
860.414856,440
860.532471,449
860.650024,462
860.767639,465
860.885193,463
861.002808,441
861.120361,445
861.237976,474
861.35553,441
861.473022,472
861.590698,470
861.708191,466
861.825745,475
861.943298,453
862.060852,468
862.178406,459
862.295959,462
862.413513,467
862.531006,453
862.64856,448
862.766113,459
862.883667,457
863.00116,453
863.118713,445
863.236206,454
863.353699,484
863.471252,459
863.588745,463
863.706177,445
863.82373,458
863.941162,452
864.058716,464
864.176208,484
864.29364,451
864.411194,463
864.528687,453
864.646118,462
864.763611,463
864.881042,480
864.998535,456
865.116028,453
865.233459,473
865.350891,461
865.468384,449
865.585754,475
865.703308,466
865.820679,449
865.938171,464
866.055542,463
866.173035,467
866.290466,473
866.407837,443
866.52533,453
866.6427,471
866.760071,447
866.877563,464
866.994934,450
867.112305,455
867.229736,450
867.347107,463
867.464539,477
867.58197,454
867.699341,464
867.81665,468
867.934082,462
868.051453,456
868.168823,442
868.286194,461
868.403564,475
868.520935,460
868.638306,482
868.755676,484
868.872986,460
868.990295,482
869.107727,459
869.225037,466
869.342346,487
869.459717,476
869.577026,459
869.694336,474
869.811707,479
869.929016,470
870.046326,482
870.163635,483
870.280945,488
870.398254,467
870.515564,469
870.632812,485
870.750183,477
870.867432,477
870.984741,445
871.102051,484
871.219299,467
871.336609,486
871.453918,479
871.571106,464
871.688416,473
871.805664,486
871.922852,478
872.040222,469
872.157471,455
872.274719,453
872.391968,458
872.509155,457
872.626465,481
872.743652,479
872.860962,474
872.978149,466
873.095337,489
873.212646,457
873.329834,487
873.44696,467
873.564209,463
873.681396,490
873.798645,474
873.915894,491
874.03302,469
874.150208,491
874.267456,450
874.384583,479
874.501831,488
874.618958,470
874.736145,468
874.853333,479
874.970459,459
875.087646,497
875.204834,470
875.32196,478
875.439148,476
875.556274,480
875.673401,467
875.790527,466
875.907715,470
876.024841,465
876.141968,475
876.259094,479
876.376282,477
876.493347,453
876.610474,465
876.7276,478
876.844727,468
876.961853,461
877.078918,449
877.195984,453
877.313171,466
877.430237,477
877.547302,475
877.664368,489
877.781433,471
877.898499,472
878.015625,482
878.13269,489
878.249695,471
878.366821,438
878.483887,455
878.600952,472
878.717957,465
878.834961,460
878.952087,474
879.069092,462
879.186157,462
879.303162,461
879.420227,465
879.537231,458
879.654236,446
879.77124,472
879.888306,449
880.005249,464
880.122314,465
880.239319,462
880.356323,460
880.473328,471
880.590271,449
880.707275,450
880.824341,480
880.941284,463
881.058228,474
881.175232,473
881.292236,461
881.40918,456
881.526123,447
881.643066,453
881.760071,476
881.877014,460
881.993958,471
882.11084,469
882.227783,449
882.344727,448
882.46167,469
882.578613,455
882.695618,464
882.812439,454
882.929382,443
883.046326,460
883.163208,459
883.280151,478
883.397034,428
883.513916,482
883.630798,460
883.747742,474
883.864563,471
883.981506,445
884.098389,474
884.21521,462
884.332153,476
884.448975,468
884.565796,480
884.682678,484
884.7995,472
884.916443,482
885.033264,471
885.150085,478
885.266968,518
885.383789,486
885.500671,501
885.617493,493
885.734314,493
885.851196,500
885.967896,495
886.084717,499
886.201599,494
886.318359,486
886.435181,478
886.552002,493
886.668762,497
886.785645,501
886.902344,502
887.019165,470
887.135925,475
887.252747,507
887.369446,499
887.486267,474
887.603027,473
887.719788,476
887.836548,466
887.953247,483
888.070068,447
888.186829,469
888.303528,470
888.420288,480
888.536987,478
888.653687,460
888.770447,457
888.887146,463
889.003967,455
889.120667,477
889.237305,453
889.354065,451
889.470703,432
889.587463,469
889.704163,458
889.820862,467
889.937561,460
890.054199,465
890.170837,455
890.287598,471
890.404236,469
890.520874,465
890.637634,453
890.754211,469
890.87085,470
890.987549,456
891.104187,465
891.220886,460
891.337463,454
891.454102,457
891.57074,476
891.687378,468
891.804077,457
891.920654,486
892.037231,471
892.15387,462
892.270447,482
892.387085,486
892.503723,447
892.6203,457
892.736877,462
892.853516,477
892.970032,446
893.08667,461
893.203186,461
893.319763,459
893.43634,464
893.552917,459
893.669556,471
893.786011,454
893.902588,457
894.019165,459
894.135681,462
894.252197,466
894.368835,494
894.485291,483
894.601868,440
894.718384,446
894.8349,463
894.951355,481
895.067932,444
895.184448,470
895.300964,456
895.417419,468
895.533936,473
895.650452,452
895.766907,476
895.883423,467
895.999878,466
896.116333,467
896.232849,439
896.349304,472
896.465759,433
896.582214,480
896.698669,447
896.815125,467
896.931641,463
897.048035,465
897.164551,458
897.280884,465
897.397339,461
897.513794,463
897.630249,462
897.746582,473
897.863098,452
897.979431,470
898.095886,467
898.212341,454
898.328674,453
898.445129,463
898.561462,464
898.677795,456
898.794312,474
898.910645,470
899.026978,456
899.143433,476
899.259766,463
899.37616,470
899.492493,455
899.608765,476
899.725159,459
899.841553,458
899.957947,456
900.07428,456
900.190552,448
900.306946,477
900.423157,473
900.53949,462
900.655884,473
900.772156,475
900.888489,459
901.004822,490
901.121033,467
901.237366,472
901.353699,476
901.46991,468
901.586304,458
901.702515,468
901.818787,493
901.93512,492
902.051331,464
902.167603,477
902.283875,477
902.400085,488
902.516418,472
902.632629,482
902.74884,498
902.865112,494
902.981384,460
903.097595,463
903.213867,477
903.330017,466
903.446289,482
903.5625,499
903.67865,488
903.794922,487
903.911072,483
904.027344,476
904.143494,479
904.259705,487
904.375916,469
904.492065,485
904.608215,472
904.724426,455
904.840576,472
904.956726,467
905.072876,479
905.189087,467
905.305176,470
905.421387,471
905.537537,452
905.653687,494
905.769775,470
905.885925,474
906.002014,444
906.118164,473
906.234314,459
906.350403,459
906.466492,467
906.582642,476
906.69873,470
906.814758,474
906.930908,466
907.046936,468
907.163086,441
907.279175,476
907.395264,455
907.511353,468
907.62738,470
907.743408,476
907.859497,461
907.975525,476
908.091553,456
908.207703,485
908.32373,460
908.439758,481
908.555786,454
908.671814,468
908.787842,483
908.90387,457
909.019775,468
909.135864,461
909.251892,469
909.367859,478
909.483826,484
909.599854,476
909.715881,461
909.831848,486
909.947815,471
910.063782,474
910.179749,459
910.295776,453
910.411743,474
910.527649,474
910.643616,472
910.759583,480
910.875488,472
910.991455,445
911.107361,466
911.223267,484
911.339294,457
911.4552,473
911.571106,467
911.687073,482
911.802979,485
911.918823,458
912.034729,474
912.150635,463
912.266602,470
912.382446,464
912.498352,475
912.614197,475
912.730103,474
912.846008,463
792.44574,677
792.56488,681
792.68396,729
792.80304,725
792.92218,654
793.041199,620
793.160339,639
793.279419,650
793.398499,641
793.517578,613
793.636658,604
793.755737,623
793.874817,651
793.993896,648
794.112976,634
794.232056,611
794.351074,584
794.470215,586
794.589233,607
794.708313,587
794.827393,592
794.946411,567
795.065552,590
795.18457,593
795.303589,594
795.422668,584
795.541687,592
795.660767,559
795.779846,571
795.898865,569
796.017883,566
796.136963,571
796.255981,568
796.375061,583
796.49408,556
796.613037,548
796.732117,558
796.851135,532
796.970154,545
797.089233,540
797.208191,537
797.327271,538
797.446228,553
797.565186,532
797.684265,557
797.803223,542
797.922241,570
798.04126,566
798.160278,561
798.279297,529
798.398315,543
798.517273,539
798.636292,538
798.75531,529
798.874268,550
798.993286,519
799.112244,542
799.231323,519
799.350281,535
799.469238,534
799.588257,525
799.707153,533
799.826111,553
799.945129,537
800.064087,524
800.183044,513
800.302063,535
800.421021,533
800.539978,510
800.658936,526
800.777893,530
800.896912,529
801.015747,513
801.134705,505
801.253723,505
801.37262,527
801.491638,508
801.610535,517
801.729492,527
801.84845,540
801.967407,531
802.086243,523
802.205261,541
802.324158,502
802.443115,525
802.562073,527
802.680969,510
802.799927,521
802.918762,507
803.037659,526
803.156677,534
803.275574,514
803.39447,519
803.513428,521
803.632263,535
803.751221,520
803.870117,522
803.989014,528
804.107971,535
804.226746,522
804.345642,519
804.4646,524
804.583496,524
804.702393,513
804.821228,516
804.940125,505
805.059021,512
805.177917,502
805.296814,540
805.415649,514
805.534546,517
805.653442,521
805.772278,508
805.891113,512
806.01001,531
806.128906,511
806.247742,508
806.366577,511
806.485413,517
806.604309,526
806.723145,510
806.84198,534
806.960876,518
807.079712,512
807.198486,511
807.317383,536
807.436218,530
807.554993,503
807.673889,497
807.792725,502
807.91156,523
808.030396,518
808.14917,506
808.268005,494
808.386841,512
808.505676,504
808.624451,532
808.743286,500
808.862122,505
808.980896,523
809.099731,510
809.218506,526
809.337341,506
809.456116,505
809.57489,526
809.693726,514
809.8125,530
809.931274,510
810.050049,522
810.168884,514
810.287659,532
810.406372,515
810.525269,556
810.643982,502
810.762756,491
810.881531,530
811.000305,533
811.11908,506
811.237854,534
811.356567,500
811.475403,506
811.594116,512
811.71283,527
811.831604,501
811.950378,528
812.069153,529
812.187927,499
812.30658,505
812.425415,514
812.544128,509
812.662781,532
812.781616,520
812.900269,531
813.019043,506
813.137756,521
813.256531,516
813.375244,519
813.493896,510
813.612671,500
813.731384,517
813.850037,500
813.96875,515
814.087524,523
814.206238,503
814.324951,510
814.443604,514
814.562256,520
814.68103,535
814.799683,516
814.918335,497
815.037109,517
815.155762,489
815.274475,503
815.393188,502
815.511841,515
815.630554,507
815.749146,510
815.867859,510
815.986572,504
816.105164,509
816.223877,496
816.342529,528
816.461182,505
816.579895,502
816.698486,518
816.817139,513
816.935791,510
817.054504,504
817.173096,524
817.291748,522
817.4104,500
817.529053,500
817.647644,490
817.766235,508
817.884949,517
818.00354,498
818.122192,495
818.240845,501
818.359436,506
818.478088,458
818.59668,500
818.715271,483
818.833923,491
818.952515,488
819.071106,467
819.189758,492
819.30835,491
819.426941,469
819.545532,483
819.664124,469
819.782715,480
819.901306,478
820.019897,488
820.138489,467
820.25708,484
820.375671,469
820.494202,498
820.612732,486
820.731384,468
820.849915,486
820.968506,471
821.087097,481
821.205627,474
821.324158,477
821.442749,471
821.561279,483
821.679871,474
821.798401,486
821.916931,466
822.035461,465
822.154053,479
822.272583,468
822.391174,488
822.509583,471
822.628174,469
822.746704,473
822.865234,471
822.983765,466
823.102295,462
823.220825,450
823.339294,479
823.457825,446
823.576355,474
823.694824,459
823.813354,457
823.931885,452
824.050354,486
824.168884,490
824.287354,462
824.405823,459
824.524353,483
824.642822,478
824.761353,479
824.879822,449
824.998291,468
825.116699,472
825.235291,466
825.353699,456
825.472168,462
825.590637,471
825.709106,466
825.827576,467
825.946045,451
826.064453,462
826.182983,468
826.301392,441
826.4198,469
826.53833,483
826.656738,456
826.775208,459
826.893677,474
827.012024,468
827.130493,488
827.248962,453
827.36731,461
827.485779,461
827.604248,461
827.722595,459
827.841064,455
827.959412,465
828.077942,471
828.196289,460
828.314636,463
828.433105,457
828.551514,453
828.669861,454
828.78833,478
828.906677,448
829.025085,449
829.143433,451
829.261841,459
829.38031,453
829.498657,475
829.617004,450
829.735413,470
829.85376,453
829.972107,467
830.090515,443
830.208862,482
830.327209,449
830.445557,465
830.563904,480
830.682312,447
830.800659,458
830.919006,454
831.037354,449
831.155701,459
831.274048,474
831.392395,448
831.51062,462
831.629028,457
831.747314,460
831.865662,464
831.984009,458
832.102356,455
832.220642,445
832.338928,451
832.457275,469
832.575623,456
832.693909,440
832.812134,452
832.930481,450
833.048828,446
833.167114,464
833.2854,471
833.403687,467
833.521973,465
833.640259,456
833.758545,466
833.876831,463
833.995056,461
834.113281,463
834.231628,451
834.349915,451
834.468201,444
834.586426,464
834.704651,463
834.822998,456
834.941162,465
835.059448,455
835.177673,471
835.295959,468
835.414246,453
835.53241,462
835.650635,448
835.768921,466
835.887146,448
836.005371,461
836.123596,455
836.241821,452
836.360046,464
836.478271,465
836.596497,459
836.714722,457
836.832886,463
836.95105,470
837.069336,468
837.1875,451
837.305725,473
837.423889,466
837.542053,453
837.660339,460
837.778503,474
837.896667,448
838.014832,463
838.132996,450
838.25116,454
838.369385,473
838.487488,465
838.605713,460
838.723877,455
838.84198,450
838.960205,484
839.078308,468
839.196472,454
839.314636,458
839.4328,463
839.550964,466
839.669067,461
839.787231,449
839.905396,455
840.023499,457
840.141602,455
840.259766,479
840.377869,454
840.495972,455
840.614136,438
840.732239,487
840.850342,469
840.968445,470
841.086548,469
841.204651,464
841.322754,473
841.440918,462
841.55896,466
841.677002,460
841.795166,456
841.913208,469
842.031311,473
842.149353,451
842.267456,467
842.385498,470
842.503601,463
842.621643,464
842.739746,461
842.857788,455
842.97583,489
843.093933,469
843.211975,454
843.330017,465
843.44812,474
843.566101,467
843.684204,456
843.802246,466
843.920227,463
844.038269,463
844.156311,462
844.274292,452
844.392395,466
844.510376,466
844.628357,486
844.74646,466
844.864441,461
844.982422,454
845.100403,496
845.218384,447
845.336426,462
845.454468,476
845.572449,481
845.69043,457
845.808411,462
845.926453,470
846.044373,456
846.162354,480
846.280396,462
846.398315,465
846.516296,459
846.634216,470
846.752197,469
846.870178,466
846.988098,476
847.106079,461
847.22406,452
847.34198,479
847.4599,466
847.577881,470
847.695801,458
847.813782,453
847.931641,481
848.049561,456
848.167603,461
848.285461,443
848.403381,485
848.521362,462
848.639221,479
848.75708,446
848.875,456
848.99292,464
849.110901,469
849.22876,463
849.34668,463
849.464539,454
849.582458,450
849.700317,460
849.818176,470
849.936096,453
850.053955,462
850.171875,473
850.289673,480
850.407593,449
850.525452,471
850.643311,457
850.761169,454
850.878967,455
850.996887,468
851.114746,459
851.232544,473
851.350403,474
851.468262,466
851.58606,463
851.703979,446
851.821777,462
851.939636,480
852.057434,443
852.175232,457
852.293091,470
852.410889,487
852.528687,473
852.646545,472
852.764343,488
852.88208,474
852.999939,456
853.117676,465
853.235535,480
853.353271,465
853.471069,452
853.588928,476
853.706604,470
853.824402,474
853.9422,471
854.059998,459
854.177734,472
854.295532,453
854.413269,483
854.531006,457
854.648804,473
854.766541,464
854.884277,446
855.002014,452
855.119751,450
855.237549,475
855.355225,467
855.473022,482
855.590698,475
855.708435,454
855.826172,463
855.943848,470
856.061646,464
856.179321,460
856.296997,456
856.414795,457
856.53241,460
856.650085,470
856.767822,452
856.885559,477
857.003174,466
857.120911,468
857.238586,465
857.356201,461
857.473938,464
857.591614,479
857.709351,470
857.826965,493
857.944641,459
858.062317,496
858.179993,464
858.297668,459
858.415283,469
858.532959,479
858.650574,479
858.768188,470
858.885803,467
859.003479,465
859.121094,461
859.23877,463
859.356384,478
859.473999,467
859.591675,475
859.709229,483
859.826843,482
859.944458,449
860.062012,456
860.179626,472
860.297302,464
860.414856,444
860.532471,464
860.650024,467
860.767639,458
860.885193,474
861.002808,437
861.120361,478
861.237976,481
861.35553,468
861.473022,466
861.590698,474
861.708191,462
861.825745,467
861.943298,446
862.060852,474
862.178406,450
862.295959,488
862.413513,457
862.531006,471
862.64856,464
862.766113,456
862.883667,444
863.00116,453
863.118713,450
863.236206,450
863.353699,444
863.471252,470
863.588745,456
863.706177,496
863.82373,452
863.941162,468
864.058716,466
864.176208,464
864.29364,492
864.411194,455
864.528687,454
864.646118,461
864.763611,459
864.881042,468
864.998535,462
865.116028,471
865.233459,468
865.350891,470
865.468384,457
865.585754,461
865.703308,465
865.820679,461
865.938171,471
866.055542,468
866.173035,459
866.290466,489
866.407837,436
866.52533,457
866.6427,467
866.760071,463
866.877563,463
866.994934,472
867.112305,447
867.229736,465
867.347107,481
867.464539,463
867.58197,451
867.699341,463
867.81665,488
867.934082,450
868.051453,468
868.168823,469
868.286194,448
868.403564,473
868.520935,456
868.638306,463
868.755676,474
868.872986,477
868.990295,481
869.107727,473
869.225037,447
869.342346,463
869.459717,467
869.577026,463
869.694336,458
869.811707,463
869.929016,464
870.046326,455
870.163635,452
870.280945,458
870.398254,453
870.515564,481
870.632812,466
870.750183,477
870.867432,480
870.984741,474
871.102051,487
871.219299,485
871.336609,501
871.453918,493
871.571106,474
871.688416,475
871.805664,490
871.922852,475
872.040222,465
872.157471,493
872.274719,473
872.391968,487
872.509155,482
872.626465,481
872.743652,477
872.860962,483
872.978149,467
873.095337,476
873.212646,486
873.329834,463
873.44696,466
873.564209,466
873.681396,461
873.798645,476
873.915894,472
874.03302,473
874.150208,473
874.267456,483
874.384583,466
874.501831,485
874.618958,489
874.736145,477
874.853333,478
874.970459,458
875.087646,488
875.204834,497
875.32196,453
875.439148,494
875.556274,489
875.673401,480
875.790527,449
875.907715,459
876.024841,454
876.141968,479
876.259094,487
876.376282,470
876.493347,469
876.610474,487
876.7276,459
876.844727,479
876.961853,465
877.078918,488
877.195984,464
877.313171,464
877.430237,481
877.547302,476
877.664368,468
877.781433,472
877.898499,458
878.015625,455
878.13269,454
878.249695,476
878.366821,479
878.483887,467
878.600952,450
878.717957,481
878.834961,454
878.952087,474
879.069092,474
879.186157,469
879.303162,488
879.420227,460
879.537231,468
879.654236,457
879.77124,468
879.888306,467
880.005249,473
880.122314,433
880.239319,467
880.356323,435
880.473328,463
880.590271,477
880.707275,482
880.824341,461
880.941284,441
881.058228,479
881.175232,469
881.292236,484
881.40918,468
881.526123,447
881.643066,454
881.760071,458
881.877014,462
881.993958,461
882.11084,470
882.227783,473
882.344727,464
882.46167,474
882.578613,447
882.695618,452
882.812439,465
882.929382,446
883.046326,460
883.163208,472
883.280151,456
883.397034,469
883.513916,458
883.630798,464
883.747742,457
883.864563,456
883.981506,462
884.098389,478
884.21521,477
884.332153,488
884.448975,456
884.565796,464
884.682678,471
884.7995,499
884.916443,486
885.033264,494
885.150085,485
885.266968,500
885.383789,491
885.500671,504
885.617493,482
885.734314,502
885.851196,486
885.967896,488
886.084717,501
886.201599,496
886.318359,475
886.435181,486
886.552002,490
886.668762,477
886.785645,465
886.902344,487
887.019165,501
887.135925,467
887.252747,480
887.369446,502
887.486267,479
887.603027,469
887.719788,466
887.836548,490
887.953247,467
888.070068,469
888.186829,466
888.303528,471
888.420288,459
888.536987,469
888.653687,466
888.770447,475
888.887146,476
889.003967,468
889.120667,467
889.237305,459
889.354065,442
889.470703,469
889.587463,456
889.704163,468
889.820862,466
889.937561,469
890.054199,446
890.170837,447
890.287598,464
890.404236,471
890.520874,453
890.637634,480
890.754211,458
890.87085,460
890.987549,470
891.104187,469
891.220886,491
891.337463,466
891.454102,460
891.57074,483
891.687378,466
891.804077,470
891.920654,466
892.037231,467
892.15387,470
892.270447,474
892.387085,467
892.503723,472
892.6203,458
892.736877,469
892.853516,473
892.970032,484
893.08667,449
893.203186,460
893.319763,460
893.43634,473
893.552917,471
893.669556,453
893.786011,479
893.902588,457
894.019165,467
894.135681,472
894.252197,484
894.368835,472
894.485291,464
894.601868,462
894.718384,475
894.8349,453
894.951355,441
895.067932,451
895.184448,471
895.300964,473
895.417419,469
895.533936,476
895.650452,485
895.766907,472
895.883423,468
895.999878,473
896.116333,465
896.232849,484
896.349304,470
896.465759,475
896.582214,473
896.698669,465
896.815125,458
896.931641,457
897.048035,464
897.164551,474
897.280884,457
897.397339,468
897.513794,490
897.630249,455
897.746582,458
897.863098,470
897.979431,457
898.095886,469
898.212341,445
898.328674,459
898.445129,450
898.561462,479
898.677795,452
898.794312,455
898.910645,468
899.026978,484
899.143433,465
899.259766,472
899.37616,467
899.492493,459
899.608765,467
899.725159,468
899.841553,472
899.957947,487
900.07428,452
900.190552,456
900.306946,461
900.423157,466
900.53949,480
900.655884,483
900.772156,463
900.888489,469
901.004822,464
901.121033,469
901.237366,469
901.353699,459
901.46991,472
901.586304,476
901.702515,475
901.818787,494
901.93512,464
902.051331,482
902.167603,491
902.283875,471
902.400085,483
902.516418,455
902.632629,472
902.74884,507
902.865112,493
902.981384,506
903.097595,470
903.213867,495
903.330017,491
903.446289,509
903.5625,483
903.67865,473
903.794922,479
903.911072,494
904.027344,470
904.143494,479
904.259705,480
904.375916,490
904.492065,456
904.608215,491
904.724426,486
904.840576,480
904.956726,463
905.072876,499
905.189087,451
905.305176,468
905.421387,446
905.537537,485
905.653687,473
905.769775,470
905.885925,475
906.002014,471
906.118164,477
906.234314,475
906.350403,484
906.466492,472
906.582642,474
906.69873,464
906.814758,486
906.930908,476
907.046936,470
907.163086,475
907.279175,473
907.395264,473
907.511353,458
907.62738,463
907.743408,450
907.859497,483
907.975525,461
908.091553,483
908.207703,485
908.32373,475
908.439758,473
908.555786,476
908.671814,482
908.787842,477
908.90387,461
909.019775,487
909.135864,475
909.251892,476
909.367859,475
909.483826,471
909.599854,473
909.715881,468
909.831848,474
909.947815,475
910.063782,473
910.179749,468
910.295776,460
910.411743,458
910.527649,460
910.643616,476
910.759583,474
910.875488,489
910.991455,445
911.107361,479
911.223267,453
911.339294,470
911.4552,456
911.571106,483
911.687073,454
911.802979,477
911.918823,468
912.034729,485
912.150635,477
912.266602,486
912.382446,471
912.498352,490
912.614197,476
912.730103,491
912.846008,474
792.44574,690
792.56488,703
792.68396,736
792.80304,726
792.92218,680
793.041199,633
793.160339,665
793.279419,649
793.398499,646
793.517578,600
793.636658,618
793.755737,638
793.874817,619
793.993896,623
794.112976,627
794.232056,619
794.351074,589
794.470215,614
794.589233,586
794.708313,589
794.827393,603
794.946411,589
795.065552,594
795.18457,579
795.303589,573
795.422668,596
795.541687,572
795.660767,579
795.779846,554
795.898865,567
796.017883,534
796.136963,563
796.255981,579
796.375061,540
796.49408,570
796.613037,584
796.732117,542
796.851135,554
796.970154,567
797.089233,532
797.208191,538
797.327271,539
797.446228,571
797.565186,551
797.684265,540
797.803223,539
797.922241,522
798.04126,539
798.160278,547
798.279297,534
798.398315,522
798.517273,529
798.636292,541
798.75531,543
798.874268,534
798.993286,535
799.112244,535
799.231323,547
799.350281,521
799.469238,509
799.588257,532
799.707153,530
799.826111,544
799.945129,529
800.064087,526
800.183044,540
800.302063,532
800.421021,542
800.539978,539
800.658936,535
800.777893,517
800.896912,524
801.015747,525
801.134705,532
801.253723,526
801.37262,543
801.491638,510
801.610535,529
801.729492,528
801.84845,508
801.967407,515
802.086243,521
802.205261,517
802.324158,527
802.443115,515
802.562073,518
802.680969,527
802.799927,527
802.918762,511
803.037659,527
803.156677,528
803.275574,525
803.39447,504
803.513428,544
803.632263,526
803.751221,524
803.870117,511
803.989014,520
804.107971,515
804.226746,522
804.345642,523
804.4646,522
804.583496,487
804.702393,520
804.821228,499
804.940125,513
805.059021,517
805.177917,525
805.296814,509
805.415649,516
805.534546,523
805.653442,522
805.772278,531
805.891113,494
806.01001,516
806.128906,524
806.247742,512
806.366577,527
806.485413,500
806.604309,533
806.723145,516
806.84198,523
806.960876,526
807.079712,490
807.198486,503
807.317383,532
807.436218,513
807.554993,541
807.673889,510
807.792725,530
807.91156,493
808.030396,519
808.14917,527
808.268005,531
808.386841,528
808.505676,520
808.624451,507
808.743286,531
808.862122,514
808.980896,506
809.099731,533
809.218506,515
809.337341,502
809.456116,530
809.57489,513
809.693726,503
809.8125,518
809.931274,531
810.050049,515
810.168884,522
810.287659,517
810.406372,538
810.525269,531
810.643982,529
810.762756,521
810.881531,519
811.000305,520
811.11908,521
811.237854,524
811.356567,520
811.475403,515
811.594116,519
811.71283,506
811.831604,514
811.950378,501
812.069153,535
812.187927,522
812.30658,494
812.425415,517
812.544128,523
812.662781,511
812.781616,500
812.900269,528
813.019043,521
813.137756,532
813.256531,501
813.375244,497
813.493896,516
813.612671,516
813.731384,510
813.850037,513
813.96875,511
814.087524,517
814.206238,518
814.324951,507
814.443604,518
814.562256,504
814.68103,518
814.799683,507
814.918335,514
815.037109,510
815.155762,498
815.274475,522
815.393188,495
815.511841,523
815.630554,521
815.749146,511
815.867859,523
815.986572,499
816.105164,497
816.223877,504
816.342529,513
816.461182,506
816.579895,514
816.698486,484
816.817139,499
816.935791,492
817.054504,488
817.173096,499
817.291748,481
817.4104,503
817.529053,509
817.647644,486
817.766235,507
817.884949,521
818.00354,503
818.122192,499
818.240845,507
818.359436,488
818.478088,469
818.59668,469
818.715271,489
818.833923,476
818.952515,485
819.071106,474
819.189758,467
819.30835,480
819.426941,481
819.545532,492
819.664124,485
819.782715,469
819.901306,500
820.019897,514
820.138489,471
820.25708,459
820.375671,477
820.494202,476
820.612732,480
820.731384,471
820.849915,491
820.968506,482
821.087097,484
821.205627,466
821.324158,490
821.442749,472
821.561279,452
821.679871,468
821.798401,477
821.916931,485
822.035461,467
822.154053,467
822.272583,454
822.391174,473
822.509583,468
822.628174,464
822.746704,463
822.865234,495
822.983765,476
823.102295,478
823.220825,468
823.339294,479
823.457825,476
823.576355,461
823.694824,473
823.813354,472
823.931885,467
824.050354,461
824.168884,475
824.287354,484
824.405823,456
824.524353,479
824.642822,457
824.761353,469
824.879822,486
824.998291,461
825.116699,480
825.235291,484
825.353699,480
825.472168,461
825.590637,475
825.709106,484
825.827576,461
825.946045,467
826.064453,457
826.182983,472
826.301392,482
826.4198,480
826.53833,468
826.656738,461
826.775208,472
826.893677,463
827.012024,455
827.130493,482
827.248962,469
827.36731,458
827.485779,458
827.604248,451
827.722595,465
827.841064,468
827.959412,446
828.077942,454
828.196289,460
828.314636,463
828.433105,424
828.551514,448
828.669861,477
828.78833,452
828.906677,474
829.025085,466
829.143433,455
829.261841,458
829.38031,440
829.498657,446
829.617004,476
829.735413,455
829.85376,453
829.972107,448
830.090515,451
830.208862,466
830.327209,452
830.445557,443
830.563904,467
830.682312,457
830.800659,471
830.919006,474
831.037354,470
831.155701,462
831.274048,463
831.392395,466
831.51062,449
831.629028,461
831.747314,445
831.865662,478
831.984009,455
832.102356,455
832.220642,467
832.338928,452
832.457275,454
832.575623,445
832.693909,463
832.812134,466
832.930481,461
833.048828,481
833.167114,463
833.2854,466
833.403687,466
833.521973,470
833.640259,488
833.758545,444
833.876831,451
833.995056,462
834.113281,462
834.231628,468
834.349915,460
834.468201,459
834.586426,437
834.704651,446
834.822998,467
834.941162,450
835.059448,455
835.177673,459
835.295959,458
835.414246,459
835.53241,452
835.650635,446
835.768921,467
835.887146,451
836.005371,451
836.123596,460
836.241821,463
836.360046,454
836.478271,460
836.596497,452
836.714722,471
836.832886,449
836.95105,441
837.069336,477
837.1875,458
837.305725,456
837.423889,460
837.542053,462
837.660339,479
837.778503,478
837.896667,449
838.014832,475
838.132996,474
838.25116,464
838.369385,471
838.487488,470
838.605713,458
838.723877,458
838.84198,464
838.960205,459
839.078308,476
839.196472,472
839.314636,457
839.4328,470
839.550964,466
839.669067,483
839.787231,485
839.905396,475
840.023499,472
840.141602,471
840.259766,486
840.377869,488
840.495972,464
840.614136,465
840.732239,465
840.850342,478
840.968445,473
841.086548,487
841.204651,478
841.322754,485
841.440918,473
841.55896,455
841.677002,472
841.795166,468
841.913208,460
842.031311,469
842.149353,464
842.267456,466
842.385498,469
842.503601,454
842.621643,479
842.739746,465
842.857788,469
842.97583,492
843.093933,459
843.211975,457
843.330017,453
843.44812,453
843.566101,457
843.684204,471
843.802246,476
843.920227,476
844.038269,484
844.156311,448
844.274292,462
844.392395,440
844.510376,459
844.628357,449
844.74646,454
844.864441,444
844.982422,468
845.100403,447
845.218384,464
845.336426,472
845.454468,458
845.572449,455
845.69043,465
845.808411,462
845.926453,454
846.044373,467
846.162354,478
846.280396,447
846.398315,463
846.516296,454
846.634216,464
846.752197,461
846.870178,464
846.988098,458
847.106079,465
847.22406,442
847.34198,485
847.4599,458
847.577881,453
847.695801,458
847.813782,470
847.931641,436
848.049561,457
848.167603,464
848.285461,441
848.403381,473
848.521362,469
848.639221,464
848.75708,494
848.875,455
848.99292,471
849.110901,487
849.22876,477
849.34668,462
849.464539,467
849.582458,458
849.700317,483
849.818176,472
849.936096,470
850.053955,465
850.171875,453
850.289673,474
850.407593,453
850.525452,460
850.643311,462
850.761169,470
850.878967,452
850.996887,463
851.114746,454
851.232544,448
851.350403,475
851.468262,456
851.58606,450
851.703979,478
851.821777,462
851.939636,453
852.057434,469
852.175232,468
852.293091,465
852.410889,456
852.528687,462
852.646545,472
852.764343,475
852.88208,459
852.999939,474
853.117676,459
853.235535,469
853.353271,465
853.471069,457
853.588928,471
853.706604,457
853.824402,471
853.9422,471
854.059998,466
854.177734,470
854.295532,447
854.413269,457
854.531006,468
854.648804,484
854.766541,472
854.884277,453
855.002014,464
855.119751,479
855.237549,474
855.355225,474
855.473022,470
855.590698,474
855.708435,449
855.826172,471
855.943848,476
856.061646,489
856.179321,457
856.296997,459
856.414795,457
856.53241,490
856.650085,477
856.767822,467
856.885559,475
857.003174,480
857.120911,477
857.238586,482
857.356201,484
857.473938,475
857.591614,467
857.709351,468
857.826965,477
857.944641,466
858.062317,469
858.179993,485
858.297668,467
858.415283,492
858.532959,458
858.650574,477
858.768188,489
858.885803,470
859.003479,472
859.121094,465
859.23877,478
859.356384,473
859.473999,456
859.591675,493
859.709229,447
859.826843,472
859.944458,473
860.062012,457
860.179626,469
860.297302,471
860.414856,464
860.532471,465
860.650024,466
860.767639,457
860.885193,456
861.002808,447
861.120361,459
861.237976,456
861.35553,477
861.473022,461
861.590698,479
861.708191,448
861.825745,466
861.943298,469
862.060852,458
862.178406,478
862.295959,455
862.413513,474
862.531006,450
862.64856,460
862.766113,457
862.883667,461
863.00116,475
863.118713,459
863.236206,457
863.353699,460
863.471252,458
863.588745,472
863.706177,471
863.82373,468
863.941162,465
864.058716,461
864.176208,457
864.29364,470
864.411194,454
864.528687,456
864.646118,455
864.763611,452
864.881042,455
864.998535,469
865.116028,473
865.233459,457
865.350891,459
865.468384,464
865.585754,453
865.703308,462
865.820679,459
865.938171,485
866.055542,473
866.173035,458
866.290466,461
866.407837,456
866.52533,460
866.6427,457
866.760071,463
866.877563,468
866.994934,470
867.112305,486
867.229736,485
867.347107,447
867.464539,458
867.58197,471
867.699341,463
867.81665,468
867.934082,458
868.051453,475
868.168823,456
868.286194,455
868.403564,469
868.520935,478
868.638306,461
868.755676,477
868.872986,465
868.990295,473
869.107727,471
869.225037,462
869.342346,463
869.459717,474
869.577026,470
869.694336,475
869.811707,466
869.929016,463
870.046326,449
870.163635,479
870.280945,461
870.398254,456
870.515564,471
870.632812,473
870.750183,492
870.867432,486
870.984741,468
871.102051,494
871.219299,482
871.336609,463
871.453918,465
871.571106,464
871.688416,465
871.805664,469
871.922852,505
872.040222,474
872.157471,483
872.274719,477
872.391968,457
872.509155,483
872.626465,474
872.743652,455
872.860962,465
872.978149,479
873.095337,474
873.212646,468
873.329834,485
873.44696,484
873.564209,462
873.681396,467
873.798645,451
873.915894,453
874.03302,477
874.150208,483
874.267456,497
874.384583,494
874.501831,476
874.618958,477
874.736145,463
874.853333,479
874.970459,489
875.087646,488
875.204834,479
875.32196,498
875.439148,467
875.556274,495
875.673401,448
875.790527,474
875.907715,469
876.024841,472
876.141968,478
876.259094,476
876.376282,480
876.493347,476
876.610474,456
876.7276,471
876.844727,465
876.961853,481
877.078918,483
877.195984,478
877.313171,464
877.430237,471
877.547302,493
877.664368,477
877.781433,473
877.898499,476
878.015625,465
878.13269,482
878.249695,464
878.366821,469
878.483887,450
878.600952,451
878.717957,460
878.834961,477
878.952087,475
879.069092,469
879.186157,462
879.303162,467
879.420227,448
879.537231,455
879.654236,444
879.77124,453
879.888306,473
880.005249,475
880.122314,464
880.239319,450
880.356323,451
880.473328,458
880.590271,461
880.707275,467
880.824341,448
880.941284,460
881.058228,446
881.175232,469
881.292236,484
881.40918,471
881.526123,446
881.643066,474
881.760071,460
881.877014,462
881.993958,458
882.11084,439
882.227783,456
882.344727,464
882.46167,464
882.578613,471
882.695618,460
882.812439,475
882.929382,464
883.046326,470
883.163208,444
883.280151,475
883.397034,455
883.513916,469
883.630798,479
883.747742,462
883.864563,472
883.981506,500
884.098389,469
884.21521,485
884.332153,471
884.448975,482
884.565796,475
884.682678,481
884.7995,476
884.916443,474
885.033264,485
885.150085,493
885.266968,502
885.383789,480
885.500671,500
885.617493,476
885.734314,484
885.851196,476
885.967896,494
886.084717,476
886.201599,493
886.318359,501
886.435181,497
886.552002,502
886.668762,494
886.785645,493
886.902344,499
887.019165,493
887.135925,489
887.252747,498
887.369446,483
887.486267,485
887.603027,474
887.719788,498
887.836548,484
887.953247,459
888.070068,479
888.186829,468
888.303528,473
888.420288,460
888.536987,471
888.653687,481
888.770447,472
888.887146,465
889.003967,444
889.120667,456
889.237305,455
889.354065,455
889.470703,492
889.587463,463
889.704163,477
889.820862,471
889.937561,463
890.054199,481
890.170837,452
890.287598,471
890.404236,463
890.520874,491
890.637634,469
890.754211,446
890.87085,457
890.987549,455
891.104187,458
891.220886,463
891.337463,466
891.454102,468
891.57074,478
891.687378,455
891.804077,460
891.920654,453
892.037231,456
892.15387,472
892.270447,462
892.387085,466
892.503723,461
892.6203,472
892.736877,457
892.853516,462
892.970032,465
893.08667,473
893.203186,457
893.319763,479
893.43634,469
893.552917,483
893.669556,447
893.786011,465
893.902588,472
894.019165,469
894.135681,477
894.252197,472
894.368835,471
894.485291,462
894.601868,467
894.718384,444
894.8349,485
894.951355,477
895.067932,480
895.184448,469
895.300964,478
895.417419,480
895.533936,465
895.650452,458
895.766907,475
895.883423,475
895.999878,461
896.116333,482
896.232849,461
896.349304,452
896.465759,452
896.582214,472
896.698669,442
896.815125,453
896.931641,451
897.048035,479
897.164551,453
897.280884,472
897.397339,459
897.513794,486
897.630249,457
897.746582,485
897.863098,469
897.979431,469
898.095886,469
898.212341,466
898.328674,468
898.445129,471
898.561462,491
898.677795,503
898.794312,474
898.910645,480
899.026978,464
899.143433,469
899.259766,475
899.37616,465
899.492493,477
899.608765,471
899.725159,471
899.841553,468
899.957947,473
900.07428,465
900.190552,446
900.306946,460
900.423157,469
900.53949,470
900.655884,478
900.772156,457
900.888489,485
901.004822,451
901.121033,459
901.237366,460
901.353699,466
901.46991,472
901.586304,466
901.702515,475
901.818787,463
901.93512,477
902.051331,470
902.167603,446
902.283875,472
902.400085,494
902.516418,472
902.632629,495
902.74884,470
902.865112,509
902.981384,481
903.097595,495
903.213867,495
903.330017,493
903.446289,481
903.5625,484
903.67865,486
903.794922,474
903.911072,484
904.027344,482
904.143494,469
904.259705,467
904.375916,462
904.492065,472
904.608215,485
904.724426,483
904.840576,479
904.956726,482
905.072876,467
905.189087,470
905.305176,487
905.421387,474
905.537537,462
905.653687,469
905.769775,480
905.885925,462
906.002014,471
906.118164,479
906.234314,450
906.350403,478
906.466492,462
906.582642,476
906.69873,463
906.814758,479
906.930908,464
907.046936,453
907.163086,481
907.279175,493
907.395264,474
907.511353,451
907.62738,475
907.743408,495
907.859497,483
907.975525,470
908.091553,477
908.207703,494
908.32373,464
908.439758,488
908.555786,476
908.671814,464
908.787842,469
908.90387,487
909.019775,476
909.135864,488
909.251892,472
909.367859,452
909.483826,465
909.599854,470
909.715881,465
909.831848,465
909.947815,479
910.063782,474
910.179749,463
910.295776,475
910.411743,469
910.527649,488
910.643616,482
910.759583,463
910.875488,457
910.991455,490
911.107361,476
911.223267,472
911.339294,480
911.4552,479
911.571106,486
911.687073,479
911.802979,457
911.918823,467
912.034729,473
912.150635,486
912.266602,457
912.382446,488
912.498352,450
912.614197,454
912.730103,475
912.846008,461
