792.44574,618
792.56488,645
792.68396,704
792.80304,682
792.92218,601
793.041199,605
793.160339,597
793.279419,621
793.398499,591
793.517578,552
793.636658,581
793.755737,610
793.874817,633
793.993896,647
794.112976,622
794.232056,608
794.351074,574
794.470215,589
794.589233,595
794.708313,574
794.827393,578
794.946411,589
795.065552,606
795.18457,576
795.303589,564
795.422668,581
795.541687,575
795.660767,588
795.779846,584
795.898865,581
796.017883,571
796.136963,600
796.255981,582
796.375061,586
796.49408,570
796.613037,558
796.732117,584
796.851135,593
796.970154,589
797.089233,578
797.208191,588
797.327271,571
797.446228,564
797.565186,581
797.684265,579
797.803223,579
797.922241,575
798.04126,586
798.160278,570
798.279297,573
798.398315,581
798.517273,588
798.636292,572
798.75531,567
798.874268,570
798.993286,563
799.112244,589
799.231323,565
799.350281,580
799.469238,581
799.588257,568
799.707153,577
799.826111,567
799.945129,584
800.064087,540
800.183044,575
800.302063,580
800.421021,574
800.539978,579
800.658936,577
800.777893,586
800.896912,575
801.015747,539
801.134705,569
801.253723,585
801.37262,558
801.491638,591
801.610535,570
801.729492,568
801.84845,597
801.967407,591
802.086243,586
802.205261,567
802.324158,607
802.443115,592
802.562073,565
802.680969,567
802.799927,577
802.918762,568
803.037659,599
803.156677,598
803.275574,589
803.39447,570
803.513428,589
803.632263,607
803.751221,589
803.870117,608
803.989014,583
804.107971,576
804.226746,580
804.345642,601
804.4646,593
804.583496,609
804.702393,590
804.821228,611
804.940125,586
805.059021,594
805.177917,605
805.296814,619
805.415649,572
805.534546,591
805.653442,586
805.772278,609
805.891113,604
806.01001,581
806.128906,599
806.247742,620
806.366577,591
806.485413,623
806.604309,615
806.723145,611
806.84198,616
806.960876,586
807.079712,615
807.198486,605
807.317383,594
807.436218,584
807.554993,589
807.673889,601
807.792725,609
807.91156,602
808.030396,583
808.14917,580
808.268005,600
808.386841,608
808.505676,597
808.624451,603
808.743286,602
808.862122,617
808.980896,604
809.099731,604
809.218506,603
809.337341,607
809.456116,632
809.57489,610
809.693726,636
809.8125,628
809.931274,627
810.050049,631
810.168884,609
810.287659,646
810.406372,644
810.525269,604
810.643982,604
810.762756,623
810.881531,633
811.000305,647
811.11908,593
811.237854,623
811.356567,633
811.475403,622
811.594116,615
811.71283,632
811.831604,624
811.950378,621
812.069153,628
812.187927,621
812.30658,611
812.425415,607
812.544128,616
812.662781,638
812.781616,619
812.900269,632
813.019043,629
813.137756,619
813.256531,614
813.375244,635
813.493896,625
813.612671,626
813.731384,627
813.850037,606
813.96875,610
814.087524,596
814.206238,619
814.324951,604
814.443604,638
814.562256,609
814.68103,615
814.799683,620
814.918335,605
815.037109,612
815.155762,611
815.274475,607
815.393188,603
815.511841,625
815.630554,618
815.749146,616
815.867859,589
815.986572,587
816.105164,620
816.223877,597
816.342529,612
816.461182,610
816.579895,607
816.698486,593
816.817139,630
816.935791,604
817.054504,608
817.173096,602
817.291748,609
817.4104,609
817.529053,585
817.647644,603
817.766235,592
817.884949,561
818.00354,566
818.122192,571
818.240845,575
818.359436,559
818.478088,546
818.59668,529
818.715271,528
818.833923,517
818.952515,543
819.071106,508
819.189758,525
819.30835,509
819.426941,519
819.545532,522
819.664124,512
819.782715,487
819.901306,504
820.019897,503
820.138489,520
820.25708,500
820.375671,519
820.494202,494
820.612732,507
820.731384,489
820.849915,495
820.968506,502
821.087097,493
821.205627,487
821.324158,492
821.442749,500
821.561279,505
821.679871,491
821.798401,479
821.916931,485
822.035461,498
822.154053,484
822.272583,489
822.391174,492
822.509583,486
822.628174,482
822.746704,476
822.865234,489
822.983765,468
823.102295,475
823.220825,486
823.339294,475
823.457825,475
823.576355,475
823.694824,494
823.813354,493
823.931885,499
824.050354,495
824.168884,492
824.287354,495
824.405823,486
824.524353,496
824.642822,477
824.761353,476
824.879822,477
824.998291,505
825.116699,475
825.235291,472
825.353699,505
825.472168,484
825.590637,485
825.709106,485
825.827576,481
825.946045,461
826.064453,483
826.182983,462
826.301392,454
826.4198,485
826.53833,469
826.656738,479
826.775208,480
826.893677,471
827.012024,465
827.130493,492
827.248962,475
827.36731,485
827.485779,476
827.604248,456
827.722595,476
827.841064,455
827.959412,470
828.077942,460
828.196289,468
828.314636,487
828.433105,464
828.551514,455
828.669861,469
828.78833,452
828.906677,455
829.025085,456
829.143433,470
829.261841,463
829.38031,479
829.498657,457
829.617004,481
829.735413,488
829.85376,444
829.972107,484
830.090515,466
830.208862,464
830.327209,467
830.445557,450
830.563904,460
830.682312,481
830.800659,456
830.919006,463
831.037354,454
831.155701,470
831.274048,449
831.392395,459
831.51062,459
831.629028,466
831.747314,471
831.865662,452
831.984009,459
832.102356,459
832.220642,467
832.338928,482
832.457275,484
832.575623,473
832.693909,476
832.812134,460
832.930481,468
833.048828,468
833.167114,465
833.2854,453
833.403687,466
833.521973,460
833.640259,474
833.758545,473
833.876831,465
833.995056,457
834.113281,463
834.231628,464
834.349915,479
834.468201,448
834.586426,474
834.704651,445
834.822998,466
834.941162,478
835.059448,463
835.177673,452
835.295959,462
835.414246,464
835.53241,478
835.650635,476
835.768921,471
835.887146,468
836.005371,478
836.123596,463
836.241821,472
836.360046,488
836.478271,476
836.596497,482
836.714722,477
836.832886,465
836.95105,469
837.069336,454
837.1875,480
837.305725,464
837.423889,490
837.542053,480
837.660339,478
837.778503,481
837.896667,481
838.014832,471
838.132996,474
838.25116,475
838.369385,511
838.487488,486
838.605713,500
838.723877,477
838.84198,471
838.960205,448
839.078308,490
839.196472,471
839.314636,480
839.4328,476
839.550964,470
839.669067,464
839.787231,475
839.905396,468
840.023499,462
840.141602,464
840.259766,461
840.377869,484
840.495972,484
840.614136,479
840.732239,473
840.850342,467
840.968445,456
841.086548,490
841.204651,486
841.322754,459
841.440918,467
841.55896,453
841.677002,482
841.795166,470
841.913208,477
842.031311,474
842.149353,464
842.267456,460
842.385498,465
842.503601,459
842.621643,455
842.739746,472
842.857788,472
842.97583,455
843.093933,454
843.211975,465
843.330017,473
843.44812,448
843.566101,474
843.684204,465
843.802246,439
843.920227,461
844.038269,446
844.156311,466
844.274292,459
844.392395,456
844.510376,472
844.628357,475
844.74646,445
844.864441,463
844.982422,459
845.100403,454
845.218384,478
845.336426,457
845.454468,456
845.572449,456
845.69043,464
845.808411,489
845.926453,465
846.044373,456
846.162354,484
846.280396,450
846.398315,452
846.516296,462
846.634216,450
846.752197,453
846.870178,466
846.988098,463
847.106079,451
847.22406,461
847.34198,445
847.4599,453
847.577881,482
847.695801,454
847.813782,473
847.931641,481
848.049561,478
848.167603,471
848.285461,453
848.403381,468
848.521362,462
848.639221,439
848.75708,462
848.875,453
848.99292,456
849.110901,469
849.22876,467
849.34668,467
849.464539,473
849.582458,447
849.700317,454
849.818176,450
849.936096,476
850.053955,483
850.171875,475
850.289673,477
850.407593,453
850.525452,442
850.643311,463
850.761169,439
850.878967,470
850.996887,460
851.114746,471
851.232544,449
851.350403,446
851.468262,457
851.58606,488
851.703979,455
851.821777,461
851.939636,466
852.057434,474
852.175232,478
852.293091,450
852.410889,475
852.528687,472
852.646545,463
852.764343,457
852.88208,471
852.999939,438
853.117676,462
853.235535,468
853.353271,464
853.471069,452
853.588928,459
853.706604,462
853.824402,472
853.9422,488
854.059998,462
854.177734,457
854.295532,472
854.413269,484
854.531006,451
854.648804,479
854.766541,462
854.884277,451
855.002014,485
855.119751,474
855.237549,475
855.355225,484
855.473022,461
855.590698,460
855.708435,466
855.826172,472
855.943848,471
856.061646,460
856.179321,481
856.296997,458
856.414795,470
856.53241,473
856.650085,476
856.767822,453
856.885559,481
857.003174,482
857.120911,460
857.238586,479
857.356201,469
857.473938,477
857.591614,476
857.709351,456
857.826965,455
857.944641,467
858.062317,461
858.179993,464
858.297668,474
858.415283,462
858.532959,459
858.650574,454
858.768188,461
858.885803,468
859.003479,477
859.121094,457
859.23877,458
859.356384,483
859.473999,456
859.591675,465
859.709229,462
859.826843,487
859.944458,465
860.062012,464
860.179626,431
860.297302,466
860.414856,457
860.532471,450
860.650024,476
860.767639,443
860.885193,455
861.002808,466
861.120361,451
861.237976,460
861.35553,475
861.473022,451
861.590698,474
861.708191,449
861.825745,445
861.943298,458
862.060852,432
862.178406,457
862.295959,468
862.413513,476
862.531006,465
862.64856,478
862.766113,477
862.883667,474
863.00116,446
863.118713,463
863.236206,455
863.353699,465
863.471252,477
863.588745,465
863.706177,463
863.82373,475
863.941162,448
864.058716,449
864.176208,456
864.29364,461
864.411194,467
864.528687,471
864.646118,466
864.763611,463
864.881042,476
864.998535,466
865.116028,465
865.233459,459
865.350891,464
865.468384,459
865.585754,463
865.703308,469
865.820679,479
865.938171,446
866.055542,463
866.173035,474
866.290466,444
866.407837,468
866.52533,459
866.6427,482
866.760071,466
866.877563,476
866.994934,443
867.112305,466
867.229736,464
867.347107,469
867.464539,445
867.58197,476
867.699341,457
867.81665,487
867.934082,474
868.051453,455
868.168823,482
868.286194,459
868.403564,470
868.520935,479
868.638306,428
868.755676,459
868.872986,486
868.990295,473
869.107727,464
869.225037,456
869.342346,482
869.459717,463
869.577026,471
869.694336,486
869.811707,451
869.929016,485
870.046326,458
870.163635,478
870.280945,468
870.398254,479
870.515564,480
870.632812,485
870.750183,475
870.867432,470
870.984741,455
871.102051,458
871.219299,467
871.336609,466
871.453918,464
871.571106,489
871.688416,456
871.805664,464
871.922852,482
872.040222,476
872.157471,478
872.274719,473
872.391968,454
872.509155,470
872.626465,453
872.743652,487
872.860962,480
872.978149,457
873.095337,472
873.212646,461
873.329834,460
873.44696,476
873.564209,471
873.681396,463
873.798645,476
873.915894,468
874.03302,466
874.150208,469
874.267456,483
874.384583,471
874.501831,451
874.618958,481
874.736145,455
874.853333,469
874.970459,486
875.087646,480
875.204834,470
875.32196,474
875.439148,464
875.556274,464
875.673401,462
875.790527,506
875.907715,473
876.024841,472
876.141968,472
876.259094,482
876.376282,462
876.493347,477
876.610474,472
876.7276,445
876.844727,469
876.961853,453
877.078918,485
877.195984,497
877.313171,461
877.430237,476
877.547302,472
877.664368,464
877.781433,484
877.898499,464
878.015625,485
878.13269,488
878.249695,460
878.366821,481
878.483887,456
878.600952,470
878.717957,468
878.834961,469
878.952087,474
879.069092,472
879.186157,439
879.303162,463
879.420227,453
879.537231,466
879.654236,465
879.77124,475
879.888306,471
880.005249,485
880.122314,481
880.239319,497
880.356323,462
880.473328,488
880.590271,465
880.707275,462
880.824341,457
880.941284,476
881.058228,467
881.175232,463
881.292236,474
881.40918,470
881.526123,469
881.643066,490
881.760071,480
881.877014,481
881.993958,466
882.11084,503
882.227783,477
882.344727,475
882.46167,453
882.578613,468
882.695618,470
882.812439,462
882.929382,514
883.046326,474
883.163208,457
883.280151,450
883.397034,475
883.513916,473
883.630798,472
883.747742,469
883.864563,479
883.981506,478
884.098389,492
884.21521,487
884.332153,492
884.448975,469
884.565796,468
884.682678,468
884.7995,489
884.916443,484
885.033264,477
885.150085,482
885.266968,461
885.383789,486
885.500671,474
885.617493,476
885.734314,496
885.851196,450
885.967896,459
886.084717,481
886.201599,468
886.318359,456
886.435181,482
886.552002,476
886.668762,480
886.785645,502
886.902344,468
887.019165,480
887.135925,463
887.252747,480
887.369446,482
887.486267,479
887.603027,472
887.719788,485
887.836548,463
887.953247,472
888.070068,485
888.186829,486
888.303528,488
888.420288,473
888.536987,481
888.653687,471
888.770447,458
888.887146,467
889.003967,483
889.120667,489
889.237305,495
889.354065,473
889.470703,456
889.587463,481
889.704163,482
889.820862,479
889.937561,483
890.054199,477
890.170837,503
890.287598,457
890.404236,463
890.520874,471
890.637634,473
890.754211,477
890.87085,496
890.987549,476
891.104187,479
891.220886,506
891.337463,469
891.454102,494
891.57074,509
891.687378,466
891.804077,462
891.920654,477
892.037231,485
892.15387,485
892.270447,482
892.387085,497
892.503723,462
892.6203,476
892.736877,493
892.853516,487
892.970032,494
893.08667,480
893.203186,479
893.319763,479
893.43634,473
893.552917,483
893.669556,488
893.786011,498
893.902588,481
894.019165,488
894.135681,461
894.252197,493
894.368835,467
894.485291,501
894.601868,473
894.718384,472
894.8349,486
894.951355,503
895.067932,487
895.184448,474
895.300964,482
895.417419,477
895.533936,439
895.650452,473
895.766907,499
895.883423,475
895.999878,512
896.116333,476
896.232849,485
896.349304,499
896.465759,490
896.582214,486
896.698669,492
896.815125,474
896.931641,467
897.048035,490
897.164551,497
897.280884,491
897.397339,469
897.513794,493
897.630249,478
897.746582,482
897.863098,477
897.979431,500
898.095886,463
898.212341,475
898.328674,488
898.445129,472
898.561462,481
898.677795,496
898.794312,485
898.910645,479
899.026978,492
899.143433,498
899.259766,478
899.37616,494
899.492493,474
899.608765,487
899.725159,469
899.841553,495
899.957947,470
900.07428,494
900.190552,471
900.306946,484
900.423157,488
900.53949,493
900.655884,480
900.772156,495
900.888489,482
901.004822,492
901.121033,483
901.237366,499
901.353699,483
901.46991,486
901.586304,485
901.702515,476
901.818787,495
901.93512,471
902.051331,488
902.167603,476
902.283875,497
902.400085,481
902.516418,504
902.632629,488
902.74884,502
902.865112,472
902.981384,490
903.097595,467
903.213867,480
903.330017,498
903.446289,470
903.5625,484
903.67865,491
903.794922,502
903.911072,484
904.027344,493
904.143494,506
904.259705,491
904.375916,495
904.492065,500
904.608215,494
904.724426,474
904.840576,482
904.956726,477
905.072876,475
905.189087,485
905.305176,483
905.421387,473
905.537537,491
905.653687,498
905.769775,481
905.885925,506
906.002014,493
906.118164,500
906.234314,499
906.350403,491
906.466492,511
906.582642,502
906.69873,476
906.814758,494
906.930908,476
907.046936,487
907.163086,490
907.279175,492
907.395264,485
907.511353,462
907.62738,515
907.743408,474
907.859497,498
907.975525,500
908.091553,498
908.207703,497
908.32373,476
908.439758,491
908.555786,500
908.671814,497
908.787842,494
908.90387,479
909.019775,471
909.135864,486
909.251892,487
909.367859,490
909.483826,484
909.599854,495
909.715881,483
909.831848,493
909.947815,485
910.063782,486
910.179749,478
910.295776,507
910.411743,497
910.527649,492
910.643616,475
910.759583,506
910.875488,503
910.991455,475
911.107361,490
911.223267,498
911.339294,499
911.4552,508
911.571106,487
911.687073,487
911.802979,504
911.918823,495
912.034729,493
912.150635,488
912.266602,498
912.382446,492
912.498352,471
912.614197,501
912.730103,477
912.846008,473
792.44574,597
792.56488,647
792.68396,698
792.80304,681
792.92218,622
793.041199,595
793.160339,586
793.279419,589
793.398499,595
793.517578,605
793.636658,603
793.755737,638
793.874817,626
793.993896,628
794.112976,607
794.232056,605
794.351074,607
794.470215,588
794.589233,591
794.708313,578
794.827393,575
794.946411,613
795.065552,602
795.18457,567
795.303589,574
795.422668,586
795.541687,575
795.660767,576
795.779846,598
795.898865,596
796.017883,583
796.136963,584
796.255981,584
796.375061,605
796.49408,580
796.613037,580
796.732117,579
796.851135,584
796.970154,548
797.089233,589
797.208191,590
797.327271,535
797.446228,568
797.565186,578
797.684265,597
797.803223,576
797.922241,566
798.04126,572
798.160278,552
798.279297,570
798.398315,551
798.517273,562
798.636292,567
798.75531,568
798.874268,571
798.993286,558
799.112244,590
799.231323,577
799.350281,590
799.469238,581
799.588257,591
799.707153,586
799.826111,566
799.945129,565
800.064087,587
800.183044,592
800.302063,562
800.421021,582
800.539978,581
800.658936,558
800.777893,565
800.896912,577
801.015747,575
801.134705,560
801.253723,603
801.37262,599
801.491638,553
801.610535,575
801.729492,583
801.84845,571
801.967407,589
802.086243,580
802.205261,585
802.324158,576
802.443115,595
802.562073,587
802.680969,595
802.799927,568
802.918762,589
803.037659,594
803.156677,597
803.275574,578
803.39447,591
803.513428,608
803.632263,554
803.751221,569
803.870117,599
803.989014,577
804.107971,586
804.226746,585
804.345642,591
804.4646,575
804.583496,581
804.702393,590
804.821228,572
804.940125,585
805.059021,594
805.177917,629
805.296814,579
805.415649,586
805.534546,602
805.653442,601
805.772278,598
805.891113,611
806.01001,637
806.128906,612
806.247742,605
806.366577,601
806.485413,600
806.604309,599
806.723145,628
806.84198,607
806.960876,602
807.079712,612
807.198486,584
807.317383,610
807.436218,606
807.554993,600
807.673889,614
807.792725,619
807.91156,615
808.030396,605
808.14917,606
808.268005,622
808.386841,601
808.505676,614
808.624451,592
808.743286,635
808.862122,627
808.980896,614
809.099731,612
809.218506,623
809.337341,626
809.456116,619
809.57489,606
809.693726,640
809.8125,612
809.931274,627
810.050049,614
810.168884,599
810.287659,619
810.406372,621
810.525269,625
810.643982,610
810.762756,656
810.881531,634
811.000305,601
811.11908,635
811.237854,602
811.356567,627
811.475403,606
811.594116,618
811.71283,617
811.831604,620
811.950378,610
812.069153,628
812.187927,624
812.30658,622
812.425415,645
812.544128,655
812.662781,628
812.781616,635
812.900269,612
813.019043,609
813.137756,627
813.256531,645
813.375244,646
813.493896,609
813.612671,634
813.731384,650
813.850037,611
813.96875,634
814.087524,614
814.206238,623
814.324951,648
814.443604,609
814.562256,589
814.68103,643
814.799683,621
814.918335,618
815.037109,617
815.155762,602
815.274475,611
815.393188,595
815.511841,624
815.630554,598
815.749146,602
815.867859,631
815.986572,602
816.105164,600
816.223877,602
816.342529,604
816.461182,595
816.579895,591
816.698486,586
816.817139,592
816.935791,638
817.054504,591
817.173096,609
817.291748,620
817.4104,593
817.529053,576
817.647644,588
817.766235,588
817.884949,588
818.00354,563
818.122192,539
818.240845,584
818.359436,535
818.478088,562
818.59668,545
818.715271,532
818.833923,539
818.952515,525
819.071106,534
819.189758,502
819.30835,531
819.426941,528
819.545532,501
819.664124,521
819.782715,483
819.901306,482
820.019897,485
820.138489,504
820.25708,496
820.375671,487
820.494202,483
820.612732,479
820.731384,505
820.849915,506
820.968506,494
821.087097,490
821.205627,488
821.324158,504
821.442749,472
821.561279,508
821.679871,481
821.798401,492
821.916931,481
822.035461,489
822.154053,491
822.272583,473
822.391174,473
822.509583,488
822.628174,477
822.746704,478
822.865234,483
822.983765,480
823.102295,488
823.220825,474
823.339294,473
823.457825,513
823.576355,498
823.694824,482
823.813354,476
823.931885,492
824.050354,473
824.168884,489
824.287354,505
824.405823,489
824.524353,483
824.642822,495
824.761353,483
824.879822,486
824.998291,486
825.116699,483
825.235291,495
825.353699,472
825.472168,490
825.590637,477
825.709106,473
825.827576,487
825.946045,482
826.064453,474
826.182983,484
826.301392,468
826.4198,494
826.53833,487
826.656738,486
826.775208,482
826.893677,459
827.012024,462
827.130493,471
827.248962,468
827.36731,459
827.485779,454
827.604248,452
827.722595,454
827.841064,463
827.959412,474
828.077942,465
828.196289,479
828.314636,473
828.433105,468
828.551514,475
828.669861,462
828.78833,449
828.906677,463
829.025085,457
829.143433,463
829.261841,457
829.38031,470
829.498657,485
829.617004,465
829.735413,449
829.85376,475
829.972107,484
830.090515,465
830.208862,453
830.327209,463
830.445557,471
830.563904,460
830.682312,464
830.800659,468
830.919006,452
831.037354,448
831.155701,475
831.274048,463
831.392395,475
831.51062,450
831.629028,470
831.747314,466
831.865662,483
831.984009,456
832.102356,477
832.220642,473
832.338928,466
832.457275,467
832.575623,459
832.693909,451
832.812134,465
832.930481,458
833.048828,449
833.167114,468
833.2854,454
833.403687,485
833.521973,476
833.640259,475
833.758545,440
833.876831,451
833.995056,469
834.113281,473
834.231628,448
834.349915,467
834.468201,466
834.586426,476
834.704651,471
834.822998,464
834.941162,459
835.059448,499
835.177673,453
835.295959,444
835.414246,466
835.53241,464
835.650635,471
835.768921,461
835.887146,473
836.005371,475
836.123596,477
836.241821,495
836.360046,473
836.478271,469
836.596497,486
836.714722,505
836.832886,475
836.95105,477
837.069336,465
837.1875,495
837.305725,481
837.423889,483
837.542053,491
837.660339,467
837.778503,474
837.896667,482
838.014832,484
838.132996,491
838.25116,474
838.369385,474
838.487488,476
838.605713,495
838.723877,488
838.84198,471
838.960205,476
839.078308,492
839.196472,480
839.314636,492
839.4328,467
839.550964,470
839.669067,458
839.787231,466
839.905396,459
840.023499,465
840.141602,486
840.259766,472
840.377869,473
840.495972,460
840.614136,486
840.732239,466
840.850342,459
840.968445,477
841.086548,482
841.204651,480
841.322754,439
841.440918,478
841.55896,468
841.677002,474
841.795166,488
841.913208,457
842.031311,458
842.149353,462
842.267456,454
842.385498,468
842.503601,481
842.621643,465
842.739746,454
842.857788,452
842.97583,462
843.093933,465
843.211975,442
843.330017,482
843.44812,482
843.566101,470
843.684204,455
843.802246,463
843.920227,468
844.038269,469
844.156311,465
844.274292,465
844.392395,476
844.510376,469
844.628357,463
844.74646,456
844.864441,444
844.982422,454
845.100403,469
845.218384,472
845.336426,443
845.454468,474
845.572449,461
845.69043,443
845.808411,464
845.926453,462
846.044373,453
846.162354,457
846.280396,461
846.398315,462
846.516296,457
846.634216,461
846.752197,455
846.870178,450
846.988098,448
847.106079,471
847.22406,463
847.34198,469
847.4599,456
847.577881,469
847.695801,451
847.813782,462
847.931641,445
848.049561,455
848.167603,460
848.285461,469
848.403381,451
848.521362,477
848.639221,448
848.75708,462
848.875,473
848.99292,441
849.110901,463
849.22876,485
849.34668,467
849.464539,463
849.582458,444
849.700317,479
849.818176,463
849.936096,466
850.053955,463
850.171875,477
850.289673,463
850.407593,458
850.525452,459
850.643311,449
850.761169,479
850.878967,472
850.996887,459
851.114746,456
851.232544,454
851.350403,477
851.468262,464
851.58606,452
851.703979,473
851.821777,477
851.939636,457
852.057434,452
852.175232,460
852.293091,473
852.410889,487
852.528687,479
852.646545,459
852.764343,471
852.88208,454
852.999939,451
853.117676,465
853.235535,459
853.353271,467
853.471069,466
853.588928,449
853.706604,470
853.824402,477
853.9422,447
854.059998,454
854.177734,459
854.295532,455
854.413269,462
854.531006,467
854.648804,446
854.766541,460
854.884277,471
855.002014,474
855.119751,482
855.237549,460
855.355225,455
855.473022,469
855.590698,474
855.708435,482
855.826172,456
855.943848,468
856.061646,477
856.179321,444
856.296997,477
856.414795,463
856.53241,463
856.650085,484
856.767822,452
856.885559,480
857.003174,471
857.120911,471
857.238586,464
857.356201,469
857.473938,475
857.591614,463
857.709351,494
857.826965,461
857.944641,481
858.062317,476
858.179993,475
858.297668,468
858.415283,475
858.532959,465
858.650574,452
858.768188,469
858.885803,471
859.003479,452
859.121094,463
859.23877,461
859.356384,464
859.473999,487
859.591675,464
859.709229,466
859.826843,463
859.944458,453
860.062012,476
860.179626,474
860.297302,465
860.414856,443
860.532471,470
860.650024,463
860.767639,467
860.885193,462
861.002808,458
861.120361,464
861.237976,479
861.35553,453
861.473022,465
861.590698,446
861.708191,477
861.825745,462
861.943298,455
862.060852,464
862.178406,463
862.295959,456
862.413513,469
862.531006,461
862.64856,450
862.766113,472
862.883667,475
863.00116,460
863.118713,471
863.236206,465
863.353699,466
863.471252,459
863.588745,453
863.706177,484
863.82373,473
863.941162,470
864.058716,465
864.176208,462
864.29364,470
864.411194,457
864.528687,473
864.646118,470
864.763611,466
864.881042,475
864.998535,454
865.116028,481
865.233459,470
865.350891,461
865.468384,468
865.585754,460
865.703308,461
865.820679,463
865.938171,454
866.055542,458
866.173035,453
866.290466,451
866.407837,467
866.52533,454
866.6427,477
866.760071,461
866.877563,473
866.994934,483
867.112305,470
867.229736,473
867.347107,452
867.464539,465
867.58197,484
867.699341,456
867.81665,480
867.934082,460
868.051453,471
868.168823,482
868.286194,467
868.403564,482
868.520935,475
868.638306,467
868.755676,453
868.872986,483
868.990295,484
869.107727,466
869.225037,470
869.342346,467
869.459717,465
869.577026,478
869.694336,467
869.811707,457
869.929016,479
870.046326,460
870.163635,469
870.280945,466
870.398254,457
870.515564,482
870.632812,468
870.750183,466
870.867432,471
870.984741,461
871.102051,474
871.219299,451
871.336609,482
871.453918,470
871.571106,473
871.688416,453
871.805664,466
871.922852,491
872.040222,462
872.157471,474
872.274719,491
872.391968,464
872.509155,478
872.626465,445
872.743652,478
872.860962,449
872.978149,456
873.095337,475
873.212646,468
873.329834,481
873.44696,475
873.564209,464
873.681396,477
873.798645,460
873.915894,467
874.03302,484
874.150208,461
874.267456,466
874.384583,464
874.501831,463
874.618958,438
874.736145,470
874.853333,489
874.970459,475
875.087646,467
875.204834,453
875.32196,473
875.439148,476
875.556274,474
875.673401,465
875.790527,461
875.907715,493
876.024841,476
876.141968,446
876.259094,487
876.376282,458
876.493347,472
876.610474,468
876.7276,494
876.844727,473
876.961853,463
877.078918,467
877.195984,474
877.313171,461
877.430237,507
877.547302,464
877.664368,463
877.781433,464
877.898499,476
878.015625,479
878.13269,479
878.249695,468
878.366821,472
878.483887,480
878.600952,487
878.717957,476
878.834961,474
878.952087,473
879.069092,486
879.186157,487
879.303162,483
879.420227,469
879.537231,465
879.654236,462
879.77124,484
879.888306,460
880.005249,466
880.122314,491
880.239319,455
880.356323,481
880.473328,472
880.590271,470
880.707275,483
880.824341,487
880.941284,479
881.058228,474
881.175232,490
881.292236,467
881.40918,474
881.526123,476
881.643066,495
881.760071,462
881.877014,467
881.993958,461
882.11084,478
882.227783,468
882.344727,446
882.46167,465
882.578613,474
882.695618,464
882.812439,463
882.929382,478
883.046326,466
883.163208,468
883.280151,456
883.397034,473
883.513916,486
883.630798,473
883.747742,473
883.864563,493
883.981506,468
884.098389,472
884.21521,474
884.332153,474
884.448975,469
884.565796,465
884.682678,470
884.7995,468
884.916443,506
885.033264,482
885.150085,464
885.266968,486
885.383789,477
885.500671,473
885.617493,475
885.734314,466
885.851196,475
885.967896,462
886.084717,488
886.201599,472
886.318359,490
886.435181,484
886.552002,484
886.668762,482
886.785645,477
886.902344,486
887.019165,488
887.135925,470
887.252747,479
887.369446,480
887.486267,470
887.603027,471
887.719788,497
887.836548,481
887.953247,477
888.070068,486
888.186829,480
888.303528,483
888.420288,492
888.536987,504
888.653687,475
888.770447,483
888.887146,475
889.003967,470
889.120667,491
889.237305,469
889.354065,474
889.470703,492
889.587463,475
889.704163,483
889.820862,473
889.937561,463
890.054199,498
890.170837,470
890.287598,482
890.404236,471
890.520874,470
890.637634,484
890.754211,474
890.87085,464
890.987549,474
891.104187,480
891.220886,485
891.337463,481
891.454102,500
891.57074,481
891.687378,486
891.804077,488
891.920654,474
892.037231,483
892.15387,487
892.270447,490
892.387085,498
892.503723,478
892.6203,488
892.736877,466
892.853516,487
892.970032,469
893.08667,487
893.203186,468
893.319763,489
893.43634,472
893.552917,486
893.669556,472
893.786011,480
893.902588,479
894.019165,491
894.135681,475
894.252197,492
894.368835,508
894.485291,493
894.601868,484
894.718384,483
894.8349,483
894.951355,483
895.067932,502
895.184448,487
895.300964,480
895.417419,487
895.533936,504
895.650452,481
895.766907,488
895.883423,490
895.999878,492
896.116333,497
896.232849,497
896.349304,470
896.465759,496
896.582214,500
896.698669,490
896.815125,493
896.931641,477
897.048035,488
897.164551,481
897.280884,485
897.397339,483
897.513794,486
897.630249,493
897.746582,513
897.863098,499
897.979431,476
898.095886,495
898.212341,503
898.328674,488
898.445129,486
898.561462,487
898.677795,472
898.794312,471
898.910645,489
899.026978,498
899.143433,499
899.259766,491
899.37616,477
899.492493,482
899.608765,493
899.725159,489
899.841553,482
899.957947,483
900.07428,500
900.190552,475
900.306946,482
900.423157,479
900.53949,490
900.655884,463
900.772156,505
900.888489,476
901.004822,487
901.121033,506
901.237366,490
901.353699,486
901.46991,495
901.586304,505
901.702515,495
901.818787,475
901.93512,488
902.051331,484
902.167603,465
902.283875,491
902.400085,507
902.516418,485
902.632629,485
902.74884,491
902.865112,483
902.981384,483
903.097595,484
903.213867,502
903.330017,497
903.446289,498
903.5625,482
903.67865,485
903.794922,485
903.911072,502
904.027344,486
904.143494,488
904.259705,505
904.375916,490
904.492065,476
904.608215,486
904.724426,498
904.840576,493
904.956726,523
905.072876,480
905.189087,490
905.305176,484
905.421387,502
905.537537,484
905.653687,493
905.769775,476
905.885925,486
906.002014,496
906.118164,495
906.234314,495
906.350403,504
906.466492,493
906.582642,488
906.69873,486
906.814758,510
906.930908,486
907.046936,485
907.163086,499
907.279175,484
907.395264,488
907.511353,500
907.62738,488
907.743408,483
907.859497,500
907.975525,486
908.091553,492
908.207703,476
908.32373,479
908.439758,482
908.555786,471
908.671814,483
908.787842,485
908.90387,481
909.019775,483
909.135864,504
909.251892,494
909.367859,504
909.483826,505
909.599854,499
909.715881,487
909.831848,502
909.947815,497
910.063782,506
910.179749,489
910.295776,475
910.411743,497
910.527649,502
910.643616,509
910.759583,504
910.875488,487
910.991455,499
911.107361,486
911.223267,505
911.339294,477
911.4552,503
911.571106,494
911.687073,496
911.802979,491
911.918823,481
912.034729,502
912.150635,485
912.266602,477
912.382446,497
912.498352,481
912.614197,499
912.730103,480
912.846008,500
792.44574,629
792.56488,649
792.68396,697
792.80304,670
792.92218,613
793.041199,604
793.160339,614
793.279419,601
793.398499,592
793.517578,587
793.636658,597
793.755737,622
793.874817,614
793.993896,595
794.112976,602
794.232056,601
794.351074,607
794.470215,584
794.589233,602
794.708313,606
794.827393,594
794.946411,585
795.065552,600
795.18457,596
795.303589,626
795.422668,590
795.541687,584
795.660767,590
795.779846,574
795.898865,566
796.017883,584
796.136963,581
796.255981,571
796.375061,580
796.49408,579
796.613037,600
796.732117,593
796.851135,587
796.970154,598
797.089233,588
797.208191,596
797.327271,570
797.446228,574
797.565186,582
797.684265,581
797.803223,563
797.922241,554
798.04126,582
798.160278,571
798.279297,584
798.398315,561
798.517273,583
798.636292,574
798.75531,589
798.874268,573
798.993286,595
799.112244,601
799.231323,551
799.350281,590
799.469238,587
799.588257,571
799.707153,583
799.826111,593
799.945129,564
800.064087,586
800.183044,577
800.302063,602
800.421021,575
800.539978,583
800.658936,542
800.777893,571
800.896912,583
801.015747,588
801.134705,592
801.253723,562
801.37262,573
801.491638,579
801.610535,580
801.729492,567
801.84845,582
801.967407,600
802.086243,576
802.205261,585
802.324158,573
802.443115,592
802.562073,581
802.680969,577
802.799927,570
802.918762,590
803.037659,587
803.156677,605
803.275574,582
803.39447,608
803.513428,574
803.632263,590
803.751221,593
803.870117,604
803.989014,602
804.107971,595
804.226746,577
804.345642,617
804.4646,598
804.583496,613
804.702393,584
804.821228,629
804.940125,584
805.059021,592
805.177917,593
805.296814,601
805.415649,624
805.534546,607
805.653442,610
805.772278,595
805.891113,597
806.01001,600
806.128906,584
806.247742,610
806.366577,578
806.485413,601
806.604309,614
806.723145,586
806.84198,591
806.960876,600
807.079712,607
807.198486,629
807.317383,591
807.436218,616
807.554993,611
807.673889,619
807.792725,616
807.91156,591
808.030396,614
808.14917,590
808.268005,600
808.386841,655
808.505676,609
808.624451,627
808.743286,631
808.862122,626
808.980896,590
809.099731,629
809.218506,646
809.337341,632
809.456116,608
809.57489,604
809.693726,628
809.8125,611
809.931274,623
810.050049,636
810.168884,626
810.287659,622
810.406372,616
810.525269,613
810.643982,609
810.762756,637
810.881531,632
811.000305,606
811.11908,622
811.237854,620
811.356567,604
811.475403,645
811.594116,639
811.71283,623
811.831604,607
811.950378,627
812.069153,606
812.187927,632
812.30658,641
812.425415,634
812.544128,601
812.662781,628
812.781616,630
812.900269,627
813.019043,611
813.137756,626
813.256531,624
813.375244,617
813.493896,653
813.612671,608
813.731384,621
813.850037,637
813.96875,612
814.087524,646
814.206238,613
814.324951,617
814.443604,597
814.562256,618
814.68103,635
814.799683,610
814.918335,609
815.037109,612
815.155762,603
815.274475,589
815.393188,621
815.511841,609
815.630554,611
815.749146,599
815.867859,609
815.986572,601
816.105164,597
816.223877,599
816.342529,600
816.461182,627
816.579895,609
816.698486,622
816.817139,593
816.935791,619
817.054504,595
817.173096,614
817.291748,574
817.4104,594
817.529053,604
817.647644,598
817.766235,572
817.884949,586
818.00354,553
818.122192,564
818.240845,576
818.359436,563
818.478088,531
818.59668,545
818.715271,534
818.833923,549
818.952515,528
819.071106,518
819.189758,511
819.30835,538
819.426941,521
819.545532,516
819.664124,499
819.782715,504
819.901306,508
820.019897,505
820.138489,498
820.25708,517
820.375671,482
820.494202,483
820.612732,507
820.731384,492
820.849915,477
820.968506,503
821.087097,500
821.205627,499
821.324158,491
821.442749,472
821.561279,488
821.679871,480
821.798401,496
821.916931,479
822.035461,468
822.154053,468
822.272583,487
822.391174,492
822.509583,486
822.628174,503
822.746704,485
822.865234,483
822.983765,478
823.102295,484
823.220825,491
823.339294,492
823.457825,491
823.576355,467
823.694824,504
823.813354,505
823.931885,481
824.050354,485
824.168884,499
824.287354,473
824.405823,493
824.524353,500
824.642822,507
824.761353,488
824.879822,494
824.998291,503
825.116699,493
825.235291,498
825.353699,504
825.472168,495
825.590637,490
825.709106,472
825.827576,463
825.946045,476
826.064453,488
826.182983,484
826.301392,476
826.4198,467
826.53833,478
826.656738,484
826.775208,474
826.893677,451
827.012024,494
827.130493,465
827.248962,465
827.36731,485
827.485779,480
827.604248,467
827.722595,468
827.841064,462
827.959412,473
828.077942,481
828.196289,468
828.314636,475
828.433105,469
828.551514,469
828.669861,481
828.78833,463
828.906677,455
829.025085,466
829.143433,471
829.261841,480
829.38031,466
829.498657,478
829.617004,461
829.735413,481
829.85376,464
829.972107,481
830.090515,471
830.208862,461
830.327209,468
830.445557,458
830.563904,459
830.682312,464
830.800659,460
830.919006,464
831.037354,463
831.155701,468
831.274048,458
831.392395,451
831.51062,461
831.629028,463
831.747314,459
831.865662,458
831.984009,473
832.102356,470
832.220642,466
832.338928,470
832.457275,465
832.575623,471
832.693909,444
832.812134,460
832.930481,470
833.048828,467
833.167114,472
833.2854,454
833.403687,469
833.521973,467
833.640259,462
833.758545,464
833.876831,447
833.995056,473
834.113281,460
834.231628,463
834.349915,486
834.468201,460
834.586426,450
834.704651,464
834.822998,490
834.941162,467
835.059448,461
835.177673,482
835.295959,470
835.414246,468
835.53241,481
835.650635,461
835.768921,462
835.887146,465
836.005371,465
836.123596,473
836.241821,468
836.360046,478
836.478271,473
836.596497,477
836.714722,476
836.832886,493
836.95105,464
837.069336,498
837.1875,466
837.305725,505
837.423889,481
837.542053,492
837.660339,485
837.778503,490
837.896667,487
838.014832,483
838.132996,476
838.25116,518
838.369385,482
838.487488,495
838.605713,472
838.723877,485
838.84198,488
838.960205,485
839.078308,462
839.196472,470
839.314636,470
839.4328,479
839.550964,479
839.669067,468
839.787231,460
839.905396,485
840.023499,476
840.141602,465
840.259766,454
840.377869,482
840.495972,475
840.614136,478
840.732239,466
840.850342,458
840.968445,509
841.086548,463
841.204651,466
841.322754,469
841.440918,483
841.55896,486
841.677002,468
841.795166,469
841.913208,467
842.031311,472
842.149353,454
842.267456,477
842.385498,472
842.503601,468
842.621643,457
842.739746,464
842.857788,448
842.97583,465
843.093933,459
843.211975,461
843.330017,462
843.44812,460
843.566101,485
843.684204,464
843.802246,469
843.920227,473
844.038269,457
844.156311,438
844.274292,475
844.392395,457
844.510376,467
844.628357,451
844.74646,463
844.864441,462
844.982422,471
845.100403,464
845.218384,456
845.336426,463
845.454468,454
845.572449,471
845.69043,456
845.808411,453
845.926453,443
846.044373,448
846.162354,449
846.280396,452
846.398315,479
846.516296,453
846.634216,455
846.752197,465
846.870178,492
846.988098,449
847.106079,455
847.22406,459
847.34198,455
847.4599,455
847.577881,458
847.695801,450
847.813782,453
847.931641,474
848.049561,458
848.167603,466
848.285461,476
848.403381,471
848.521362,463
848.639221,455
848.75708,458
848.875,473
848.99292,454
849.110901,481
849.22876,462
849.34668,454
849.464539,468
849.582458,462
849.700317,451
849.818176,474
849.936096,458
850.053955,470
850.171875,467
850.289673,463
850.407593,462
850.525452,481
850.643311,465
850.761169,466
850.878967,460
850.996887,469
851.114746,458
851.232544,481
851.350403,463
851.468262,456
851.58606,474
851.703979,460
851.821777,467
851.939636,463
852.057434,464
852.175232,467
852.293091,463
852.410889,454
852.528687,463
852.646545,467
852.764343,448
852.88208,476
852.999939,453
853.117676,459
853.235535,450
853.353271,453
853.471069,473
853.588928,455
853.706604,460
853.824402,485
853.9422,448
854.059998,450
854.177734,463
854.295532,478
854.413269,467
854.531006,471
854.648804,454
854.766541,461
854.884277,467
855.002014,476
855.119751,451
855.237549,472
855.355225,472
855.473022,462
855.590698,460
855.708435,471
855.826172,462
855.943848,474
856.061646,467
856.179321,475
856.296997,450
856.414795,477
856.53241,464
856.650085,479
856.767822,473
856.885559,477
857.003174,467
857.120911,458
857.238586,462
857.356201,454
857.473938,462
857.591614,466
857.709351,484
857.826965,470
857.944641,470
858.062317,492
858.179993,475
858.297668,473
858.415283,477
858.532959,458
858.650574,470
858.768188,467
858.885803,477
859.003479,473
859.121094,460
859.23877,466
859.356384,464
859.473999,472
859.591675,478
859.709229,473
859.826843,478
859.944458,451
860.062012,451
860.179626,468
860.297302,454
860.414856,470
860.532471,451
860.650024,477
860.767639,462
860.885193,475
861.002808,456
861.120361,465
861.237976,455
861.35553,470
861.473022,468
861.590698,466
861.708191,456
861.825745,480
861.943298,462
862.060852,490
862.178406,459
862.295959,462
862.413513,467
862.531006,462
862.64856,447
862.766113,471
862.883667,443
863.00116,453
863.118713,487
863.236206,461
863.353699,452
863.471252,460
863.588745,463
863.706177,479
863.82373,477
863.941162,466
864.058716,470
864.176208,466
864.29364,458
864.411194,465
864.528687,483
864.646118,477
864.763611,479
864.881042,470
864.998535,466
865.116028,486
865.233459,473
865.350891,472
865.468384,482
865.585754,466
865.703308,452
865.820679,464
865.938171,463
866.055542,464
866.173035,463
866.290466,485
866.407837,457
866.52533,475
866.6427,463
866.760071,473
866.877563,445
866.994934,462
867.112305,488
867.229736,468
867.347107,473
867.464539,500
867.58197,464
867.699341,465
867.81665,473
867.934082,474
868.051453,471
868.168823,481
868.286194,464
868.403564,463
868.520935,486
868.638306,462
868.755676,473
868.872986,496
868.990295,467
869.107727,468
869.225037,465
869.342346,473
869.459717,466
869.577026,482
869.694336,459
869.811707,465
869.929016,469
870.046326,477
870.163635,466
870.280945,474
870.398254,468
870.515564,463
870.632812,485
870.750183,454
870.867432,457
870.984741,475
871.102051,463
871.219299,473
871.336609,473
871.453918,457
871.571106,467
871.688416,471
871.805664,475
871.922852,450
872.040222,468
872.157471,459
872.274719,470
872.391968,477
872.509155,466
872.626465,479
872.743652,482
872.860962,472
872.978149,477
873.095337,470
873.212646,484
873.329834,468
873.44696,457
873.564209,472
873.681396,474
873.798645,457
873.915894,478
874.03302,480
874.150208,459
874.267456,485
874.384583,457
874.501831,458
874.618958,466
874.736145,463
874.853333,459
874.970459,460
875.087646,448
875.204834,464
875.32196,494
875.439148,490
875.556274,453
875.673401,474
875.790527,445
875.907715,476
876.024841,465
876.141968,474
876.259094,462
876.376282,467
876.493347,466
876.610474,480
876.7276,461
876.844727,478
876.961853,466
877.078918,480
877.195984,500
877.313171,465
877.430237,476
877.547302,470
877.664368,475
877.781433,485
877.898499,477
878.015625,476
878.13269,470
878.249695,462
878.366821,472
878.483887,478
878.600952,461
878.717957,475
878.834961,465
878.952087,488
879.069092,452
879.186157,492
879.303162,479
879.420227,472
879.537231,463
879.654236,475
879.77124,477
879.888306,463
880.005249,489
880.122314,487
880.239319,471
880.356323,469
880.473328,461
880.590271,471
880.707275,463
880.824341,460
880.941284,480
881.058228,468
881.175232,485
881.292236,477
881.40918,465
881.526123,484
881.643066,478
881.760071,472
881.877014,451
881.993958,475
882.11084,470
882.227783,489
882.344727,471
882.46167,474
882.578613,489
882.695618,484
882.812439,459
882.929382,483
883.046326,475
883.163208,476
883.280151,468
883.397034,476
883.513916,499
883.630798,473
883.747742,451
883.864563,496
883.981506,503
884.098389,459
884.21521,452
884.332153,461
884.448975,494
884.565796,452
884.682678,473
884.7995,474
884.916443,451
885.033264,479
885.150085,481
885.266968,488
885.383789,487
885.500671,482
885.617493,468
885.734314,499
885.851196,461
885.967896,480
886.084717,468
886.201599,491
886.318359,492
886.435181,497
886.552002,481
886.668762,481
886.785645,476
886.902344,471
887.019165,469
887.135925,483
887.252747,480
887.369446,458
887.486267,468
887.603027,463
887.719788,487
887.836548,471
887.953247,474
888.070068,497
888.186829,481
888.303528,463
888.420288,503
888.536987,481
888.653687,466
888.770447,487
888.887146,477
889.003967,483
889.120667,472
889.237305,495
889.354065,489
889.470703,479
889.587463,479
889.704163,471
889.820862,471
889.937561,477
890.054199,499
890.170837,459
890.287598,473
890.404236,470
890.520874,460
890.637634,490
890.754211,474
890.87085,489
890.987549,496
891.104187,480
891.220886,481
891.337463,493
891.454102,487
891.57074,507
891.687378,467
891.804077,468
891.920654,488
892.037231,490
892.15387,484
892.270447,500
892.387085,467
892.503723,490
892.6203,478
892.736877,476
892.853516,490
892.970032,504
893.08667,487
893.203186,487
893.319763,467
893.43634,472
893.552917,495
893.669556,494
893.786011,480
893.902588,494
894.019165,458
894.135681,481
894.252197,471
894.368835,486
894.485291,477
894.601868,503
894.718384,492
894.8349,489
894.951355,501
895.067932,494
895.184448,486
895.300964,505
895.417419,467
895.533936,464
895.650452,475
895.766907,491
895.883423,490
895.999878,480
896.116333,483
896.232849,486
896.349304,489
896.465759,487
896.582214,490
896.698669,509
896.815125,477
896.931641,501
897.048035,471
897.164551,465
897.280884,484
897.397339,491
897.513794,504
897.630249,490
897.746582,503
897.863098,494
897.979431,473
898.095886,490
898.212341,487
898.328674,492
898.445129,496
898.561462,471
898.677795,493
898.794312,485
898.910645,473
899.026978,491
899.143433,486
899.259766,477
899.37616,482
899.492493,477
899.608765,486
899.725159,471
899.841553,520
899.957947,494
900.07428,499
900.190552,506
900.306946,502
900.423157,510
900.53949,480
900.655884,490
900.772156,481
900.888489,486
901.004822,480
901.121033,501
901.237366,475
901.353699,491
901.46991,481
901.586304,488
901.702515,499
901.818787,494
901.93512,491
902.051331,499
902.167603,486
902.283875,484
902.400085,481
902.516418,487
902.632629,487
902.74884,496
902.865112,477
902.981384,499
903.097595,491
903.213867,497
903.330017,477
903.446289,501
903.5625,493
903.67865,493
903.794922,478
903.911072,498
904.027344,482
904.143494,481
904.259705,503
904.375916,503
904.492065,489
904.608215,483
904.724426,476
904.840576,518
904.956726,481
905.072876,489
905.189087,481
905.305176,487
905.421387,480
905.537537,509
905.653687,488
905.769775,501
905.885925,483
906.002014,494
906.118164,513
906.234314,485
906.350403,491
906.466492,492
906.582642,464
906.69873,473
906.814758,494
906.930908,495
907.046936,486
907.163086,507
907.279175,493
907.395264,496
907.511353,480
907.62738,489
907.743408,496
907.859497,515
907.975525,487
908.091553,486
908.207703,480
908.32373,512
908.439758,485
908.555786,491
908.671814,492
908.787842,483
908.90387,483
909.019775,504
909.135864,515
909.251892,488
909.367859,493
909.483826,478
909.599854,509
909.715881,494
909.831848,491
909.947815,502
910.063782,486
910.179749,478
910.295776,495
910.411743,490
910.527649,474
910.643616,500
910.759583,486
910.875488,506
910.991455,482
911.107361,497
911.223267,486
911.339294,501
911.4552,477
911.571106,499
911.687073,491
911.802979,508
911.918823,494
912.034729,499
912.150635,486
912.266602,496
912.382446,472
912.498352,479
912.614197,509
912.730103,478
912.846008,478
