792.44574,781
792.56488,822
792.68396,817
792.80304,775
792.92218,763
793.041199,711
793.160339,725
793.279419,746
793.398499,712
793.517578,701
793.636658,693
793.755737,648
793.874817,710
793.993896,685
794.112976,689
794.232056,659
794.351074,633
794.470215,659
794.589233,692
794.708313,613
794.827393,638
794.946411,643
795.065552,643
795.18457,624
795.303589,604
795.422668,637
795.541687,622
795.660767,617
795.779846,626
795.898865,600
796.017883,596
796.136963,604
796.255981,603
796.375061,596
796.49408,590
796.613037,573
796.732117,602
796.851135,596
796.970154,572
797.089233,574
797.208191,584
797.327271,554
797.446228,569
797.565186,577
797.684265,566
797.803223,576
797.922241,590
798.04126,574
798.160278,557
798.279297,581
798.398315,557
798.517273,548
798.636292,560
798.75531,563
798.874268,573
798.993286,566
799.112244,563
799.231323,556
799.350281,563
799.469238,557
799.588257,530
799.707153,564
799.826111,579
799.945129,560
800.064087,559
800.183044,576
800.302063,568
800.421021,560
800.539978,562
800.658936,581
800.777893,564
800.896912,549
801.015747,562
801.134705,551
801.253723,546
801.37262,563
801.491638,546
801.610535,554
801.729492,569
801.84845,589
801.967407,556
802.086243,544
802.205261,542
802.324158,535
802.443115,554
802.562073,540
802.680969,543
802.799927,556
802.918762,522
803.037659,547
803.156677,569
803.275574,551
803.39447,568
803.513428,533
803.632263,552
803.751221,528
803.870117,555
803.989014,514
804.107971,552
804.226746,564
804.345642,542
804.4646,530
804.583496,560
804.702393,546
804.821228,537
804.940125,541
805.059021,537
805.177917,527
805.296814,536
805.415649,530
805.534546,548
805.653442,533
805.772278,526
805.891113,524
806.01001,554
806.128906,530
806.247742,534
806.366577,551
806.485413,544
806.604309,513
806.723145,538
806.84198,539
806.960876,550
807.079712,538
807.198486,535
807.317383,563
807.436218,535
807.554993,542
807.673889,542
807.792725,539
807.91156,524
808.030396,537
808.14917,557
808.268005,549
808.386841,544
808.505676,556
808.624451,528
808.743286,526
808.862122,549
808.980896,542
809.099731,568
809.218506,518
809.337341,535
809.456116,543
809.57489,549
809.693726,541
809.8125,539
809.931274,565
810.050049,551
810.168884,544
810.287659,542
810.406372,508
810.525269,533
810.643982,538
810.762756,551
810.881531,565
811.000305,549
811.11908,526
811.237854,537
811.356567,554
811.475403,533
811.594116,525
811.71283,549
811.831604,528
811.950378,547
812.069153,529
812.187927,554
812.30658,543
812.425415,566
812.544128,524
812.662781,542
812.781616,552
812.900269,520
813.019043,527
813.137756,536
813.256531,574
813.375244,542
813.493896,545
813.612671,555
813.731384,533
813.850037,558
813.96875,518
814.087524,543
814.206238,529
814.324951,558
814.443604,536
814.562256,528
814.68103,526
814.799683,558
814.918335,528
815.037109,539
815.155762,538
815.274475,553
815.393188,525
815.511841,522
815.630554,517
815.749146,538
815.867859,529
815.986572,516
816.105164,524
816.223877,516
816.342529,539
816.461182,518
816.579895,536
816.698486,559
816.817139,542
816.935791,531
817.054504,511
817.173096,537
817.291748,544
817.4104,522
817.529053,538
817.647644,533
817.766235,525
817.884949,527
818.00354,515
818.122192,504
818.240845,494
818.359436,517
818.478088,475
818.59668,499
818.715271,504
818.833923,511
818.952515,474
819.071106,504
819.189758,496
819.30835,504
819.426941,474
819.545532,488
819.664124,483
819.782715,496
819.901306,482
820.019897,475
820.138489,478
820.25708,494
820.375671,485
820.494202,489
820.612732,490
820.731384,482
820.849915,492
820.968506,491
821.087097,474
821.205627,480
821.324158,492
821.442749,481
821.561279,472
821.679871,475
821.798401,466
821.916931,496
822.035461,473
822.154053,478
822.272583,480
822.391174,475
822.509583,476
822.628174,490
822.746704,494
822.865234,462
822.983765,473
823.102295,484
823.220825,459
823.339294,476
823.457825,460
823.576355,485
823.694824,451
823.813354,489
823.931885,472
824.050354,460
824.168884,464
824.287354,463
824.405823,475
824.524353,482
824.642822,492
824.761353,479
824.879822,462
824.998291,498
825.116699,468
825.235291,482
825.353699,486
825.472168,481
825.590637,470
825.709106,460
825.827576,455
825.946045,481
826.064453,467
826.182983,469
826.301392,458
826.4198,466
826.53833,473
826.656738,467
826.775208,469
826.893677,457
827.012024,447
827.130493,479
827.248962,491
827.36731,468
827.485779,455
827.604248,470
827.722595,455
827.841064,447
827.959412,446
828.077942,463
828.196289,445
828.314636,448
828.433105,479
828.551514,476
828.669861,448
828.78833,470
828.906677,450
829.025085,478
829.143433,481
829.261841,493
829.38031,466
829.498657,474
829.617004,445
829.735413,461
829.85376,459
829.972107,444
830.090515,466
830.208862,459
830.327209,445
830.445557,440
830.563904,470
830.682312,489
830.800659,444
830.919006,462
831.037354,454
831.155701,480
831.274048,468
831.392395,470
831.51062,458
831.629028,464
831.747314,453
831.865662,474
831.984009,450
832.102356,481
832.220642,457
832.338928,463
832.457275,458
832.575623,462
832.693909,446
832.812134,462
832.930481,468
833.048828,466
833.167114,467
833.2854,464
833.403687,467
833.521973,452
833.640259,457
833.758545,470
833.876831,465
833.995056,458
834.113281,437
834.231628,458
834.349915,471
834.468201,470
834.586426,472
834.704651,461
834.822998,456
834.941162,468
835.059448,466
835.177673,453
835.295959,458
835.414246,457
835.53241,465
835.650635,466
835.768921,456
835.887146,495
836.005371,463
836.123596,475
836.241821,471
836.360046,450
836.478271,469
836.596497,470
836.714722,457
836.832886,459
836.95105,485
837.069336,482
837.1875,438
837.305725,465
837.423889,458
837.542053,465
837.660339,476
837.778503,491
837.896667,452
838.014832,485
838.132996,446
838.25116,474
838.369385,469
838.487488,458
838.605713,484
838.723877,476
838.84198,480
838.960205,471
839.078308,465
839.196472,477
839.314636,464
839.4328,455
839.550964,465
839.669067,477
839.787231,475
839.905396,484
840.023499,468
840.141602,478
840.259766,466
840.377869,464
840.495972,466
840.614136,486
840.732239,487
840.850342,480
840.968445,459
841.086548,488
841.204651,470
841.322754,479
841.440918,474
841.55896,466
841.677002,479
841.795166,488
841.913208,473
842.031311,472
842.149353,456
842.267456,481
842.385498,472
842.503601,489
842.621643,471
842.739746,495
842.857788,480
842.97583,474
843.093933,472
843.211975,472
843.330017,469
843.44812,477
843.566101,486
843.684204,462
843.802246,486
843.920227,491
844.038269,480
844.156311,460
844.274292,460
844.392395,468
844.510376,484
844.628357,495
844.74646,459
844.864441,467
844.982422,468
845.100403,492
845.218384,455
845.336426,489
845.454468,472
845.572449,468
845.69043,479
845.808411,441
845.926453,470
846.044373,459
846.162354,466
846.280396,484
846.398315,470
846.516296,464
846.634216,469
846.752197,468
846.870178,461
846.988098,488
847.106079,471
847.22406,463
847.34198,464
847.4599,477
847.577881,451
847.695801,476
847.813782,470
847.931641,466
848.049561,475
848.167603,472
848.285461,459
848.403381,475
848.521362,479
848.639221,465
848.75708,480
848.875,485
848.99292,458
849.110901,482
849.22876,465
849.34668,487
849.464539,469
849.582458,475
849.700317,472
849.818176,461
849.936096,468
850.053955,476
850.171875,461
850.289673,463
850.407593,451
850.525452,482
850.643311,479
850.761169,479
850.878967,462
850.996887,500
851.114746,475
851.232544,460
851.350403,465
851.468262,490
851.58606,474
851.703979,480
851.821777,481
851.939636,455
852.057434,467
852.175232,469
852.293091,477
852.410889,492
852.528687,494
852.646545,495
852.764343,487
852.88208,482
852.999939,482
853.117676,474
853.235535,470
853.353271,493
853.471069,483
853.588928,490
853.706604,478
853.824402,491
853.9422,464
854.059998,478
854.177734,482
854.295532,463
854.413269,462
854.531006,444
854.648804,453
854.766541,478
854.884277,479
855.002014,488
855.119751,453
855.237549,490
855.355225,477
855.473022,468
855.590698,470
855.708435,474
855.826172,471
855.943848,472
856.061646,470
856.179321,465
856.296997,451
856.414795,476
856.53241,465
856.650085,466
856.767822,458
856.885559,473
857.003174,494
857.120911,496
857.238586,488
857.356201,472
857.473938,469
857.591614,496
857.709351,474
857.826965,490
857.944641,481
858.062317,498
858.179993,456
858.297668,483
858.415283,463
858.532959,478
858.650574,475
858.768188,474
858.885803,475
859.003479,473
859.121094,455
859.23877,466
859.356384,458
859.473999,475
859.591675,487
859.709229,476
859.826843,469
859.944458,481
860.062012,459
860.179626,466
860.297302,470
860.414856,483
860.532471,470
860.650024,478
860.767639,477
860.885193,451
861.002808,475
861.120361,486
861.237976,459
861.35553,471
861.473022,448
861.590698,474
861.708191,456
861.825745,448
861.943298,458
862.060852,471
862.178406,474
862.295959,478
862.413513,460
862.531006,457
862.64856,454
862.766113,478
862.883667,452
863.00116,457
863.118713,462
863.236206,473
863.353699,469
863.471252,470
863.588745,463
863.706177,491
863.82373,474
863.941162,483
864.058716,476
864.176208,465
864.29364,455
864.411194,472
864.528687,464
864.646118,480
864.763611,471
864.881042,460
864.998535,448
865.116028,482
865.233459,472
865.350891,458
865.468384,455
865.585754,478
865.703308,473
865.820679,454
865.938171,474
866.055542,470
866.173035,461
866.290466,470
866.407837,455
866.52533,454
866.6427,479
866.760071,472
866.877563,452
866.994934,455
867.112305,439
867.229736,452
867.347107,470
867.464539,477
867.58197,473
867.699341,485
867.81665,477
867.934082,473
868.051453,480
868.168823,464
868.286194,464
868.403564,464
868.520935,458
868.638306,475
868.755676,482
868.872986,479
868.990295,473
869.107727,468
869.225037,470
869.342346,479
869.459717,466
869.577026,488
869.694336,484
869.811707,497
869.929016,476
870.046326,483
870.163635,487
870.280945,498
870.398254,503
870.515564,471
870.632812,475
870.750183,499
870.867432,472
870.984741,489
871.102051,463
871.219299,484
871.336609,480
871.453918,470
871.571106,482
871.688416,497
871.805664,484
871.922852,509
872.040222,480
872.157471,502
872.274719,491
872.391968,489
872.509155,491
872.626465,470
872.743652,486
872.860962,498
872.978149,482
873.095337,480
873.212646,480
873.329834,504
873.44696,489
873.564209,493
873.681396,483
873.798645,469
873.915894,466
874.03302,486
874.150208,467
874.267456,501
874.384583,475
874.501831,482
874.618958,496
874.736145,490
874.853333,487
874.970459,498
875.087646,494
875.204834,506
875.32196,494
875.439148,477
875.556274,470
875.673401,496
875.790527,458
875.907715,455
876.024841,463
876.141968,498
876.259094,470
876.376282,495
876.493347,480
876.610474,468
876.7276,467
876.844727,475
876.961853,476
877.078918,467
877.195984,468
877.313171,474
877.430237,470
877.547302,473
877.664368,463
877.781433,485
877.898499,482
878.015625,462
878.13269,440
878.249695,477
878.366821,487
878.483887,481
878.600952,476
878.717957,461
878.834961,460
878.952087,481
879.069092,467
879.186157,487
879.303162,478
879.420227,462
879.537231,465
879.654236,489
879.77124,467
879.888306,453
880.005249,471
880.122314,477
880.239319,459
880.356323,470
880.473328,461
880.590271,468
880.707275,465
880.824341,473
880.941284,472
881.058228,467
881.175232,464
881.292236,466
881.40918,455
881.526123,458
881.643066,453
881.760071,470
881.877014,459
881.993958,476
882.11084,454
882.227783,465
882.344727,468
882.46167,474
882.578613,452
882.695618,466
882.812439,449
882.929382,442
883.046326,475
883.163208,471
883.280151,468
883.397034,477
883.513916,484
883.630798,468
883.747742,470
883.864563,485
883.981506,467
884.098389,451
884.21521,479
884.332153,467
884.448975,471
884.565796,477
884.682678,506
884.7995,480
884.916443,505
885.033264,491
885.150085,491
885.266968,499
885.383789,499
885.500671,498
885.617493,516
885.734314,511
885.851196,525
885.967896,516
886.084717,508
886.201599,500
886.318359,504
886.435181,493
886.552002,523
886.668762,521
886.785645,501
886.902344,497
887.019165,505
887.135925,496
887.252747,495
887.369446,497
887.486267,491
887.603027,482
887.719788,494
887.836548,468
887.953247,482
888.070068,486
888.186829,483
888.303528,476
888.420288,468
888.536987,454
888.653687,477
888.770447,482
888.887146,471
889.003967,461
889.120667,454
889.237305,456
889.354065,454
889.470703,492
889.587463,469
889.704163,476
889.820862,461
889.937561,465
890.054199,458
890.170837,464
890.287598,456
890.404236,486
890.520874,458
890.637634,473
890.754211,462
890.87085,460
890.987549,479
891.104187,473
891.220886,481
891.337463,477
891.454102,456
891.57074,461
891.687378,457
891.804077,458
891.920654,462
892.037231,484
892.15387,463
892.270447,475
892.387085,452
892.503723,464
892.6203,463
892.736877,482
892.853516,456
892.970032,459
893.08667,448
893.203186,466
893.319763,454
893.43634,464
893.552917,448
893.669556,468
893.786011,470
893.902588,461
894.019165,468
894.135681,463
894.252197,452
894.368835,481
894.485291,470
894.601868,487
894.718384,485
894.8349,478
894.951355,470
895.067932,472
895.184448,460
895.300964,468
895.417419,462
895.533936,456
895.650452,485
895.766907,470
895.883423,451
895.999878,460
896.116333,472
896.232849,470
896.349304,447
896.465759,482
896.582214,459
896.698669,477
896.815125,469
896.931641,470
897.048035,462
897.164551,465
897.280884,453
897.397339,481
897.513794,454
897.630249,476
897.746582,451
897.863098,479
897.979431,467
898.095886,469
898.212341,482
898.328674,466
898.445129,474
898.561462,480
898.677795,442
898.794312,488
898.910645,460
899.026978,455
899.143433,459
899.259766,454
899.37616,482
899.492493,467
899.608765,462
899.725159,466
899.841553,448
899.957947,481
900.07428,478
900.190552,492
900.306946,467
900.423157,478
900.53949,457
900.655884,512
900.772156,469
900.888489,481
901.004822,461
901.121033,469
901.237366,453
901.353699,468
901.46991,467
901.586304,492
901.702515,462
901.818787,489
901.93512,474
902.051331,480
902.167603,475
902.283875,485
902.400085,467
902.516418,496
902.632629,506
902.74884,512
902.865112,513
902.981384,506
903.097595,491
903.213867,483
903.330017,490
903.446289,477
903.5625,464
903.67865,488
903.794922,486
903.911072,490
904.027344,470
904.143494,478
904.259705,492
904.375916,488
904.492065,475
904.608215,477
904.724426,489
904.840576,470
904.956726,475
905.072876,484
905.189087,471
905.305176,473
905.421387,478
905.537537,468
905.653687,467
905.769775,464
905.885925,461
906.002014,489
906.118164,484
906.234314,473
906.350403,471
906.466492,475
906.582642,485
906.69873,465
906.814758,460
906.930908,474
907.046936,479
907.163086,479
907.279175,487
907.395264,459
907.511353,486
907.62738,466
907.743408,456
907.859497,459
907.975525,467
908.091553,483
908.207703,455
908.32373,469
908.439758,468
908.555786,455
908.671814,459
908.787842,438
908.90387,486
909.019775,455
909.135864,455
909.251892,491
909.367859,491
909.483826,469
909.599854,486
909.715881,486
909.831848,471
909.947815,477
910.063782,488
910.179749,480
910.295776,478
910.411743,467
910.527649,454
910.643616,474
910.759583,482
910.875488,453
910.991455,478
911.107361,460
911.223267,450
911.339294,480
911.4552,472
911.571106,460
911.687073,465
911.802979,459
911.918823,460
912.034729,490
912.150635,461
912.266602,470
912.382446,473
912.498352,469
912.614197,470
912.730103,482
912.846008,456
792.44574,802
792.56488,815
792.68396,859
792.80304,813
792.92218,772
793.041199,720
793.160339,703
793.279419,734
793.398499,741
793.517578,715
793.636658,679
793.755737,699
793.874817,688
793.993896,705
794.112976,684
794.232056,667
794.351074,699
794.470215,667
794.589233,658
794.708313,650
794.827393,640
794.946411,646
795.065552,662
795.18457,636
795.303589,624
795.422668,628
795.541687,621
795.660767,621
795.779846,608
795.898865,614
796.017883,611
796.136963,610
796.255981,595
796.375061,591
796.49408,569
796.613037,581
796.732117,606
796.851135,600
796.970154,588
797.089233,598
797.208191,592
797.327271,599
797.446228,584
797.565186,593
797.684265,584
797.803223,573
797.922241,568
798.04126,584
798.160278,592
798.279297,574
798.398315,554
798.517273,570
798.636292,557
798.75531,546
798.874268,596
798.993286,542
799.112244,571
799.231323,554
799.350281,574
799.469238,572
799.588257,578
799.707153,568
799.826111,565
799.945129,576
800.064087,555
800.183044,586
800.302063,572
800.421021,532
800.539978,547
800.658936,562
800.777893,582
800.896912,557
801.015747,542
801.134705,545
801.253723,569
801.37262,552
801.491638,564
801.610535,544
801.729492,552
801.84845,552
801.967407,545
802.086243,542
802.205261,563
802.324158,559
802.443115,567
802.562073,543
802.680969,543
802.799927,566
802.918762,571
803.037659,554
803.156677,562
803.275574,527
803.39447,518
803.513428,548
803.632263,564
803.751221,526
803.870117,548
803.989014,537
804.107971,556
804.226746,550
804.345642,534
804.4646,551
804.583496,559
804.702393,536
804.821228,545
804.940125,542
805.059021,562
805.177917,547
805.296814,548
805.415649,537
805.534546,544
805.653442,534
805.772278,537
805.891113,552
806.01001,569
806.128906,528
806.247742,536
806.366577,542
806.485413,544
806.604309,553
806.723145,545
806.84198,544
806.960876,538
807.079712,535
807.198486,560
807.317383,532
807.436218,564
807.554993,557
807.673889,580
807.792725,534
807.91156,526
808.030396,542
808.14917,550
808.268005,545
808.386841,551
808.505676,512
808.624451,546
808.743286,516
808.862122,568
808.980896,537
809.099731,546
809.218506,531
809.337341,532
809.456116,563
809.57489,541
809.693726,552
809.8125,540
809.931274,541
810.050049,545
810.168884,553
810.287659,545
810.406372,543
810.525269,522
810.643982,536
810.762756,548
810.881531,531
811.000305,537
811.11908,536
811.237854,540
811.356567,559
811.475403,529
811.594116,523
811.71283,551
811.831604,551
811.950378,575
812.069153,533
812.187927,549
812.30658,533
812.425415,553
812.544128,546
812.662781,562
812.781616,569
812.900269,541
813.019043,545
813.137756,526
813.256531,552
813.375244,528
813.493896,533
813.612671,540
813.731384,556
813.850037,554
813.96875,536
814.087524,517
814.206238,553
814.324951,551
814.443604,534
814.562256,528
814.68103,510
814.799683,552
814.918335,543
815.037109,539
815.155762,540
815.274475,517
815.393188,533
815.511841,530
815.630554,541
815.749146,528
815.867859,530
815.986572,526
816.105164,531
816.223877,547
816.342529,531
816.461182,536
816.579895,539
816.698486,533
816.817139,542
816.935791,535
817.054504,532
817.173096,549
817.291748,519
817.4104,525
817.529053,520
817.647644,528
817.766235,548
817.884949,522
818.00354,503
818.122192,516
818.240845,495
818.359436,524
818.478088,509
818.59668,514
818.715271,490
818.833923,483
818.952515,499
819.071106,507
819.189758,475
819.30835,484
819.426941,488
819.545532,476
819.664124,496
819.782715,502
819.901306,489
820.019897,472
820.138489,488
820.25708,499
820.375671,500
820.494202,499
820.612732,484
820.731384,485
820.849915,485
820.968506,480
821.087097,474
821.205627,483
821.324158,477
821.442749,492
821.561279,460
821.679871,464
821.798401,465
821.916931,493
822.035461,481
822.154053,487
822.272583,482
822.391174,466
822.509583,495
822.628174,494
822.746704,460
822.865234,491
822.983765,474
823.102295,490
823.220825,475
823.339294,468
823.457825,473
823.576355,481
823.694824,481
823.813354,475
823.931885,497
824.050354,477
824.168884,486
824.287354,480
824.405823,466
824.524353,480
824.642822,484
824.761353,492
824.879822,485
824.998291,479
825.116699,473
825.235291,488
825.353699,473
825.472168,476
825.590637,469
825.709106,476
825.827576,484
825.946045,485
826.064453,482
826.182983,486
826.301392,445
826.4198,450
826.53833,486
826.656738,458
826.775208,491
826.893677,469
827.012024,465
827.130493,475
827.248962,471
827.36731,444
827.485779,464
827.604248,476
827.722595,454
827.841064,472
827.959412,470
828.077942,475
828.196289,449
828.314636,462
828.433105,448
828.551514,466
828.669861,455
828.78833,470
828.906677,466
829.025085,454
829.143433,458
829.261841,458
829.38031,469
829.498657,461
829.617004,461
829.735413,481
829.85376,452
829.972107,470
830.090515,446
830.208862,447
830.327209,461
830.445557,471
830.563904,428
830.682312,485
830.800659,469
830.919006,439
831.037354,461
831.155701,458
831.274048,468
831.392395,456
831.51062,458
831.629028,474
831.747314,489
831.865662,453
831.984009,461
832.102356,486
832.220642,468
832.338928,461
832.457275,470
832.575623,485
832.693909,440
832.812134,470
832.930481,486
833.048828,485
833.167114,489
833.2854,460
833.403687,461
833.521973,470
833.640259,461
833.758545,458
833.876831,471
833.995056,463
834.113281,471
834.231628,456
834.349915,446
834.468201,477
834.586426,461
834.704651,473
834.822998,450
834.941162,467
835.059448,460
835.177673,469
835.295959,473
835.414246,471
835.53241,455
835.650635,468
835.768921,471
835.887146,456
836.005371,465
836.123596,459
836.241821,456
836.360046,450
836.478271,486
836.596497,463
836.714722,453
836.832886,477
836.95105,453
837.069336,462
837.1875,473
837.305725,471
837.423889,476
837.542053,474
837.660339,479
837.778503,468
837.896667,465
838.014832,502
838.132996,490
838.25116,461
838.369385,476
838.487488,470
838.605713,469
838.723877,460
838.84198,484
838.960205,472
839.078308,465
839.196472,489
839.314636,489
839.4328,462
839.550964,471
839.669067,465
839.787231,469
839.905396,471
840.023499,472
840.141602,460
840.259766,465
840.377869,473
840.495972,466
840.614136,476
840.732239,484
840.850342,490
840.968445,496
841.086548,459
841.204651,487
841.322754,478
841.440918,477
841.55896,485
841.677002,488
841.795166,474
841.913208,477
842.031311,477
842.149353,462
842.267456,476
842.385498,474
842.503601,475
842.621643,475
842.739746,485
842.857788,467
842.97583,473
843.093933,468
843.211975,491
843.330017,475
843.44812,475
843.566101,496
843.684204,478
843.802246,482
843.920227,474
844.038269,475
844.156311,471
844.274292,471
844.392395,487
844.510376,478
844.628357,483
844.74646,461
844.864441,474
844.982422,466
845.100403,485
845.218384,460
845.336426,483
845.454468,461
845.572449,473
845.69043,461
845.808411,470
845.926453,466
846.044373,457
846.162354,486
846.280396,485
846.398315,454
846.516296,449
846.634216,460
846.752197,490
846.870178,470
846.988098,471
847.106079,463
847.22406,480
847.34198,476
847.4599,486
847.577881,477
847.695801,501
847.813782,451
847.931641,477
848.049561,473
848.167603,467
848.285461,476
848.403381,458
848.521362,475
848.639221,484
848.75708,464
848.875,478
848.99292,472
849.110901,478
849.22876,485
849.34668,473
849.464539,460
849.582458,485
849.700317,474
849.818176,467
849.936096,465
850.053955,487
850.171875,464
850.289673,470
850.407593,458
850.525452,464
850.643311,477
850.761169,482
850.878967,485
850.996887,480
851.114746,468
851.232544,509
851.350403,460
851.468262,470
851.58606,453
851.703979,467
851.821777,467
851.939636,490
852.057434,481
852.175232,491
852.293091,492
852.410889,484
852.528687,460
852.646545,489
852.764343,512
852.88208,482
852.999939,467
853.117676,488
853.235535,483
853.353271,488
853.471069,454
853.588928,483
853.706604,468
853.824402,490
853.9422,479
854.059998,479
854.177734,476
854.295532,500
854.413269,493
854.531006,470
854.648804,467
854.766541,485
854.884277,473
855.002014,495
855.119751,480
855.237549,484
855.355225,482
855.473022,475
855.590698,471
855.708435,452
855.826172,472
855.943848,475
856.061646,476
856.179321,485
856.296997,483
856.414795,500
856.53241,484
856.650085,475
856.767822,502
856.885559,483
857.003174,461
857.120911,498
857.238586,496
857.356201,456
857.473938,477
857.591614,489
857.709351,486
857.826965,473
857.944641,490
858.062317,488
858.179993,477
858.297668,489
858.415283,471
858.532959,480
858.650574,482
858.768188,483
858.885803,504
859.003479,494
859.121094,479
859.23877,474
859.356384,475
859.473999,472
859.591675,469
859.709229,492
859.826843,471
859.944458,478
860.062012,476
860.179626,489
860.297302,477
860.414856,488
860.532471,471
860.650024,476
860.767639,469
860.885193,471
861.002808,483
861.120361,469
861.237976,482
861.35553,484
861.473022,479
861.590698,487
861.708191,473
861.825745,484
861.943298,461
862.060852,482
862.178406,468
862.295959,490
862.413513,486
862.531006,453
862.64856,464
862.766113,478
862.883667,451
863.00116,476
863.118713,464
863.236206,457
863.353699,459
863.471252,465
863.588745,459
863.706177,462
863.82373,471
863.941162,447
864.058716,469
864.176208,470
864.29364,479
864.411194,474
864.528687,466
864.646118,491
864.763611,476
864.881042,459
864.998535,453
865.116028,482
865.233459,477
865.350891,485
865.468384,472
865.585754,464
865.703308,456
865.820679,485
865.938171,464
866.055542,478
866.173035,479
866.290466,472
866.407837,463
866.52533,481
866.6427,464
866.760071,477
866.877563,482
866.994934,464
867.112305,478
867.229736,465
867.347107,456
867.464539,468
867.58197,457
867.699341,479
867.81665,448
867.934082,477
868.051453,473
868.168823,463
868.286194,460
868.403564,482
868.520935,478
868.638306,475
868.755676,491
868.872986,470
868.990295,470
869.107727,477
869.225037,470
869.342346,478
869.459717,469
869.577026,461
869.694336,485
869.811707,483
869.929016,477
870.046326,488
870.163635,488
870.280945,474
870.398254,486
870.515564,479
870.632812,500
870.750183,495
870.867432,472
870.984741,484
871.102051,468
871.219299,498
871.336609,497
871.453918,494
871.571106,470
871.688416,487
871.805664,495
871.922852,494
872.040222,476
872.157471,491
872.274719,464
872.391968,495
872.509155,481
872.626465,491
872.743652,493
872.860962,487
872.978149,480
873.095337,485
873.212646,479
873.329834,464
873.44696,489
873.564209,484
873.681396,491
873.798645,486
873.915894,483
874.03302,495
874.150208,496
874.267456,472
874.384583,481
874.501831,525
874.618958,488
874.736145,518
874.853333,497
874.970459,504
875.087646,493
875.204834,495
875.32196,498
875.439148,492
875.556274,486
875.673401,470
875.790527,467
875.907715,481
876.024841,465
876.141968,482
876.259094,490
876.376282,489
876.493347,476
876.610474,488
876.7276,472
876.844727,473
876.961853,475
877.078918,474
877.195984,464
877.313171,485
877.430237,475
877.547302,501
877.664368,493
877.781433,460
877.898499,470
878.015625,479
878.13269,474
878.249695,487
878.366821,475
878.483887,480
878.600952,475
878.717957,458
878.834961,464
878.952087,468
879.069092,470
879.186157,477
879.303162,447
879.420227,491
879.537231,453
879.654236,498
879.77124,456
879.888306,455
880.005249,452
880.122314,470
880.239319,451
880.356323,471
880.473328,465
880.590271,454
880.707275,468
880.824341,485
880.941284,470
881.058228,458
881.175232,476
881.292236,475
881.40918,467
881.526123,475
881.643066,450
881.760071,461
881.877014,465
881.993958,473
882.11084,465
882.227783,451
882.344727,457
882.46167,470
882.578613,457
882.695618,463
882.812439,470
882.929382,477
883.046326,460
883.163208,483
883.280151,456
883.397034,474
883.513916,471
883.630798,497
883.747742,482
883.864563,474
883.981506,476
884.098389,463
884.21521,478
884.332153,469
884.448975,472
884.565796,481
884.682678,493
884.7995,492
884.916443,502
885.033264,505
885.150085,510
885.266968,527
885.383789,524
885.500671,536
885.617493,511
885.734314,518
885.851196,497
885.967896,534
886.084717,523
886.201599,509
886.318359,500
886.435181,517
886.552002,501
886.668762,497
886.785645,514
886.902344,488
887.019165,472
887.135925,520
887.252747,488
887.369446,500
887.486267,489
887.603027,493
887.719788,487
887.836548,473
887.953247,482
888.070068,482
888.186829,481
888.303528,479
888.420288,485
888.536987,488
888.653687,483
888.770447,461
888.887146,465
889.003967,472
889.120667,478
889.237305,470
889.354065,472
889.470703,473
889.587463,474
889.704163,471
889.820862,464
889.937561,490
890.054199,470
890.170837,458
890.287598,482
890.404236,471
890.520874,475
890.637634,465
890.754211,466
890.87085,472
890.987549,471
891.104187,460
891.220886,469
891.337463,481
891.454102,468
891.57074,499
891.687378,458
891.804077,485
891.920654,467
892.037231,468
892.15387,473
892.270447,475
892.387085,487
892.503723,481
892.6203,474
892.736877,482
892.853516,468
892.970032,462
893.08667,494
893.203186,470
893.319763,465
893.43634,451
893.552917,486
893.669556,481
893.786011,468
893.902588,470
894.019165,476
894.135681,467
894.252197,453
894.368835,462
894.485291,469
894.601868,453
894.718384,473
894.8349,475
894.951355,464
895.067932,475
895.184448,468
895.300964,460
895.417419,473
895.533936,451
895.650452,477
895.766907,473
895.883423,467
895.999878,460
896.116333,482
896.232849,464
896.349304,447
896.465759,475
896.582214,482
896.698669,482
896.815125,461
896.931641,475
897.048035,469
897.164551,464
897.280884,458
897.397339,449
897.513794,474
897.630249,475
897.746582,494
897.863098,468
897.979431,482
898.095886,473
898.212341,477
898.328674,468
898.445129,471
898.561462,475
898.677795,472
898.794312,486
898.910645,467
899.026978,493
899.143433,483
899.259766,464
899.37616,439
899.492493,475
899.608765,475
899.725159,467
899.841553,474
899.957947,467
900.07428,475
900.190552,484
900.306946,462
900.423157,477
900.53949,475
900.655884,491
900.772156,470
900.888489,471
901.004822,472
901.121033,484
901.237366,487
901.353699,464
901.46991,494
901.586304,482
901.702515,475
901.818787,483
901.93512,480
902.051331,492
902.167603,499
902.283875,504
902.400085,476
902.516418,496
902.632629,498
902.74884,517
902.865112,504
902.981384,521
903.097595,478
903.213867,510
903.330017,500
903.446289,490
903.5625,494
903.67865,497
903.794922,496
903.911072,485
904.027344,506
904.143494,499
904.259705,487
904.375916,495
904.492065,500
904.608215,500
904.724426,479
904.840576,487
904.956726,483
905.072876,473
905.189087,468
905.305176,493
905.421387,466
905.537537,509
905.653687,476
905.769775,475
905.885925,473
906.002014,476
906.118164,464
906.234314,494
906.350403,459
906.466492,487
906.582642,476
906.69873,486
906.814758,453
906.930908,473
907.046936,453
907.163086,463
907.279175,485
907.395264,502
907.511353,491
907.62738,466
907.743408,475
907.859497,468
907.975525,467
908.091553,493
908.207703,474
908.32373,465
908.439758,467
908.555786,485
908.671814,482
908.787842,485
908.90387,479
909.019775,474
909.135864,484
909.251892,468
909.367859,477
909.483826,475
909.599854,471
909.715881,480
909.831848,459
909.947815,470
910.063782,480
910.179749,477
910.295776,482
910.411743,471
910.527649,465
910.643616,488
910.759583,470
910.875488,495
910.991455,471
911.107361,479
911.223267,472
911.339294,473
911.4552,466
911.571106,468
911.687073,465
911.802979,452
911.918823,473
912.034729,474
912.150635,455
912.266602,479
912.382446,482
912.498352,475
912.614197,452
912.730103,460
912.846008,448
792.44574,782
792.56488,837
792.68396,855
792.80304,808
792.92218,773
793.041199,748
793.160339,718
793.279419,734
793.398499,740
793.517578,681
793.636658,711
793.755737,686
793.874817,705
793.993896,690
794.112976,701
794.232056,677
794.351074,665
794.470215,642
794.589233,641
794.708313,657
794.827393,647
794.946411,650
795.065552,652
795.18457,658
795.303589,643
795.422668,646
795.541687,639
795.660767,641
795.779846,612
795.898865,610
796.017883,629
796.136963,612
796.255981,610
796.375061,592
796.49408,621
796.613037,582
796.732117,601
796.851135,586
796.970154,604
797.089233,595
797.208191,606
797.327271,579
797.446228,605
797.565186,571
797.684265,590
797.803223,577
797.922241,588
798.04126,563
798.160278,596
798.279297,576
798.398315,568
798.517273,570
798.636292,558
798.75531,567
798.874268,581
798.993286,562
799.112244,582
799.231323,561
799.350281,554
799.469238,599
799.588257,560
799.707153,560
799.826111,568
799.945129,546
800.064087,566
800.183044,563
800.302063,564
800.421021,585
800.539978,534
800.658936,559
800.777893,551
800.896912,553
801.015747,558
801.134705,551
801.253723,584
801.37262,571
801.491638,569
801.610535,550
801.729492,552
801.84845,530
801.967407,582
802.086243,531
802.205261,564
802.324158,577
802.443115,543
802.562073,558
802.680969,563
802.799927,538
802.918762,534
803.037659,572
803.156677,545
803.275574,550
803.39447,555
803.513428,543
803.632263,574
803.751221,536
803.870117,558
803.989014,547
804.107971,556
804.226746,556
804.345642,556
804.4646,541
804.583496,543
804.702393,565
804.821228,566
804.940125,544
805.059021,554
805.177917,560
805.296814,546
805.415649,551
805.534546,541
805.653442,573
805.772278,548
805.891113,550
806.01001,555
806.128906,560
806.247742,559
806.366577,549
806.485413,541
806.604309,551
806.723145,559
806.84198,563
806.960876,550
807.079712,540
807.198486,546
807.317383,554
807.436218,532
807.554993,554
807.673889,534
807.792725,543
807.91156,545
808.030396,536
808.14917,544
808.268005,534
808.386841,540
808.505676,559
808.624451,543
808.743286,539
808.862122,566
808.980896,547
809.099731,560
809.218506,509
809.337341,542
809.456116,526
809.57489,537
809.693726,553
809.8125,551
809.931274,535
810.050049,542
810.168884,556
810.287659,547
810.406372,549
810.525269,552
810.643982,549
810.762756,561
810.881531,525
811.000305,544
811.11908,552
811.237854,535
811.356567,543
811.475403,516
811.594116,560
811.71283,568
811.831604,555
811.950378,543
812.069153,564
812.187927,545
812.30658,537
812.425415,571
812.544128,552
812.662781,554
812.781616,551
812.900269,554
813.019043,550
813.137756,559
813.256531,544
813.375244,524
813.493896,539
813.612671,548
813.731384,564
813.850037,539
813.96875,548
814.087524,511
814.206238,545
814.324951,532
814.443604,564
814.562256,528
814.68103,546
814.799683,547
814.918335,529
815.037109,549
815.155762,545
815.274475,539
815.393188,524
815.511841,529
815.630554,519
815.749146,526
815.867859,512
815.986572,551
816.105164,537
816.223877,546
816.342529,511
816.461182,533
816.579895,523
816.698486,533
816.817139,550
816.935791,546
817.054504,551
817.173096,528
817.291748,521
817.4104,545
817.529053,521
817.647644,526
817.766235,505
817.884949,536
818.00354,519
818.122192,520
818.240845,521
818.359436,533
818.478088,505
818.59668,537
818.715271,509
818.833923,503
818.952515,485
819.071106,502
819.189758,504
819.30835,489
819.426941,480
819.545532,482
819.664124,490
819.782715,479
819.901306,488
820.019897,506
820.138489,498
820.25708,482
820.375671,507
820.494202,487
820.612732,501
820.731384,482
820.849915,501
820.968506,501
821.087097,474
821.205627,478
821.324158,466
821.442749,492
821.561279,482
821.679871,462
821.798401,470
821.916931,490
822.035461,478
822.154053,492
822.272583,474
822.391174,494
822.509583,475
822.628174,466
822.746704,460
822.865234,484
822.983765,492
823.102295,463
823.220825,474
823.339294,476
823.457825,477
823.576355,491
823.694824,482
823.813354,492
823.931885,464
824.050354,474
824.168884,495
824.287354,473
824.405823,489
824.524353,501
824.642822,480
824.761353,479
824.879822,470
824.998291,473
825.116699,478
825.235291,474
825.353699,470
825.472168,453
825.590637,484
825.709106,462
825.827576,464
825.946045,472
826.064453,474
826.182983,474
826.301392,465
826.4198,485
826.53833,454
826.656738,465
826.775208,460
826.893677,464
827.012024,465
827.130493,466
827.248962,467
827.36731,468
827.485779,460
827.604248,479
827.722595,479
827.841064,461
827.959412,480
828.077942,465
828.196289,473
828.314636,446
828.433105,477
828.551514,466
828.669861,467
828.78833,484
828.906677,476
829.025085,453
829.143433,458
829.261841,455
829.38031,443
829.498657,459
829.617004,453
829.735413,480
829.85376,472
829.972107,458
830.090515,460
830.208862,483
830.327209,454
830.445557,456
830.563904,469
830.682312,487
830.800659,468
830.919006,462
831.037354,478
831.155701,460
831.274048,480
831.392395,464
831.51062,483
831.629028,467
831.747314,468
831.865662,466
831.984009,459
832.102356,486
832.220642,451
832.338928,481
832.457275,455
832.575623,470
832.693909,457
832.812134,478
832.930481,490
833.048828,459
833.167114,476
833.2854,487
833.403687,471
833.521973,463
833.640259,479
833.758545,470
833.876831,484
833.995056,490
834.113281,456
834.231628,474
834.349915,464
834.468201,470
834.586426,463
834.704651,488
834.822998,476
834.941162,470
835.059448,462
835.177673,484
835.295959,464
835.414246,483
835.53241,472
835.650635,462
835.768921,467
835.887146,451
836.005371,455
836.123596,480
836.241821,470
836.360046,476
836.478271,481
836.596497,468
836.714722,469
836.832886,471
836.95105,481
837.069336,476
837.1875,469
837.305725,456
837.423889,463
837.542053,494
837.660339,454
837.778503,484
837.896667,445
838.014832,473
838.132996,464
838.25116,473
838.369385,476
838.487488,496
838.605713,468
838.723877,483
838.84198,464
838.960205,468
839.078308,481
839.196472,461
839.314636,481
839.4328,462
839.550964,473
839.669067,468
839.787231,462
839.905396,482
840.023499,475
840.141602,491
840.259766,455
840.377869,471
840.495972,473
840.614136,485
840.732239,456
840.850342,470
840.968445,485
841.086548,471
841.204651,480
841.322754,472
841.440918,465
841.55896,469
841.677002,475
841.795166,482
841.913208,501
842.031311,466
842.149353,474
842.267456,504
842.385498,472
842.503601,481
842.621643,470
842.739746,467
842.857788,488
842.97583,478
843.093933,474
843.211975,475
843.330017,485
843.44812,492
843.566101,463
843.684204,476
843.802246,456
843.920227,490
844.038269,495
844.156311,493
844.274292,464
844.392395,481
844.510376,477
844.628357,468
844.74646,476
844.864441,476
844.982422,466
845.100403,475
845.218384,480
845.336426,454
845.454468,476
845.572449,473
845.69043,476
845.808411,483
845.926453,477
846.044373,475
846.162354,479
846.280396,479
846.398315,449
846.516296,462
846.634216,451
846.752197,459
846.870178,482
846.988098,471
847.106079,461
847.22406,482
847.34198,466
847.4599,468
847.577881,481
847.695801,455
847.813782,479
847.931641,462
848.049561,467
848.167603,481
848.285461,469
848.403381,472
848.521362,469
848.639221,466
848.75708,466
848.875,484
848.99292,479
849.110901,474
849.22876,485
849.34668,476
849.464539,478
849.582458,473
849.700317,485
849.818176,472
849.936096,449
850.053955,487
850.171875,472
850.289673,484
850.407593,457
850.525452,482
850.643311,487
850.761169,483
850.878967,470
850.996887,469
851.114746,484
851.232544,464
851.350403,474
851.468262,499
851.58606,455
851.703979,467
851.821777,509
851.939636,475
852.057434,462
852.175232,482
852.293091,488
852.410889,495
852.528687,471
852.646545,476
852.764343,496
852.88208,497
852.999939,502
853.117676,480
853.235535,479
853.353271,467
853.471069,488
853.588928,481
853.706604,486
853.824402,483
853.9422,492
854.059998,475
854.177734,484
854.295532,470
854.413269,482
854.531006,490
854.648804,480
854.766541,475
854.884277,478
855.002014,490
855.119751,474
855.237549,504
855.355225,474
855.473022,471
855.590698,464
855.708435,487
855.826172,484
855.943848,480
856.061646,485
856.179321,475
856.296997,466
856.414795,501
856.53241,481
856.650085,498
856.767822,480
856.885559,491
857.003174,496
857.120911,507
857.238586,478
857.356201,486
857.473938,484
857.591614,486
857.709351,487
857.826965,483
857.944641,470
858.062317,495
858.179993,495
858.297668,466
858.415283,468
858.532959,507
858.650574,489
858.768188,486
858.885803,487
859.003479,497
859.121094,479
859.23877,475
859.356384,483
859.473999,485
859.591675,469
859.709229,465
859.826843,483
859.944458,483
860.062012,474
860.179626,494
860.297302,476
860.414856,473
860.532471,479
860.650024,467
860.767639,474
860.885193,487
861.002808,465
861.120361,484
861.237976,474
861.35553,457
861.473022,473
861.590698,486
861.708191,473
861.825745,469
861.943298,475
862.060852,504
862.178406,476
862.295959,482
862.413513,467
862.531006,460
862.64856,451
862.766113,487
862.883667,469
863.00116,487
863.118713,461
863.236206,484
863.353699,472
863.471252,450
863.588745,457
863.706177,460
863.82373,458
863.941162,484
864.058716,490
864.176208,470
864.29364,487
864.411194,470
864.528687,485
864.646118,469
864.763611,472
864.881042,476
864.998535,450
865.116028,482
865.233459,461
865.350891,456
865.468384,474
865.585754,497
865.703308,469
865.820679,466
865.938171,439
866.055542,475
866.173035,476
866.290466,479
866.407837,469
866.52533,500
866.6427,475
866.760071,471
866.877563,497
866.994934,475
867.112305,485
867.229736,462
867.347107,474
867.464539,469
867.58197,490
867.699341,451
867.81665,465
867.934082,484
868.051453,465
868.168823,483
868.286194,482
868.403564,469
868.520935,470
868.638306,477
868.755676,488
868.872986,478
868.990295,485
869.107727,470
869.225037,473
869.342346,503
869.459717,486
869.577026,495
869.694336,467
869.811707,485
869.929016,501
870.046326,478
870.163635,480
870.280945,487
870.398254,483
870.515564,491
870.632812,473
870.750183,494
870.867432,479
870.984741,500
871.102051,479
871.219299,501
871.336609,496
871.453918,495
871.571106,497
871.688416,499
871.805664,491
871.922852,496
872.040222,495
872.157471,482
872.274719,480
872.391968,495
872.509155,488
872.626465,482
872.743652,498
872.860962,485
872.978149,499
873.095337,491
873.212646,464
873.329834,506
873.44696,476
873.564209,516
873.681396,479
873.798645,514
873.915894,501
874.03302,477
874.150208,486
874.267456,505
874.384583,487
874.501831,495
874.618958,483
874.736145,485
874.853333,485
874.970459,483
875.087646,500
875.204834,494
875.32196,502
875.439148,482
875.556274,477
875.673401,499
875.790527,470
875.907715,489
876.024841,467
876.141968,500
876.259094,483
876.376282,474
876.493347,469
876.610474,496
876.7276,493
876.844727,482
876.961853,483
877.078918,459
877.195984,469
877.313171,485
877.430237,479
877.547302,472
877.664368,486
877.781433,471
877.898499,464
878.015625,501
878.13269,473
878.249695,480
878.366821,469
878.483887,488
878.600952,469
878.717957,462
878.834961,467
878.952087,478
879.069092,465
879.186157,463
879.303162,476
879.420227,479
879.537231,469
879.654236,473
879.77124,466
879.888306,477
880.005249,472
880.122314,459
880.239319,473
880.356323,483
880.473328,470
880.590271,492
880.707275,462
880.824341,464
880.941284,459
881.058228,486
881.175232,461
881.292236,472
881.40918,463
881.526123,484
881.643066,456
881.760071,474
881.877014,456
881.993958,484
882.11084,476
882.227783,464
882.344727,466
882.46167,462
882.578613,469
882.695618,472
882.812439,481
882.929382,474
883.046326,444
883.163208,476
883.280151,475
883.397034,472
883.513916,483
883.630798,483
883.747742,482
883.864563,476
883.981506,471
884.098389,496
884.21521,472
884.332153,496
884.448975,474
884.565796,500
884.682678,490
884.7995,485
884.916443,500
885.033264,506
885.150085,506
885.266968,533
885.383789,514
885.500671,521
885.617493,548
885.734314,527
885.851196,518
885.967896,519
886.084717,534
886.201599,524
886.318359,517
886.435181,526
886.552002,527
886.668762,508
886.785645,524
886.902344,520
887.019165,507
887.135925,495
887.252747,483
887.369446,520
887.486267,499
887.603027,500
887.719788,493
887.836548,507
887.953247,480
888.070068,495
888.186829,495
888.303528,485
888.420288,480
888.536987,478
888.653687,473
888.770447,500
888.887146,479
889.003967,489
889.120667,471
889.237305,481
889.354065,465
889.470703,462
889.587463,472
889.704163,474
889.820862,457
889.937561,471
890.054199,447
890.170837,473
890.287598,463
890.404236,477
890.520874,459
890.637634,468
890.754211,479
890.87085,470
890.987549,463
891.104187,462
891.220886,481
891.337463,470
891.454102,480
891.57074,479
891.687378,461
891.804077,478
891.920654,474
892.037231,484
892.15387,460
892.270447,478
892.387085,475
892.503723,457
892.6203,470
892.736877,491
892.853516,465
892.970032,450
893.08667,474
893.203186,474
893.319763,470
893.43634,470
893.552917,468
893.669556,473
893.786011,460
893.902588,468
894.019165,468
894.135681,467
894.252197,480
894.368835,461
894.485291,479
894.601868,478
894.718384,478
894.8349,501
894.951355,471
895.067932,475
895.184448,458
895.300964,480
895.417419,480
895.533936,476
895.650452,471
895.766907,470
895.883423,471
895.999878,473
896.116333,477
896.232849,470
896.349304,490
896.465759,475
896.582214,465
896.698669,476
896.815125,455
896.931641,471
897.048035,455
897.164551,487
897.280884,466
897.397339,489
897.513794,474
897.630249,476
897.746582,465
897.863098,469
897.979431,466
898.095886,475
898.212341,475
898.328674,486
898.445129,471
898.561462,474
898.677795,471
898.794312,471
898.910645,471
899.026978,482
899.143433,484
899.259766,456
899.37616,472
899.492493,473
899.608765,485
899.725159,479
899.841553,481
899.957947,480
900.07428,464
900.190552,474
900.306946,453
900.423157,466
900.53949,489
900.655884,480
900.772156,485
900.888489,461
901.004822,473
901.121033,481
901.237366,457
901.353699,477
901.46991,493
901.586304,492
901.702515,479
901.818787,474
901.93512,478
902.051331,524
902.167603,485
902.283875,508
902.400085,497
902.516418,486
902.632629,511
902.74884,515
902.865112,497
902.981384,486
903.097595,518
903.213867,531
903.330017,502
903.446289,503
903.5625,513
903.67865,500
903.794922,487
903.911072,498
904.027344,478
904.143494,514
904.259705,497
904.375916,493
904.492065,481
904.608215,501
904.724426,470
904.840576,484
904.956726,479
905.072876,481
905.189087,499
905.305176,493
905.421387,497
905.537537,491
905.653687,468
905.769775,498
905.885925,473
906.002014,495
906.118164,494
906.234314,472
906.350403,483
906.466492,482
906.582642,477
906.69873,466
906.814758,480
906.930908,484
907.046936,473
907.163086,469
907.279175,481
907.395264,496
907.511353,472
907.62738,463
907.743408,465
907.859497,494
907.975525,460
908.091553,487
908.207703,474
908.32373,496
908.439758,474
908.555786,478
908.671814,477
908.787842,473
908.90387,471
909.019775,463
909.135864,459
909.251892,481
909.367859,475
909.483826,480
909.599854,473
909.715881,465
909.831848,476
909.947815,471
910.063782,473
910.179749,468
910.295776,459
910.411743,476
910.527649,453
910.643616,469
910.759583,462
910.875488,479
910.991455,473
911.107361,472
911.223267,483
911.339294,491
911.4552,461
911.571106,493
911.687073,474
911.802979,465
911.918823,461
912.034729,473
912.150635,482
912.266602,490
912.382446,479
912.498352,484
912.614197,467
912.730103,464
912.846008,466
