792.44574,527
792.56488,522
792.68396,600
792.80304,554
792.92218,524
793.041199,512
793.160339,516
793.279419,529
793.398499,519
793.517578,511
793.636658,512
793.755737,527
793.874817,527
793.993896,529
794.112976,521
794.232056,493
794.351074,490
794.470215,516
794.589233,518
794.708313,500
794.827393,511
794.946411,502
795.065552,514
795.18457,482
795.303589,500
795.422668,493
795.541687,512
795.660767,529
795.779846,487
795.898865,490
796.017883,491
796.136963,501
796.255981,502
796.375061,485
796.49408,489
796.613037,481
796.732117,500
796.851135,506
796.970154,503
797.089233,492
797.208191,484
797.327271,503
797.446228,504
797.565186,459
797.684265,479
797.803223,482
797.922241,479
798.04126,515
798.160278,489
798.279297,485
798.398315,475
798.517273,482
798.636292,500
798.75531,493
798.874268,461
798.993286,471
799.112244,467
799.231323,503
799.350281,495
799.469238,487
799.588257,483
799.707153,489
799.826111,495
799.945129,494
800.064087,507
800.183044,498
800.302063,503
800.421021,472
800.539978,484
800.658936,473
800.777893,481
800.896912,464
801.015747,474
801.134705,499
801.253723,469
801.37262,479
801.491638,503
801.610535,481
801.729492,484
801.84845,464
801.967407,486
802.086243,489
802.205261,492
802.324158,484
802.443115,477
802.562073,495
802.680969,481
802.799927,475
802.918762,473
803.037659,475
803.156677,496
803.275574,496
803.39447,458
803.513428,470
803.632263,490
803.751221,506
803.870117,482
803.989014,486
804.107971,479
804.226746,480
804.345642,475
804.4646,474
804.583496,490
804.702393,487
804.821228,472
804.940125,477
805.059021,479
805.177917,498
805.296814,480
805.415649,501
805.534546,486
805.653442,474
805.772278,495
805.891113,475
806.01001,481
806.128906,489
806.247742,483
806.366577,476
806.485413,476
806.604309,480
806.723145,476
806.84198,486
806.960876,470
807.079712,476
807.198486,469
807.317383,470
807.436218,480
807.554993,496
807.673889,493
807.792725,463
807.91156,485
808.030396,479
808.14917,476
808.268005,481
808.386841,474
808.505676,455
808.624451,493
808.743286,476
808.862122,483
808.980896,493
809.099731,484
809.218506,480
809.337341,477
809.456116,490
809.57489,477
809.693726,491
809.8125,481
809.931274,469
810.050049,478
810.168884,466
810.287659,459
810.406372,461
810.525269,476
810.643982,474
810.762756,489
810.881531,481
811.000305,496
811.11908,476
811.237854,460
811.356567,459
811.475403,487
811.594116,458
811.71283,478
811.831604,469
811.950378,464
812.069153,471
812.187927,482
812.30658,494
812.425415,495
812.544128,488
812.662781,494
812.781616,485
812.900269,475
813.019043,479
813.137756,472
813.256531,487
813.375244,471
813.493896,478
813.612671,494
813.731384,472
813.850037,497
813.96875,471
814.087524,474
814.206238,471
814.324951,488
814.443604,458
814.562256,476
814.68103,475
814.799683,462
814.918335,470
815.037109,487
815.155762,484
815.274475,481
815.393188,468
815.511841,489
815.630554,468
815.749146,483
815.867859,473
815.986572,472
816.105164,461
816.223877,487
816.342529,466
816.461182,456
816.579895,477
816.698486,460
816.817139,475
816.935791,478
817.054504,466
817.173096,482
817.291748,469
817.4104,493
817.529053,468
817.647644,480
817.766235,474
817.884949,470
818.00354,480
818.122192,473
818.240845,470
818.359436,471
818.478088,471
818.59668,482
818.715271,444
818.833923,460
818.952515,475
819.071106,465
819.189758,457
819.30835,456
819.426941,458
819.545532,482
819.664124,483
819.782715,465
819.901306,461
820.019897,448
820.138489,468
820.25708,463
820.375671,445
820.494202,467
820.612732,450
820.731384,461
820.849915,445
820.968506,476
821.087097,446
821.205627,439
821.324158,443
821.442749,480
821.561279,435
821.679871,459
821.798401,440
821.916931,455
822.035461,467
822.154053,465
822.272583,455
822.391174,460
822.509583,446
822.628174,454
822.746704,458
822.865234,446
822.983765,435
823.102295,457
823.220825,451
823.339294,441
823.457825,437
823.576355,470
823.694824,459
823.813354,449
823.931885,442
824.050354,457
824.168884,457
824.287354,472
824.405823,448
824.524353,448
824.642822,455
824.761353,441
824.879822,452
824.998291,454
825.116699,444
825.235291,468
825.353699,433
825.472168,448
825.590637,438
825.709106,467
825.827576,451
825.946045,434
826.064453,443
826.182983,449
826.301392,458
826.4198,439
826.53833,451
826.656738,432
826.775208,444
826.893677,457
827.012024,457
827.130493,445
827.248962,449
827.36731,448
827.485779,446
827.604248,442
827.722595,456
827.841064,449
827.959412,456
828.077942,436
828.196289,429
828.314636,456
828.433105,434
828.551514,450
828.669861,457
828.78833,423
828.906677,448
829.025085,436
829.143433,455
829.261841,436
829.38031,449
829.498657,459
829.617004,444
829.735413,446
829.85376,452
829.972107,452
830.090515,454
830.208862,451
830.327209,435
830.445557,437
830.563904,432
830.682312,457
830.800659,450
830.919006,441
831.037354,446
831.155701,468
831.274048,452
831.392395,437
831.51062,452
831.629028,456
831.747314,426
831.865662,454
831.984009,457
832.102356,453
832.220642,433
832.338928,444
832.457275,440
832.575623,459
832.693909,460
832.812134,437
832.930481,457
833.048828,440
833.167114,445
833.2854,439
833.403687,445
833.521973,447
833.640259,445
833.758545,470
833.876831,440
833.995056,457
834.113281,437
834.231628,459
834.349915,442
834.468201,443
834.586426,442
834.704651,455
834.822998,431
834.941162,453
835.059448,438
835.177673,448
835.295959,451
835.414246,438
835.53241,467
835.650635,442
835.768921,448
835.887146,454
836.005371,448
836.123596,454
836.241821,433
836.360046,434
836.478271,443
836.596497,459
836.714722,428
836.832886,455
836.95105,425
837.069336,439
837.1875,461
837.305725,445
837.423889,432
837.542053,452
837.660339,423
837.778503,460
837.896667,445
838.014832,455
838.132996,454
838.25116,446
838.369385,461
838.487488,445
838.605713,446
838.723877,435
838.84198,446
838.960205,442
839.078308,451
839.196472,441
839.314636,454
839.4328,427
839.550964,457
839.669067,429
839.787231,444
839.905396,460
840.023499,440
840.141602,438
840.259766,432
840.377869,447
840.495972,437
840.614136,460
840.732239,437
840.850342,430
840.968445,432
841.086548,451
841.204651,449
841.322754,447
841.440918,454
841.55896,450
841.677002,431
841.795166,460
841.913208,435
842.031311,458
842.149353,453
842.267456,449
842.385498,432
842.503601,445
842.621643,431
842.739746,456
842.857788,435
842.97583,449
843.093933,434
843.211975,449
843.330017,445
843.44812,452
843.566101,429
843.684204,439
843.802246,457
843.920227,463
844.038269,448
844.156311,439
844.274292,451
844.392395,424
844.510376,440
844.628357,468
844.74646,458
844.864441,476
844.982422,456
845.100403,449
845.218384,455
845.336426,446
845.454468,429
845.572449,449
845.69043,445
845.808411,456
845.926453,437
846.044373,446
846.162354,435
846.280396,423
846.398315,434
846.516296,440
846.634216,442
846.752197,435
846.870178,449
846.988098,440
847.106079,433
847.22406,443
847.34198,432
847.4599,437
847.577881,433
847.695801,442
847.813782,462
847.931641,431
848.049561,434
848.167603,453
848.285461,425
848.403381,468
848.521362,437
848.639221,443
848.75708,433
848.875,445
848.99292,449
849.110901,463
849.22876,434
849.34668,443
849.464539,457
849.582458,450
849.700317,448
849.818176,447
849.936096,441
850.053955,454
850.171875,429
850.289673,450
850.407593,428
850.525452,431
850.643311,459
850.761169,446
850.878967,455
850.996887,466
851.114746,443
851.232544,430
851.350403,433
851.468262,457
851.58606,437
851.703979,432
851.821777,439
851.939636,464
852.057434,449
852.175232,458
852.293091,429
852.410889,457
852.528687,432
852.646545,435
852.764343,443
852.88208,457
852.999939,445
853.117676,447
853.235535,439
853.353271,432
853.471069,444
853.588928,437
853.706604,462
853.824402,440
853.9422,427
854.059998,449
854.177734,435
854.295532,437
854.413269,452
854.531006,462
854.648804,472
854.766541,467
854.884277,449
855.002014,447
855.119751,431
855.237549,462
855.355225,455
855.473022,446
855.590698,441
855.708435,452
855.826172,446
855.943848,454
856.061646,432
856.179321,448
856.296997,448
856.414795,450
856.53241,431
856.650085,460
856.767822,458
856.885559,445
857.003174,445
857.120911,456
857.238586,457
857.356201,444
857.473938,448
857.591614,440
857.709351,440
857.826965,446
857.944641,454
858.062317,449
858.179993,452
858.297668,454
858.415283,433
858.532959,431
858.650574,427
858.768188,458
858.885803,453
859.003479,458
859.121094,446
859.23877,448
859.356384,444
859.473999,451
859.591675,447
859.709229,450
859.826843,444
859.944458,460
860.062012,426
860.179626,441
860.297302,450
860.414856,447
860.532471,447
860.650024,444
860.767639,433
860.885193,428
861.002808,422
861.120361,439
861.237976,436
861.35553,464
861.473022,447
861.590698,455
861.708191,463
861.825745,439
861.943298,437
862.060852,463
862.178406,442
862.295959,442
862.413513,446
862.531006,419
862.64856,461
862.766113,460
862.883667,441
863.00116,439
863.118713,431
863.236206,456
863.353699,442
863.471252,439
863.588745,420
863.706177,466
863.82373,453
863.941162,443
864.058716,440
864.176208,449
864.29364,443
864.411194,435
864.528687,444
864.646118,442
864.763611,440
864.881042,449
864.998535,455
865.116028,440
865.233459,448
865.350891,442
865.468384,441
865.585754,462
865.703308,441
865.820679,449
865.938171,433
866.055542,457
866.173035,436
866.290466,454
866.407837,443
866.52533,444
866.6427,425
866.760071,455
866.877563,444
866.994934,450
867.112305,437
867.229736,452
867.347107,449
867.464539,453
867.58197,439
867.699341,477
867.81665,443
867.934082,466
868.051453,443
868.168823,457
868.286194,450
868.403564,445
868.520935,451
868.638306,435
868.755676,468
868.872986,455
868.990295,455
869.107727,450
869.225037,443
869.342346,462
869.459717,442
869.577026,438
869.694336,458
869.811707,461
869.929016,440
870.046326,452
870.163635,430
870.280945,451
870.398254,439
870.515564,445
870.632812,439
870.750183,455
870.867432,448
870.984741,444
871.102051,447
871.219299,434
871.336609,439
871.453918,462
871.571106,449
871.688416,441
871.805664,452
871.922852,455
872.040222,454
872.157471,444
872.274719,443
872.391968,451
872.509155,452
872.626465,464
872.743652,456
872.860962,436
872.978149,437
873.095337,450
873.212646,466
873.329834,448
873.44696,455
873.564209,464
873.681396,443
873.798645,456
873.915894,451
874.03302,441
874.150208,448
874.267456,452
874.384583,433
874.501831,456
874.618958,451
874.736145,457
874.853333,447
874.970459,464
875.087646,448
875.204834,477
875.32196,449
875.439148,460
875.556274,449
875.673401,472
875.790527,455
875.907715,436
876.024841,445
876.141968,442
876.259094,459
876.376282,455
876.493347,449
876.610474,442
876.7276,438
876.844727,473
876.961853,446
877.078918,458
877.195984,466
877.313171,466
877.430237,462
877.547302,447
877.664368,445
877.781433,441
877.898499,442
878.015625,444
878.13269,444
878.249695,441
878.366821,474
878.483887,450
878.600952,441
878.717957,440
878.834961,444
878.952087,459
879.069092,454
879.186157,433
879.303162,453
879.420227,439
879.537231,445
879.654236,457
879.77124,427
879.888306,467
880.005249,445
880.122314,445
880.239319,465
880.356323,449
880.473328,448
880.590271,463
880.707275,431
880.824341,446
880.941284,454
881.058228,446
881.175232,442
881.292236,462
881.40918,451
881.526123,451
881.643066,432
881.760071,453
881.877014,442
881.993958,465
882.11084,441
882.227783,454
882.344727,453
882.46167,440
882.578613,433
882.695618,450
882.812439,449
882.929382,463
883.046326,445
883.163208,449
883.280151,453
883.397034,444
883.513916,454
883.630798,437
883.747742,438
883.864563,467
883.981506,447
884.098389,464
884.21521,442
884.332153,463
884.448975,450
884.565796,456
884.682678,447
884.7995,475
884.916443,442
885.033264,463
885.150085,446
885.266968,444
885.383789,475
885.500671,446
885.617493,468
885.734314,471
885.851196,470
885.967896,449
886.084717,462
886.201599,453
886.318359,449
886.435181,459
886.552002,449
886.668762,458
886.785645,462
886.902344,444
887.019165,440
887.135925,458
887.252747,461
887.369446,458
887.486267,458
887.603027,458
887.719788,455
887.836548,456
887.953247,452
888.070068,452
888.186829,449
888.303528,471
888.420288,456
888.536987,456
888.653687,437
888.770447,465
888.887146,463
889.003967,469
889.120667,459
889.237305,451
889.354065,447
889.470703,472
889.587463,455
889.704163,459
889.820862,433
889.937561,456
890.054199,442
890.170837,462
890.287598,447
890.404236,458
890.520874,456
890.637634,461
890.754211,458
890.87085,445
890.987549,449
891.104187,466
891.220886,473
891.337463,456
891.454102,455
891.57074,455
891.687378,454
891.804077,445
891.920654,446
892.037231,451
892.15387,454
892.270447,453
892.387085,450
892.503723,440
892.6203,446
892.736877,458
892.853516,472
892.970032,440
893.08667,447
893.203186,450
893.319763,465
893.43634,432
893.552917,455
893.669556,449
893.786011,457
893.902588,472
894.019165,449
894.135681,457
894.252197,471
894.368835,477
894.485291,460
894.601868,454
894.718384,453
894.8349,467
894.951355,465
895.067932,461
895.184448,453
895.300964,460
895.417419,454
895.533936,447
895.650452,456
895.766907,461
895.883423,469
895.999878,458
896.116333,463
896.232849,460
896.349304,440
896.465759,458
896.582214,454
896.698669,452
896.815125,450
896.931641,456
897.048035,436
897.164551,448
897.280884,452
897.397339,478
897.513794,444
897.630249,457
897.746582,434
897.863098,464
897.979431,458
898.095886,443
898.212341,468
898.328674,454
898.445129,461
898.561462,463
898.677795,453
898.794312,465
898.910645,456
899.026978,451
899.143433,467
899.259766,451
899.37616,439
899.492493,473
899.608765,461
899.725159,465
899.841553,456
899.957947,454
900.07428,455
900.190552,465
900.306946,472
900.423157,465
900.53949,466
900.655884,456
900.772156,466
900.888489,469
901.004822,451
901.121033,463
901.237366,463
901.353699,453
901.46991,472
901.586304,451
901.702515,463
901.818787,470
901.93512,450
902.051331,459
902.167603,466
902.283875,448
902.400085,457
902.516418,477
902.632629,452
902.74884,460
902.865112,448
902.981384,472
903.097595,458
903.213867,459
903.330017,472
903.446289,475
903.5625,469
903.67865,468
903.794922,445
903.911072,456
904.027344,453
904.143494,469
904.259705,472
904.375916,479
904.492065,458
904.608215,445
904.724426,440
904.840576,460
904.956726,456
905.072876,458
905.189087,446
905.305176,473
905.421387,449
905.537537,469
905.653687,471
905.769775,476
905.885925,471
906.002014,469
906.118164,443
906.234314,468
906.350403,464
906.466492,453
906.582642,450
906.69873,465
906.814758,458
906.930908,474
907.046936,459
907.163086,445
907.279175,466
907.395264,460
907.511353,472
907.62738,469
907.743408,454
907.859497,468
907.975525,453
908.091553,467
908.207703,458
908.32373,458
908.439758,456
908.555786,467
908.671814,451
908.787842,447
908.90387,471
909.019775,467
909.135864,469
909.251892,463
909.367859,469
909.483826,455
909.599854,451
909.715881,479
909.831848,459
909.947815,458
910.063782,460
910.179749,460
910.295776,463
910.411743,485
910.527649,462
910.643616,466
910.759583,449
910.875488,458
910.991455,462
911.107361,466
911.223267,465
911.339294,453
911.4552,448
911.571106,472
911.687073,459
911.802979,466
911.918823,455
912.034729,462
912.150635,475
912.266602,466
912.382446,458
912.498352,461
912.614197,469
912.730103,476
912.846008,457
792.44574,518
792.56488,538
792.68396,597
792.80304,564
792.92218,526
793.041199,515
793.160339,527
793.279419,522
793.398499,512
793.517578,496
793.636658,509
793.755737,517
793.874817,525
793.993896,554
794.112976,504
794.232056,512
794.351074,500
794.470215,528
794.589233,507
794.708313,495
794.827393,491
794.946411,478
795.065552,500
795.18457,520
795.303589,489
795.422668,505
795.541687,503
795.660767,489
795.779846,495
795.898865,489
796.017883,497
796.136963,496
796.255981,482
796.375061,494
796.49408,505
796.613037,484
796.732117,494
796.851135,492
796.970154,493
797.089233,507
797.208191,477
797.327271,490
797.446228,476
797.565186,510
797.684265,488
797.803223,490
797.922241,481
798.04126,494
798.160278,492
798.279297,484
798.398315,485
798.517273,488
798.636292,474
798.75531,490
798.874268,466
798.993286,496
799.112244,499
799.231323,487
799.350281,507
799.469238,466
799.588257,490
799.707153,484
799.826111,482
799.945129,478
800.064087,478
800.183044,475
800.302063,496
800.421021,497
800.539978,483
800.658936,487
800.777893,479
800.896912,483
801.015747,484
801.134705,484
801.253723,479
801.37262,476
801.491638,476
801.610535,467
801.729492,486
801.84845,490
801.967407,473
802.086243,504
802.205261,476
802.324158,472
802.443115,493
802.562073,477
802.680969,463
802.799927,509
802.918762,465
803.037659,491
803.156677,486
803.275574,497
803.39447,478
803.513428,487
803.632263,476
803.751221,474
803.870117,478
803.989014,470
804.107971,479
804.226746,482
804.345642,497
804.4646,460
804.583496,472
804.702393,493
804.821228,488
804.940125,491
805.059021,462
805.177917,505
805.296814,485
805.415649,506
805.534546,483
805.653442,482
805.772278,499
805.891113,471
806.01001,493
806.128906,480
806.247742,496
806.366577,486
806.485413,483
806.604309,487
806.723145,474
806.84198,478
806.960876,474
807.079712,475
807.198486,487
807.317383,488
807.436218,489
807.554993,475
807.673889,473
807.792725,477
807.91156,484
808.030396,500
808.14917,479
808.268005,473
808.386841,486
808.505676,467
808.624451,489
808.743286,488
808.862122,472
808.980896,492
809.099731,480
809.218506,494
809.337341,482
809.456116,477
809.57489,457
809.693726,486
809.8125,494
809.931274,460
810.050049,495
810.168884,495
810.287659,474
810.406372,482
810.525269,494
810.643982,462
810.762756,487
810.881531,483
811.000305,447
811.11908,480
811.237854,487
811.356567,464
811.475403,482
811.594116,472
811.71283,490
811.831604,494
811.950378,496
812.069153,466
812.187927,485
812.30658,481
812.425415,489
812.544128,477
812.662781,458
812.781616,487
812.900269,477
813.019043,469
813.137756,506
813.256531,483
813.375244,463
813.493896,484
813.612671,482
813.731384,477
813.850037,481
813.96875,483
814.087524,481
814.206238,483
814.324951,469
814.443604,484
814.562256,491
814.68103,485
814.799683,448
814.918335,481
815.037109,482
815.155762,498
815.274475,469
815.393188,463
815.511841,463
815.630554,480
815.749146,468
815.867859,485
815.986572,494
816.105164,487
816.223877,481
816.342529,470
816.461182,468
816.579895,491
816.698486,471
816.817139,493
816.935791,492
817.054504,475
817.173096,485
817.291748,464
817.4104,493
817.529053,457
817.647644,466
817.766235,469
817.884949,463
818.00354,486
818.122192,474
818.240845,464
818.359436,466
818.478088,468
818.59668,485
818.715271,466
818.833923,446
818.952515,466
819.071106,444
819.189758,469
819.30835,459
819.426941,477
819.545532,470
819.664124,457
819.782715,469
819.901306,430
820.019897,469
820.138489,454
820.25708,461
820.375671,449
820.494202,451
820.612732,458
820.731384,448
820.849915,455
820.968506,460
821.087097,458
821.205627,456
821.324158,445
821.442749,460
821.561279,472
821.679871,462
821.798401,455
821.916931,448
822.035461,451
822.154053,459
822.272583,445
822.391174,467
822.509583,454
822.628174,457
822.746704,436
822.865234,445
822.983765,455
823.102295,463
823.220825,460
823.339294,468
823.457825,473
823.576355,459
823.694824,440
823.813354,454
823.931885,465
824.050354,455
824.168884,450
824.287354,469
824.405823,455
824.524353,459
824.642822,463
824.761353,448
824.879822,453
824.998291,469
825.116699,448
825.235291,445
825.353699,454
825.472168,447
825.590637,446
825.709106,455
825.827576,453
825.946045,454
826.064453,452
826.182983,433
826.301392,468
826.4198,465
826.53833,468
826.656738,439
826.775208,460
826.893677,449
827.012024,443
827.130493,468
827.248962,440
827.36731,459
827.485779,449
827.604248,466
827.722595,444
827.841064,451
827.959412,434
828.077942,435
828.196289,449
828.314636,449
828.433105,432
828.551514,448
828.669861,439
828.78833,450
828.906677,454
829.025085,445
829.143433,454
829.261841,454
829.38031,442
829.498657,448
829.617004,435
829.735413,446
829.85376,465
829.972107,452
830.090515,449
830.208862,448
830.327209,458
830.445557,469
830.563904,453
830.682312,475
830.800659,441
830.919006,446
831.037354,450
831.155701,441
831.274048,444
831.392395,435
831.51062,451
831.629028,462
831.747314,449
831.865662,437
831.984009,446
832.102356,453
832.220642,450
832.338928,461
832.457275,448
832.575623,439
832.693909,432
832.812134,443
832.930481,438
833.048828,450
833.167114,435
833.2854,467
833.403687,471
833.521973,456
833.640259,422
833.758545,454
833.876831,445
833.995056,461
834.113281,435
834.231628,427
834.349915,443
834.468201,434
834.586426,454
834.704651,451
834.822998,446
834.941162,433
835.059448,428
835.177673,438
835.295959,455
835.414246,441
835.53241,454
835.650635,452
835.768921,435
835.887146,443
836.005371,447
836.123596,454
836.241821,443
836.360046,443
836.478271,458
836.596497,456
836.714722,439
836.832886,423
836.95105,455
837.069336,459
837.1875,456
837.305725,450
837.423889,455
837.542053,447
837.660339,474
837.778503,463
837.896667,443
838.014832,455
838.132996,456
838.25116,448
838.369385,451
838.487488,442
838.605713,455
838.723877,444
838.84198,416
838.960205,425
839.078308,451
839.196472,432
839.314636,476
839.4328,448
839.550964,441
839.669067,458
839.787231,451
839.905396,445
840.023499,450
840.141602,447
840.259766,459
840.377869,445
840.495972,441
840.614136,448
840.732239,452
840.850342,437
840.968445,449
841.086548,438
841.204651,443
841.322754,436
841.440918,460
841.55896,432
841.677002,445
841.795166,451
841.913208,457
842.031311,444
842.149353,458
842.267456,438
842.385498,444
842.503601,440
842.621643,440
842.739746,452
842.857788,443
842.97583,447
843.093933,440
843.211975,452
843.330017,427
843.44812,452
843.566101,447
843.684204,443
843.802246,447
843.920227,445
844.038269,457
844.156311,456
844.274292,434
844.392395,435
844.510376,435
844.628357,437
844.74646,453
844.864441,438
844.982422,438
845.100403,431
845.218384,453
845.336426,416
845.454468,428
845.572449,453
845.69043,435
845.808411,449
845.926453,451
846.044373,443
846.162354,437
846.280396,449
846.398315,451
846.516296,436
846.634216,429
846.752197,451
846.870178,445
846.988098,448
847.106079,438
847.22406,455
847.34198,452
847.4599,462
847.577881,441
847.695801,436
847.813782,451
847.931641,428
848.049561,441
848.167603,446
848.285461,447
848.403381,446
848.521362,450
848.639221,444
848.75708,445
848.875,456
848.99292,456
849.110901,462
849.22876,458
849.34668,441
849.464539,457
849.582458,450
849.700317,439
849.818176,465
849.936096,434
850.053955,452
850.171875,450
850.289673,443
850.407593,444
850.525452,436
850.643311,437
850.761169,442
850.878967,459
850.996887,450
851.114746,437
851.232544,447
851.350403,434
851.468262,445
851.58606,440
851.703979,427
851.821777,431
851.939636,446
852.057434,444
852.175232,457
852.293091,456
852.410889,433
852.528687,453
852.646545,450
852.764343,457
852.88208,430
852.999939,470
853.117676,455
853.235535,447
853.353271,432
853.471069,451
853.588928,454
853.706604,434
853.824402,434
853.9422,441
854.059998,443
854.177734,448
854.295532,444
854.413269,444
854.531006,442
854.648804,468
854.766541,444
854.884277,441
855.002014,435
855.119751,446
855.237549,448
855.355225,449
855.473022,458
855.590698,443
855.708435,452
855.826172,441
855.943848,438
856.061646,457
856.179321,435
856.296997,426
856.414795,456
856.53241,450
856.650085,431
856.767822,435
856.885559,430
857.003174,453
857.120911,451
857.238586,434
857.356201,431
857.473938,449
857.591614,438
857.709351,456
857.826965,433
857.944641,452
858.062317,438
858.179993,451
858.297668,466
858.415283,444
858.532959,460
858.650574,443
858.768188,422
858.885803,450
859.003479,437
859.121094,440
859.23877,444
859.356384,449
859.473999,459
859.591675,448
859.709229,460
859.826843,442
859.944458,446
860.062012,462
860.179626,435
860.297302,449
860.414856,438
860.532471,448
860.650024,446
860.767639,414
860.885193,449
861.002808,446
861.120361,450
861.237976,476
861.35553,444
861.473022,451
861.590698,433
861.708191,453
861.825745,442
861.943298,449
862.060852,455
862.178406,447
862.295959,434
862.413513,448
862.531006,449
862.64856,452
862.766113,448
862.883667,454
863.00116,450
863.118713,450
863.236206,452
863.353699,432
863.471252,459
863.588745,435
863.706177,434
863.82373,449
863.941162,440
864.058716,439
864.176208,460
864.29364,466
864.411194,430
864.528687,443
864.646118,453
864.763611,473
864.881042,439
864.998535,456
865.116028,452
865.233459,457
865.350891,451
865.468384,430
865.585754,449
865.703308,441
865.820679,438
865.938171,444
866.055542,454
866.173035,437
866.290466,441
866.407837,451
866.52533,442
866.6427,452
866.760071,461
866.877563,446
866.994934,446
867.112305,449
867.229736,447
867.347107,446
867.464539,452
867.58197,480
867.699341,434
867.81665,457
867.934082,451
868.051453,444
868.168823,462
868.286194,442
868.403564,457
868.520935,436
868.638306,438
868.755676,465
868.872986,444
868.990295,449
869.107727,458
869.225037,466
869.342346,446
869.459717,442
869.577026,460
869.694336,471
869.811707,441
869.929016,474
870.046326,447
870.163635,467
870.280945,456
870.398254,449
870.515564,448
870.632812,444
870.750183,455
870.867432,452
870.984741,445
871.102051,452
871.219299,445
871.336609,444
871.453918,460
871.571106,445
871.688416,450
871.805664,453
871.922852,464
872.040222,437
872.157471,439
872.274719,441
872.391968,467
872.509155,454
872.626465,462
872.743652,464
872.860962,455
872.978149,452
873.095337,439
873.212646,461
873.329834,470
873.44696,442
873.564209,433
873.681396,455
873.798645,448
873.915894,431
874.03302,457
874.150208,451
874.267456,442
874.384583,458
874.501831,448
874.618958,444
874.736145,452
874.853333,456
874.970459,447
875.087646,471
875.204834,456
875.32196,469
875.439148,426
875.556274,465
875.673401,439
875.790527,463
875.907715,447
876.024841,444
876.141968,453
876.259094,459
876.376282,436
876.493347,464
876.610474,446
876.7276,429
876.844727,444
876.961853,454
877.078918,453
877.195984,476
877.313171,466
877.430237,448
877.547302,446
877.664368,474
877.781433,447
877.898499,440
878.015625,446
878.13269,466
878.249695,448
878.366821,456
878.483887,454
878.600952,458
878.717957,439
878.834961,452
878.952087,446
879.069092,443
879.186157,434
879.303162,462
879.420227,438
879.537231,448
879.654236,458
879.77124,449
879.888306,465
880.005249,461
880.122314,451
880.239319,446
880.356323,451
880.473328,455
880.590271,451
880.707275,459
880.824341,436
880.941284,446
881.058228,454
881.175232,449
881.292236,450
881.40918,467
881.526123,440
881.643066,440
881.760071,439
881.877014,471
881.993958,458
882.11084,459
882.227783,461
882.344727,445
882.46167,437
882.578613,447
882.695618,437
882.812439,460
882.929382,457
883.046326,436
883.163208,445
883.280151,444
883.397034,461
883.513916,459
883.630798,446
883.747742,466
883.864563,431
883.981506,447
884.098389,450
884.21521,459
884.332153,453
884.448975,460
884.565796,441
884.682678,453
884.7995,460
884.916443,467
885.033264,451
885.150085,463
885.266968,464
885.383789,438
885.500671,452
885.617493,456
885.734314,467
885.851196,475
885.967896,438
886.084717,448
886.201599,462
886.318359,461
886.435181,469
886.552002,466
886.668762,469
886.785645,450
886.902344,458
887.019165,450
887.135925,456
887.252747,457
887.369446,459
887.486267,443
887.603027,456
887.719788,464
887.836548,466
887.953247,459
888.070068,466
888.186829,461
888.303528,463
888.420288,464
888.536987,459
888.653687,465
888.770447,450
888.887146,444
889.003967,440
889.120667,458
889.237305,451
889.354065,457
889.470703,428
889.587463,460
889.704163,444
889.820862,447
889.937561,448
890.054199,452
890.170837,450
890.287598,461
890.404236,460
890.520874,449
890.637634,447
890.754211,456
890.87085,460
890.987549,450
891.104187,444
891.220886,464
891.337463,462
891.454102,456
891.57074,461
891.687378,456
891.804077,460
891.920654,464
892.037231,451
892.15387,460
892.270447,471
892.387085,443
892.503723,446
892.6203,483
892.736877,448
892.853516,455
892.970032,469
893.08667,462
893.203186,462
893.319763,482
893.43634,448
893.552917,467
893.669556,465
893.786011,450
893.902588,456
894.019165,468
894.135681,452
894.252197,463
894.368835,471
894.485291,466
894.601868,461
894.718384,460
894.8349,473
894.951355,448
895.067932,443
895.184448,458
895.300964,465
895.417419,445
895.533936,439
895.650452,454
895.766907,473
895.883423,455
895.999878,460
896.116333,443
896.232849,458
896.349304,464
896.465759,456
896.582214,469
896.698669,456
896.815125,448
896.931641,460
897.048035,458
897.164551,449
897.280884,461
897.397339,461
897.513794,451
897.630249,453
897.746582,458
897.863098,463
897.979431,463
898.095886,457
898.212341,459
898.328674,474
898.445129,454
898.561462,480
898.677795,470
898.794312,467
898.910645,452
899.026978,452
899.143433,451
899.259766,461
899.37616,471
899.492493,461
899.608765,451
899.725159,470
899.841553,451
899.957947,452
900.07428,461
900.190552,473
900.306946,456
900.423157,475
900.53949,478
900.655884,468
900.772156,458
900.888489,481
901.004822,468
901.121033,452
901.237366,446
901.353699,452
901.46991,459
901.586304,464
901.702515,458
901.818787,457
901.93512,469
902.051331,454
902.167603,453
902.283875,466
902.400085,462
902.516418,439
902.632629,472
902.74884,460
902.865112,480
902.981384,473
903.097595,470
903.213867,464
903.330017,453
903.446289,453
903.5625,468
903.67865,470
903.794922,442
903.911072,455
904.027344,462
904.143494,454
904.259705,461
904.375916,462
904.492065,481
904.608215,453
904.724426,446
904.840576,445
904.956726,474
905.072876,461
905.189087,461
905.305176,457
905.421387,473
905.537537,468
905.653687,469
905.769775,463
905.885925,475
906.002014,469
906.118164,451
906.234314,475
906.350403,481
906.466492,454
906.582642,462
906.69873,462
906.814758,464
906.930908,469
907.046936,453
907.163086,453
907.279175,473
907.395264,443
907.511353,469
907.62738,458
907.743408,454
907.859497,472
907.975525,489
908.091553,475
908.207703,473
908.32373,455
908.439758,462
908.555786,481
908.671814,471
908.787842,477
908.90387,453
909.019775,448
909.135864,463
909.251892,439
909.367859,470
909.483826,475
909.599854,470
909.715881,448
909.831848,477
909.947815,446
910.063782,464
910.179749,470
910.295776,451
910.411743,465
910.527649,471
910.643616,458
910.759583,469
910.875488,453
910.991455,463
911.107361,461
911.223267,473
911.339294,467
911.4552,487
911.571106,461
911.687073,465
911.802979,459
911.918823,454
912.034729,460
912.150635,447
912.266602,463
912.382446,472
912.498352,471
912.614197,435
912.730103,436
912.846008,456
792.44574,533
792.56488,557
792.68396,595
792.80304,577
792.92218,506
793.041199,522
793.160339,501
793.279419,533
793.398499,495
793.517578,522
793.636658,499
793.755737,528
793.874817,520
793.993896,535
794.112976,509
794.232056,495
794.351074,521
794.470215,499
794.589233,515
794.708313,523
794.827393,500
794.946411,504
795.065552,502
795.18457,508
795.303589,511
795.422668,513
795.541687,501
795.660767,493
795.779846,497
795.898865,496
796.017883,509
796.136963,509
796.255981,488
796.375061,496
796.49408,472
796.613037,504
796.732117,507
796.851135,516
796.970154,492
797.089233,506
797.208191,476
797.327271,492
797.446228,499
797.565186,489
797.684265,497
797.803223,495
797.922241,486
798.04126,502
798.160278,472
798.279297,494
798.398315,515
798.517273,493
798.636292,494
798.75531,488
798.874268,492
798.993286,502
799.112244,472
799.231323,504
799.350281,478
799.469238,494
799.588257,482
799.707153,514
799.826111,508
799.945129,493
800.064087,466
800.183044,492
800.302063,476
800.421021,483
800.539978,491
800.658936,490
800.777893,482
800.896912,482
801.015747,487
801.134705,484
801.253723,478
801.37262,503
801.491638,483
801.610535,476
801.729492,480
801.84845,457
801.967407,495
802.086243,492
802.205261,473
802.324158,490
802.443115,472
802.562073,487
802.680969,487
802.799927,473
802.918762,477
803.037659,491
803.156677,478
803.275574,481
803.39447,470
803.513428,492
803.632263,488
803.751221,480
803.870117,492
803.989014,503
804.107971,497
804.226746,469
804.345642,480
804.4646,478
804.583496,480
804.702393,482
804.821228,489
804.940125,487
805.059021,461
805.177917,470
805.296814,480
805.415649,481
805.534546,499
805.653442,490
805.772278,480
805.891113,485
806.01001,481
806.128906,486
806.247742,492
806.366577,476
806.485413,494
806.604309,484
806.723145,495
806.84198,484
806.960876,484
807.079712,494
807.198486,476
807.317383,492
807.436218,475
807.554993,480
807.673889,493
807.792725,478
807.91156,510
808.030396,484
808.14917,484
808.268005,473
808.386841,501
808.505676,480
808.624451,494
808.743286,467
808.862122,478
808.980896,450
809.099731,482
809.218506,475
809.337341,509
809.456116,476
809.57489,475
809.693726,472
809.8125,491
809.931274,480
810.050049,470
810.168884,474
810.287659,506
810.406372,477
810.525269,469
810.643982,481
810.762756,505
810.881531,465
811.000305,489
811.11908,475
811.237854,478
811.356567,465
811.475403,478
811.594116,472
811.71283,488
811.831604,489
811.950378,476
812.069153,479
812.187927,476
812.30658,485
812.425415,462
812.544128,483
812.662781,467
812.781616,477
812.900269,477
813.019043,484
813.137756,478
813.256531,498
813.375244,479
813.493896,473
813.612671,484
813.731384,468
813.850037,466
813.96875,479
814.087524,483
814.206238,474
814.324951,465
814.443604,472
814.562256,478
814.68103,483
814.799683,475
814.918335,498
815.037109,469
815.155762,484
815.274475,483
815.393188,472
815.511841,477
815.630554,481
815.749146,460
815.867859,482
815.986572,480
816.105164,492
816.223877,471
816.342529,446
816.461182,490
816.579895,473
816.698486,467
816.817139,478
816.935791,462
817.054504,485
817.173096,479
817.291748,468
817.4104,460
817.529053,471
817.647644,471
817.766235,452
817.884949,460
818.00354,472
818.122192,468
818.240845,469
818.359436,473
818.478088,483
818.59668,459
818.715271,475
818.833923,469
818.952515,491
819.071106,461
819.189758,467
819.30835,461
819.426941,463
819.545532,462
819.664124,466
819.782715,451
819.901306,457
820.019897,458
820.138489,470
820.25708,448
820.375671,464
820.494202,457
820.612732,453
820.731384,443
820.849915,466
820.968506,466
821.087097,456
821.205627,440
821.324158,467
821.442749,448
821.561279,465
821.679871,452
821.798401,457
821.916931,446
822.035461,459
822.154053,462
822.272583,444
822.391174,451
822.509583,472
822.628174,464
822.746704,470
822.865234,446
822.983765,449
823.102295,467
823.220825,462
823.339294,458
823.457825,460
823.576355,461
823.694824,459
823.813354,450
823.931885,467
824.050354,477
824.168884,469
824.287354,446
824.405823,463
824.524353,438
824.642822,454
824.761353,460
824.879822,450
824.998291,441
825.116699,465
825.235291,438
825.353699,459
825.472168,461
825.590637,455
825.709106,455
825.827576,436
825.946045,435
826.064453,456
826.182983,435
826.301392,465
826.4198,442
826.53833,437
826.656738,436
826.775208,442
826.893677,464
827.012024,444
827.130493,454
827.248962,477
827.36731,461
827.485779,446
827.604248,466
827.722595,438
827.841064,439
827.959412,480
828.077942,444
828.196289,454
828.314636,457
828.433105,444
828.551514,466
828.669861,459
828.78833,437
828.906677,443
829.025085,431
829.143433,470
829.261841,444
829.38031,451
829.498657,454
829.617004,451
829.735413,442
829.85376,430
829.972107,453
830.090515,451
830.208862,470
830.327209,460
830.445557,449
830.563904,443
830.682312,434
830.800659,450
830.919006,441
831.037354,461
831.155701,445
831.274048,438
831.392395,456
831.51062,467
831.629028,468
831.747314,455
831.865662,442
831.984009,431
832.102356,428
832.220642,470
832.338928,460
832.457275,454
832.575623,470
832.693909,459
832.812134,443
832.930481,471
833.048828,449
833.167114,451
833.2854,444
833.403687,444
833.521973,445
833.640259,470
833.758545,444
833.876831,461
833.995056,446
834.113281,465
834.231628,444
834.349915,468
834.468201,437
834.586426,449
834.704651,456
834.822998,452
834.941162,464
835.059448,454
835.177673,451
835.295959,448
835.414246,466
835.53241,448
835.650635,449
835.768921,449
835.887146,446
836.005371,444
836.123596,453
836.241821,439
836.360046,447
836.478271,455
836.596497,465
836.714722,455
836.832886,447
836.95105,454
837.069336,458
837.1875,432
837.305725,446
837.423889,460
837.542053,451
837.660339,454
837.778503,449
837.896667,448
838.014832,444
838.132996,460
838.25116,454
838.369385,449
838.487488,445
838.605713,440
838.723877,447
838.84198,453
838.960205,449
839.078308,450
839.196472,426
839.314636,463
839.4328,441
839.550964,440
839.669067,451
839.787231,440
839.905396,425
840.023499,472
840.141602,439
840.259766,440
840.377869,449
840.495972,459
840.614136,449
840.732239,450
840.850342,454
840.968445,435
841.086548,443
841.204651,465
841.322754,449
841.440918,432
841.55896,436
841.677002,452
841.795166,444
841.913208,449
842.031311,470
842.149353,461
842.267456,419
842.385498,464
842.503601,438
842.621643,456
842.739746,460
842.857788,460
842.97583,461
843.093933,446
843.211975,430
843.330017,462
843.44812,477
843.566101,425
843.684204,445
843.802246,440
843.920227,453
844.038269,460
844.156311,434
844.274292,442
844.392395,443
844.510376,452
844.628357,448
844.74646,448
844.864441,448
844.982422,446
845.100403,451
845.218384,430
845.336426,448
845.454468,473
845.572449,455
845.69043,440
845.808411,440
845.926453,458
846.044373,454
846.162354,433
846.280396,436
846.398315,449
846.516296,430
846.634216,441
846.752197,470
846.870178,457
846.988098,452
847.106079,432
847.22406,449
847.34198,437
847.4599,439
847.577881,438
847.695801,458
847.813782,444
847.931641,440
848.049561,453
848.167603,444
848.285461,439
848.403381,453
848.521362,438
848.639221,449
848.75708,426
848.875,434
848.99292,457
849.110901,458
849.22876,456
849.34668,432
849.464539,448
849.582458,450
849.700317,448
849.818176,450
849.936096,452
850.053955,447
850.171875,455
850.289673,441
850.407593,446
850.525452,424
850.643311,430
850.761169,423
850.878967,462
850.996887,460
851.114746,429
851.232544,459
851.350403,447
851.468262,436
851.58606,466
851.703979,432
851.821777,444
851.939636,458
852.057434,459
852.175232,468
852.293091,455
852.410889,451
852.528687,458
852.646545,453
852.764343,441
852.88208,450
852.999939,433
853.117676,439
853.235535,431
853.353271,460
853.471069,454
853.588928,450
853.706604,460
853.824402,441
853.9422,452
854.059998,435
854.177734,432
854.295532,457
854.413269,455
854.531006,445
854.648804,458
854.766541,450
854.884277,446
855.002014,445
855.119751,457
855.237549,453
855.355225,450
855.473022,453
855.590698,439
855.708435,445
855.826172,443
855.943848,450
856.061646,442
856.179321,452
856.296997,440
856.414795,457
856.53241,460
856.650085,440
856.767822,450
856.885559,455
857.003174,439
857.120911,429
857.238586,450
857.356201,443
857.473938,450
857.591614,441
857.709351,447
857.826965,454
857.944641,442
858.062317,443
858.179993,454
858.297668,426
858.415283,454
858.532959,466
858.650574,445
858.768188,448
858.885803,432
859.003479,449
859.121094,470
859.23877,444
859.356384,455
859.473999,464
859.591675,442
859.709229,471
859.826843,449
859.944458,437
860.062012,450
860.179626,463
860.297302,449
860.414856,451
860.532471,448
860.650024,431
860.767639,451
860.885193,453
861.002808,453
861.120361,447
861.237976,442
861.35553,472
861.473022,434
861.590698,434
861.708191,448
861.825745,454
861.943298,443
862.060852,452
862.178406,449
862.295959,460
862.413513,445
862.531006,436
862.64856,434
862.766113,449
862.883667,441
863.00116,440
863.118713,446
863.236206,451
863.353699,458
863.471252,445
863.588745,443
863.706177,452
863.82373,461
863.941162,434
864.058716,469
864.176208,447
864.29364,447
864.411194,453
864.528687,468
864.646118,439
864.763611,447
864.881042,454
864.998535,447
865.116028,450
865.233459,456
865.350891,441
865.468384,440
865.585754,450
865.703308,464
865.820679,435
865.938171,460
866.055542,431
866.173035,450
866.290466,472
866.407837,449
866.52533,427
866.6427,451
866.760071,446
866.877563,439
866.994934,456
867.112305,451
867.229736,428
867.347107,474
867.464539,463
867.58197,447
867.699341,457
867.81665,444
867.934082,450
868.051453,468
868.168823,442
868.286194,441
868.403564,447
868.520935,455
868.638306,437
868.755676,463
868.872986,444
868.990295,458
869.107727,450
869.225037,459
869.342346,448
869.459717,443
869.577026,449
869.694336,463
869.811707,443
869.929016,443
870.046326,455
870.163635,452
870.280945,463
870.398254,459
870.515564,447
870.632812,459
870.750183,447
870.867432,451
870.984741,442
871.102051,458
871.219299,443
871.336609,449
871.453918,453
871.571106,436
871.688416,451
871.805664,455
871.922852,460
872.040222,445
872.157471,445
872.274719,454
872.391968,462
872.509155,441
872.626465,460
872.743652,454
872.860962,435
872.978149,450
873.095337,472
873.212646,442
873.329834,449
873.44696,459
873.564209,440
873.681396,446
873.798645,441
873.915894,441
874.03302,455
874.150208,446
874.267456,436
874.384583,439
874.501831,455
874.618958,460
874.736145,458
874.853333,443
874.970459,456
875.087646,456
875.204834,441
875.32196,444
875.439148,436
875.556274,452
875.673401,449
875.790527,461
875.907715,449
876.024841,448
876.141968,441
876.259094,454
876.376282,445
876.493347,455
876.610474,440
876.7276,455
876.844727,453
876.961853,443
877.078918,468
877.195984,455
877.313171,442
877.430237,448
877.547302,459
877.664368,459
877.781433,439
877.898499,436
878.015625,433
878.13269,441
878.249695,428
878.366821,431
878.483887,447
878.600952,459
878.717957,446
878.834961,457
878.952087,436
879.069092,461
879.186157,451
879.303162,453
879.420227,439
879.537231,455
879.654236,435
879.77124,442
879.888306,459
880.005249,453
880.122314,435
880.239319,457
880.356323,470
880.473328,440
880.590271,440
880.707275,463
880.824341,451
880.941284,450
881.058228,457
881.175232,449
881.292236,456
881.40918,434
881.526123,470
881.643066,453
881.760071,455
881.877014,450
881.993958,468
882.11084,463
882.227783,457
882.344727,468
882.46167,434
882.578613,459
882.695618,453
882.812439,473
882.929382,440
883.046326,474
883.163208,453
883.280151,439
883.397034,439
883.513916,458
883.630798,476
883.747742,438
883.864563,484
883.981506,453
884.098389,449
884.21521,442
884.332153,440
884.448975,436
884.565796,457
884.682678,446
884.7995,454
884.916443,458
885.033264,447
885.150085,461
885.266968,458
885.383789,466
885.500671,456
885.617493,466
885.734314,464
885.851196,451
885.967896,471
886.084717,468
886.201599,467
886.318359,477
886.435181,452
886.552002,461
886.668762,452
886.785645,471
886.902344,458
887.019165,455
887.135925,472
887.252747,468
887.369446,460
887.486267,449
887.603027,449
887.719788,446
887.836548,445
887.953247,467
888.070068,455
888.186829,450
888.303528,458
888.420288,471
888.536987,452
888.653687,439
888.770447,466
888.887146,464
889.003967,453
889.120667,459
889.237305,450
889.354065,438
889.470703,459
889.587463,471
889.704163,459
889.820862,459
889.937561,454
890.054199,461
890.170837,454
890.287598,435
890.404236,444
890.520874,454
890.637634,475
890.754211,444
890.87085,449
890.987549,469
891.104187,462
891.220886,456
891.337463,436
891.454102,450
891.57074,470
891.687378,461
891.804077,443
891.920654,470
892.037231,456
892.15387,465
892.270447,451
892.387085,451
892.503723,447
892.6203,457
892.736877,449
892.853516,465
892.970032,462
893.08667,473
893.203186,479
893.319763,461
893.43634,439
893.552917,466
893.669556,453
893.786011,446
893.902588,452
894.019165,459
894.135681,452
894.252197,478
894.368835,465
894.485291,462
894.601868,460
894.718384,470
894.8349,451
894.951355,475
895.067932,453
895.184448,459
895.300964,457
895.417419,464
895.533936,466
895.650452,470
895.766907,451
895.883423,456
895.999878,452
896.116333,460
896.232849,462
896.349304,450
896.465759,436
896.582214,456
896.698669,448
896.815125,464
896.931641,474
897.048035,443
897.164551,464
897.280884,460
897.397339,450
897.513794,460
897.630249,463
897.746582,468
897.863098,450
897.979431,457
898.095886,473
898.212341,454
898.328674,456
898.445129,479
898.561462,473
898.677795,458
898.794312,465
898.910645,462
899.026978,465
899.143433,454
899.259766,433
899.37616,462
899.492493,470
899.608765,471
899.725159,445
899.841553,450
899.957947,449
900.07428,458
900.190552,442
900.306946,456
900.423157,470
900.53949,469
900.655884,456
900.772156,447
900.888489,465
901.004822,445
901.121033,460
901.237366,461
901.353699,461
901.46991,480
901.586304,465
901.702515,456
901.818787,456
901.93512,472
902.051331,449
902.167603,479
902.283875,462
902.400085,463
902.516418,454
902.632629,470
902.74884,453
902.865112,469
902.981384,474
903.097595,474
903.213867,475
903.330017,477
903.446289,465
903.5625,472
903.67865,474
903.794922,452
903.911072,462
904.027344,466
904.143494,464
904.259705,466
904.375916,462
904.492065,427
904.608215,459
904.724426,465
904.840576,482
904.956726,463
905.072876,467
905.189087,484
905.305176,444
905.421387,476
905.537537,484
905.653687,474
905.769775,457
905.885925,470
906.002014,461
906.118164,469
906.234314,462
906.350403,463
906.466492,472
906.582642,468
906.69873,458
906.814758,454
906.930908,467
907.046936,481
907.163086,473
907.279175,483
907.395264,454
907.511353,469
907.62738,465
907.743408,466
907.859497,469
907.975525,473
908.091553,472
908.207703,462
908.32373,456
908.439758,456
908.555786,455
908.671814,456
908.787842,478
908.90387,487
909.019775,483
909.135864,476
909.251892,462
909.367859,459
909.483826,477
909.599854,477
909.715881,459
909.831848,475
909.947815,489
910.063782,480
910.179749,451
910.295776,480
910.411743,450
910.527649,470
910.643616,454
910.759583,483
910.875488,487
910.991455,462
911.107361,471
911.223267,468
911.339294,452
911.4552,461
911.571106,466
911.687073,463
911.802979,463
911.918823,476
912.034729,457
912.150635,465
912.266602,460
912.382446,462
912.498352,470
912.614197,458
912.730103,462
912.846008,463
