792.44574,637
792.56488,628
792.68396,690
792.80304,652
792.92218,614
793.041199,600
793.160339,605
793.279419,612
793.398499,594
793.517578,579
793.636658,600
793.755737,608
793.874817,619
793.993896,602
794.112976,595
794.232056,583
794.351074,582
794.470215,591
794.589233,591
794.708313,587
794.827393,571
794.946411,593
795.065552,584
795.18457,571
795.303589,599
795.422668,574
795.541687,580
795.660767,566
795.779846,591
795.898865,555
796.017883,581
796.136963,576
796.255981,592
796.375061,550
796.49408,561
796.613037,568
796.732117,574
796.851135,551
796.970154,589
797.089233,574
797.208191,567
797.327271,564
797.446228,568
797.565186,577
797.684265,596
797.803223,582
797.922241,580
798.04126,581
798.160278,579
798.279297,551
798.398315,557
798.517273,576
798.636292,572
798.75531,566
798.874268,576
798.993286,560
799.112244,554
799.231323,561
799.350281,560
799.469238,546
799.588257,583
799.707153,553
799.826111,583
799.945129,552
800.064087,578
800.183044,561
800.302063,555
800.421021,562
800.539978,579
800.658936,576
800.777893,572
800.896912,568
801.015747,581
801.134705,562
801.253723,571
801.37262,579
801.491638,585
801.610535,570
801.729492,574
801.84845,583
801.967407,581
802.086243,571
802.205261,590
802.324158,573
802.443115,565
802.562073,607
802.680969,589
802.799927,572
802.918762,595
803.037659,586
803.156677,592
803.275574,571
803.39447,570
803.513428,588
803.632263,607
803.751221,598
803.870117,590
803.989014,580
804.107971,577
804.226746,597
804.345642,575
804.4646,589
804.583496,589
804.702393,597
804.821228,592
804.940125,597
805.059021,590
805.177917,595
805.296814,587
805.415649,588
805.534546,591
805.653442,608
805.772278,595
805.891113,594
806.01001,605
806.128906,585
806.247742,610
806.366577,601
806.485413,602
806.604309,595
806.723145,622
806.84198,598
806.960876,628
807.079712,615
807.198486,610
807.317383,603
807.436218,590
807.554993,583
807.673889,599
807.792725,593
807.91156,587
808.030396,609
808.14917,597
808.268005,603
808.386841,596
808.505676,587
808.624451,624
808.743286,610
808.862122,618
808.980896,620
809.099731,597
809.218506,600
809.337341,610
809.456116,592
809.57489,640
809.693726,594
809.8125,611
809.931274,623
810.050049,634
810.168884,615
810.287659,605
810.406372,623
810.525269,613
810.643982,589
810.762756,627
810.881531,574
811.000305,638
811.11908,624
811.237854,617
811.356567,614
811.475403,629
811.594116,627
811.71283,611
811.831604,622
811.950378,611
812.069153,604
812.187927,618
812.30658,620
812.425415,633
812.544128,609
812.662781,600
812.781616,638
812.900269,615
813.019043,622
813.137756,619
813.256531,604
813.375244,622
813.493896,610
813.612671,625
813.731384,621
813.850037,605
813.96875,615
814.087524,604
814.206238,617
814.324951,618
814.443604,626
814.562256,616
814.68103,595
814.799683,599
814.918335,612
815.037109,611
815.155762,616
815.274475,607
815.393188,600
815.511841,613
815.630554,598
815.749146,605
815.867859,612
815.986572,611
816.105164,584
816.223877,587
816.342529,602
816.461182,619
816.579895,606
816.698486,617
816.817139,619
816.935791,587
817.054504,588
817.173096,598
817.291748,595
817.4104,602
817.529053,576
817.647644,590
817.766235,551
817.884949,585
818.00354,548
818.122192,553
818.240845,576
818.359436,539
818.478088,541
818.59668,545
818.715271,548
818.833923,540
818.952515,525
819.071106,513
819.189758,521
819.30835,501
819.426941,491
819.545532,516
819.664124,520
819.782715,494
819.901306,488
820.019897,500
820.138489,491
820.25708,499
820.375671,504
820.494202,482
820.612732,510
820.731384,491
820.849915,487
820.968506,488
821.087097,493
821.205627,483
821.324158,484
821.442749,482
821.561279,489
821.679871,477
821.798401,464
821.916931,487
822.035461,498
822.154053,488
822.272583,496
822.391174,488
822.509583,482
822.628174,481
822.746704,464
822.865234,476
822.983765,492
823.102295,478
823.220825,501
823.339294,485
823.457825,487
823.576355,483
823.694824,484
823.813354,503
823.931885,506
824.050354,463
824.168884,486
824.287354,486
824.405823,452
824.524353,473
824.642822,483
824.761353,510
824.879822,465
824.998291,483
825.116699,481
825.235291,471
825.353699,469
825.472168,457
825.590637,477
825.709106,476
825.827576,461
825.946045,474
826.064453,462
826.182983,465
826.301392,465
826.4198,466
826.53833,473
826.656738,457
826.775208,475
826.893677,463
827.012024,468
827.130493,465
827.248962,471
827.36731,467
827.485779,468
827.604248,457
827.722595,454
827.841064,467
827.959412,452
828.077942,473
828.196289,461
828.314636,480
828.433105,467
828.551514,471
828.669861,447
828.78833,446
828.906677,469
829.025085,470
829.143433,461
829.261841,448
829.38031,469
829.498657,470
829.617004,451
829.735413,462
829.85376,446
829.972107,459
830.090515,458
830.208862,444
830.327209,449
830.445557,442
830.563904,444
830.682312,482
830.800659,454
830.919006,456
831.037354,452
831.155701,478
831.274048,460
831.392395,456
831.51062,462
831.629028,464
831.747314,455
831.865662,450
831.984009,466
832.102356,447
832.220642,462
832.338928,470
832.457275,447
832.575623,471
832.693909,464
832.812134,479
832.930481,457
833.048828,473
833.167114,445
833.2854,472
833.403687,454
833.521973,458
833.640259,466
833.758545,446
833.876831,449
833.995056,463
834.113281,466
834.231628,463
834.349915,444
834.468201,456
834.586426,447
834.704651,479
834.822998,445
834.941162,462
835.059448,460
835.177673,466
835.295959,460
835.414246,486
835.53241,468
835.650635,475
835.768921,449
835.887146,456
836.005371,450
836.123596,470
836.241821,476
836.360046,441
836.478271,472
836.596497,489
836.714722,452
836.832886,476
836.95105,467
837.069336,474
837.1875,492
837.305725,457
837.423889,464
837.542053,477
837.660339,470
837.778503,480
837.896667,480
838.014832,479
838.132996,467
838.25116,467
838.369385,444
838.487488,484
838.605713,474
838.723877,481
838.84198,470
838.960205,468
839.078308,480
839.196472,463
839.314636,474
839.4328,458
839.550964,448
839.669067,480
839.787231,477
839.905396,469
840.023499,460
840.141602,455
840.259766,462
840.377869,470
840.495972,471
840.614136,473
840.732239,464
840.850342,471
840.968445,450
841.086548,453
841.204651,474
841.322754,471
841.440918,464
841.55896,473
841.677002,456
841.795166,450
841.913208,463
842.031311,456
842.149353,473
842.267456,443
842.385498,459
842.503601,466
842.621643,447
842.739746,464
842.857788,432
842.97583,483
843.093933,450
843.211975,455
843.330017,444
843.44812,457
843.566101,456
843.684204,453
843.802246,442
843.920227,458
844.038269,460
844.156311,470
844.274292,452
844.392395,466
844.510376,443
844.628357,450
844.74646,446
844.864441,436
844.982422,453
845.100403,451
845.218384,444
845.336426,456
845.454468,462
845.572449,455
845.69043,448
845.808411,438
845.926453,449
846.044373,459
846.162354,447
846.280396,461
846.398315,461
846.516296,454
846.634216,445
846.752197,460
846.870178,456
846.988098,462
847.106079,447
847.22406,441
847.34198,430
847.4599,461
847.577881,448
847.695801,449
847.813782,451
847.931641,447
848.049561,458
848.167603,445
848.285461,444
848.403381,448
848.521362,450
848.639221,453
848.75708,453
848.875,462
848.99292,441
849.110901,451
849.22876,440
849.34668,463
849.464539,453
849.582458,442
849.700317,459
849.818176,462
849.936096,433
850.053955,439
850.171875,438
850.289673,448
850.407593,458
850.525452,445
850.643311,442
850.761169,468
850.878967,444
850.996887,450
851.114746,454
851.232544,449
851.350403,437
851.468262,460
851.58606,448
851.703979,456
851.821777,438
851.939636,469
852.057434,449
852.175232,454
852.293091,448
852.410889,456
852.528687,464
852.646545,451
852.764343,442
852.88208,464
852.999939,460
853.117676,464
853.235535,436
853.353271,469
853.471069,457
853.588928,440
853.706604,473
853.824402,453
853.9422,467
854.059998,433
854.177734,443
854.295532,456
854.413269,465
854.531006,463
854.648804,450
854.766541,457
854.884277,460
855.002014,440
855.119751,455
855.237549,469
855.355225,448
855.473022,457
855.590698,452
855.708435,462
855.826172,470
855.943848,459
856.061646,479
856.179321,434
856.296997,456
856.414795,462
856.53241,451
856.650085,481
856.767822,464
856.885559,455
857.003174,441
857.120911,492
857.238586,469
857.356201,458
857.473938,456
857.591614,457
857.709351,455
857.826965,452
857.944641,453
858.062317,460
858.179993,458
858.297668,451
858.415283,445
858.532959,471
858.650574,471
858.768188,455
858.885803,447
859.003479,459
859.121094,457
859.23877,458
859.356384,460
859.473999,463
859.591675,479
859.709229,453
859.826843,459
859.944458,450
860.062012,448
860.179626,453
860.297302,465
860.414856,460
860.532471,439
860.650024,469
860.767639,461
860.885193,456
861.002808,449
861.120361,437
861.237976,457
861.35553,449
861.473022,441
861.590698,457
861.708191,459
861.825745,453
861.943298,438
862.060852,463
862.178406,436
862.295959,445
862.413513,469
862.531006,456
862.64856,453
862.766113,460
862.883667,453
863.00116,460
863.118713,474
863.236206,460
863.353699,461
863.471252,465
863.588745,442
863.706177,473
863.82373,447
863.941162,456
864.058716,449
864.176208,454
864.29364,474
864.411194,474
864.528687,462
864.646118,464
864.763611,462
864.881042,460
864.998535,473
865.116028,461
865.233459,467
865.350891,453
865.468384,449
865.585754,478
865.703308,458
865.820679,475
865.938171,462
866.055542,449
866.173035,459
866.290466,459
866.407837,470
866.52533,450
866.6427,467
866.760071,461
866.877563,467
866.994934,470
867.112305,462
867.229736,463
867.347107,452
867.464539,470
867.58197,449
867.699341,466
867.81665,440
867.934082,475
868.051453,441
868.168823,457
868.286194,473
868.403564,452
868.520935,474
868.638306,467
868.755676,460
868.872986,463
868.990295,457
869.107727,469
869.225037,457
869.342346,472
869.459717,456
869.577026,467
869.694336,451
869.811707,459
869.929016,442
870.046326,488
870.163635,471
870.280945,468
870.398254,455
870.515564,446
870.632812,478
870.750183,458
870.867432,472
870.984741,472
871.102051,470
871.219299,468
871.336609,457
871.453918,445
871.571106,464
871.688416,473
871.805664,459
871.922852,468
872.040222,458
872.157471,462
872.274719,452
872.391968,463
872.509155,467
872.626465,472
872.743652,454
872.860962,470
872.978149,455
873.095337,455
873.212646,469
873.329834,474
873.44696,448
873.564209,457
873.681396,480
873.798645,447
873.915894,446
874.03302,458
874.150208,466
874.267456,464
874.384583,463
874.501831,465
874.618958,461
874.736145,469
874.853333,460
874.970459,458
875.087646,458
875.204834,475
875.32196,472
875.439148,438
875.556274,452
875.673401,476
875.790527,460
875.907715,461
876.024841,440
876.141968,461
876.259094,462
876.376282,471
876.493347,478
876.610474,465
876.7276,476
876.844727,454
876.961853,469
877.078918,470
877.195984,456
877.313171,470
877.430237,447
877.547302,437
877.664368,460
877.781433,450
877.898499,469
878.015625,457
878.13269,450
878.249695,464
878.366821,455
878.483887,489
878.600952,483
878.717957,468
878.834961,466
878.952087,464
879.069092,460
879.186157,473
879.303162,450
879.420227,462
879.537231,478
879.654236,461
879.77124,460
879.888306,493
880.005249,471
880.122314,471
880.239319,454
880.356323,468
880.473328,439
880.590271,490
880.707275,482
880.824341,456
880.941284,448
881.058228,470
881.175232,482
881.292236,470
881.40918,454
881.526123,455
881.643066,456
881.760071,472
881.877014,458
881.993958,476
882.11084,475
882.227783,471
882.344727,467
882.46167,464
882.578613,448
882.695618,472
882.812439,450
882.929382,471
883.046326,465
883.163208,480
883.280151,468
883.397034,460
883.513916,443
883.630798,476
883.747742,468
883.864563,478
883.981506,454
884.098389,469
884.21521,460
884.332153,460
884.448975,480
884.565796,465
884.682678,457
884.7995,481
884.916443,454
885.033264,457
885.150085,465
885.266968,470
885.383789,469
885.500671,467
885.617493,464
885.734314,458
885.851196,454
885.967896,493
886.084717,471
886.201599,477
886.318359,473
886.435181,466
886.552002,469
886.668762,466
886.785645,487
886.902344,472
887.019165,453
887.135925,479
887.252747,478
887.369446,448
887.486267,446
887.603027,486
887.719788,473
887.836548,465
887.953247,465
888.070068,456
888.186829,465
888.303528,470
888.420288,467
888.536987,472
888.653687,463
888.770447,480
888.887146,472
889.003967,464
889.120667,468
889.237305,472
889.354065,474
889.470703,479
889.587463,460
889.704163,473
889.820862,451
889.937561,463
890.054199,484
890.170837,467
890.287598,446
890.404236,478
890.520874,459
890.637634,475
890.754211,486
890.87085,448
890.987549,471
891.104187,461
891.220886,492
891.337463,482
891.454102,477
891.57074,480
891.687378,474
891.804077,463
891.920654,466
892.037231,460
892.15387,465
892.270447,479
892.387085,477
892.503723,478
892.6203,474
892.736877,466
892.853516,463
892.970032,470
893.08667,473
893.203186,480
893.319763,477
893.43634,459
893.552917,464
893.669556,481
893.786011,506
893.902588,474
894.019165,471
894.135681,499
894.252197,459
894.368835,466
894.485291,456
894.601868,469
894.718384,485
894.8349,467
894.951355,474
895.067932,471
895.184448,452
895.300964,498
895.417419,465
895.533936,468
895.650452,494
895.766907,473
895.883423,487
895.999878,464
896.116333,488
896.232849,470
896.349304,457
896.465759,479
896.582214,470
896.698669,488
896.815125,480
896.931641,473
897.048035,479
897.164551,466
897.280884,468
897.397339,469
897.513794,488
897.630249,496
897.746582,469
897.863098,479
897.979431,491
898.095886,454
898.212341,452
898.328674,473
898.445129,471
898.561462,463
898.677795,482
898.794312,498
898.910645,471
899.026978,491
899.143433,460
899.259766,482
899.37616,464
899.492493,477
899.608765,451
899.725159,473
899.841553,487
899.957947,485
900.07428,451
900.190552,464
900.306946,486
900.423157,471
900.53949,481
900.655884,489
900.772156,475
900.888489,492
901.004822,469
901.121033,478
901.237366,478
901.353699,475
901.46991,477
901.586304,496
901.702515,466
901.818787,478
901.93512,482
902.051331,474
902.167603,475
902.283875,467
902.400085,458
902.516418,482
902.632629,478
902.74884,499
902.865112,469
902.981384,507
903.097595,481
903.213867,484
903.330017,476
903.446289,491
903.5625,477
903.67865,481
903.794922,464
903.911072,466
904.027344,500
904.143494,473
904.259705,465
904.375916,503
904.492065,466
904.608215,463
904.724426,459
904.840576,478
904.956726,470
905.072876,456
905.189087,491
905.305176,464
905.421387,504
905.537537,485
905.653687,465
905.769775,488
905.885925,460
906.002014,470
906.118164,450
906.234314,492
906.350403,469
906.466492,483
906.582642,494
906.69873,460
906.814758,489
906.930908,501
907.046936,469
907.163086,506
907.279175,489
907.395264,473
907.511353,462
907.62738,481
907.743408,480
907.859497,476
907.975525,483
908.091553,487
908.207703,457
908.32373,493
908.439758,489
908.555786,469
908.671814,473
908.787842,478
908.90387,479
909.019775,496
909.135864,484
909.251892,486
909.367859,480
909.483826,475
909.599854,473
909.715881,481
909.831848,483
909.947815,479
910.063782,466
910.179749,474
910.295776,457
910.411743,469
910.527649,483
910.643616,476
910.759583,464
910.875488,488
910.991455,463
911.107361,472
911.223267,481
911.339294,493
911.4552,472
911.571106,483
911.687073,491
911.802979,493
911.918823,447
912.034729,479
912.150635,487
912.266602,481
912.382446,492
912.498352,475
912.614197,501
912.730103,476
912.846008,495
792.44574,595
792.56488,631
792.68396,654
792.80304,659
792.92218,617
793.041199,603
793.160339,591
793.279419,600
793.398499,621
793.517578,584
793.636658,576
793.755737,578
793.874817,627
793.993896,613
794.112976,604
794.232056,583
794.351074,600
794.470215,579
794.589233,584
794.708313,581
794.827393,604
794.946411,581
795.065552,576
795.18457,606
795.303589,604
795.422668,596
795.541687,594
795.660767,578
795.779846,577
795.898865,570
796.017883,567
796.136963,579
796.255981,577
796.375061,573
796.49408,575
796.613037,552
796.732117,581
796.851135,570
796.970154,588
797.089233,552
797.208191,580
797.327271,568
797.446228,586
797.565186,585
797.684265,592
797.803223,563
797.922241,593
798.04126,582
798.160278,585
798.279297,572
798.398315,561
798.517273,573
798.636292,551
798.75531,556
798.874268,590
798.993286,576
799.112244,570
799.231323,574
799.350281,588
799.469238,590
799.588257,568
799.707153,558
799.826111,578
799.945129,585
800.064087,559
800.183044,583
800.302063,557
800.421021,570
800.539978,578
800.658936,570
800.777893,583
800.896912,582
801.015747,580
801.134705,578
801.253723,565
801.37262,562
801.491638,568
801.610535,568
801.729492,593
801.84845,593
801.967407,577
802.086243,582
802.205261,596
802.324158,578
802.443115,573
802.562073,576
802.680969,592
802.799927,577
802.918762,583
803.037659,583
803.156677,609
803.275574,583
803.39447,587
803.513428,586
803.632263,578
803.751221,597
803.870117,591
803.989014,575
804.107971,581
804.226746,592
804.345642,600
804.4646,580
804.583496,579
804.702393,571
804.821228,598
804.940125,585
805.059021,589
805.177917,601
805.296814,601
805.415649,602
805.534546,599
805.653442,582
805.772278,598
805.891113,612
806.01001,625
806.128906,573
806.247742,591
806.366577,588
806.485413,608
806.604309,599
806.723145,623
806.84198,611
806.960876,598
807.079712,609
807.198486,618
807.317383,600
807.436218,607
807.554993,605
807.673889,587
807.792725,613
807.91156,606
808.030396,619
808.14917,611
808.268005,592
808.386841,610
808.505676,601
808.624451,612
808.743286,628
808.862122,618
808.980896,603
809.099731,619
809.218506,620
809.337341,604
809.456116,599
809.57489,609
809.693726,635
809.8125,630
809.931274,626
810.050049,621
810.168884,588
810.287659,608
810.406372,628
810.525269,616
810.643982,608
810.762756,605
810.881531,597
811.000305,633
811.11908,605
811.237854,641
811.356567,631
811.475403,640
811.594116,617
811.71283,645
811.831604,613
811.950378,600
812.069153,635
812.187927,621
812.30658,631
812.425415,621
812.544128,636
812.662781,599
812.781616,644
812.900269,612
813.019043,638
813.137756,630
813.256531,612
813.375244,635
813.493896,608
813.612671,610
813.731384,620
813.850037,603
813.96875,621
814.087524,639
814.206238,591
814.324951,625
814.443604,615
814.562256,622
814.68103,633
814.799683,615
814.918335,612
815.037109,622
815.155762,595
815.274475,585
815.393188,614
815.511841,624
815.630554,588
815.749146,607
815.867859,596
815.986572,605
816.105164,608
816.223877,604
816.342529,599
816.461182,607
816.579895,604
816.698486,597
816.817139,622
816.935791,629
817.054504,599
817.173096,599
817.291748,615
817.4104,595
817.529053,621
817.647644,595
817.766235,564
817.884949,583
818.00354,574
818.122192,541
818.240845,545
818.359436,533
818.478088,530
818.59668,533
818.715271,525
818.833923,522
818.952515,516
819.071106,511
819.189758,516
819.30835,527
819.426941,522
819.545532,505
819.664124,489
819.782715,507
819.901306,496
820.019897,494
820.138489,492
820.25708,483
820.375671,479
820.494202,493
820.612732,477
820.731384,486
820.849915,484
820.968506,511
821.087097,479
821.205627,493
821.324158,498
821.442749,480
821.561279,493
821.679871,478
821.798401,468
821.916931,485
822.035461,479
822.154053,483
822.272583,476
822.391174,476
822.509583,479
822.628174,482
822.746704,488
822.865234,471
822.983765,462
823.102295,478
823.220825,455
823.339294,486
823.457825,495
823.576355,477
823.694824,476
823.813354,478
823.931885,492
824.050354,484
824.168884,482
824.287354,495
824.405823,487
824.524353,483
824.642822,481
824.761353,450
824.879822,504
824.998291,486
825.116699,473
825.235291,485
825.353699,475
825.472168,481
825.590637,469
825.709106,480
825.827576,491
825.946045,468
826.064453,487
826.182983,471
826.301392,465
826.4198,495
826.53833,478
826.656738,467
826.775208,506
826.893677,456
827.012024,466
827.130493,474
827.248962,467
827.36731,461
827.485779,469
827.604248,474
827.722595,442
827.841064,465
827.959412,464
828.077942,470
828.196289,439
828.314636,462
828.433105,466
828.551514,437
828.669861,466
828.78833,467
828.906677,468
829.025085,466
829.143433,460
829.261841,469
829.38031,467
829.498657,467
829.617004,490
829.735413,464
829.85376,466
829.972107,471
830.090515,471
830.208862,452
830.327209,445
830.445557,453
830.563904,450
830.682312,469
830.800659,454
830.919006,476
831.037354,454
831.155701,449
831.274048,459
831.392395,463
831.51062,445
831.629028,451
831.747314,457
831.865662,469
831.984009,458
832.102356,467
832.220642,454
832.338928,465
832.457275,459
832.575623,462
832.693909,464
832.812134,451
832.930481,466
833.048828,453
833.167114,465
833.2854,464
833.403687,444
833.521973,454
833.640259,469
833.758545,476
833.876831,467
833.995056,458
834.113281,451
834.231628,493
834.349915,471
834.468201,442
834.586426,451
834.704651,466
834.822998,445
834.941162,484
835.059448,466
835.177673,459
835.295959,438
835.414246,474
835.53241,469
835.650635,458
835.768921,442
835.887146,474
836.005371,432
836.123596,465
836.241821,450
836.360046,478
836.478271,479
836.596497,479
836.714722,469
836.832886,475
836.95105,472
837.069336,495
837.1875,472
837.305725,496
837.423889,487
837.542053,479
837.660339,475
837.778503,484
837.896667,480
838.014832,486
838.132996,450
838.25116,476
838.369385,463
838.487488,494
838.605713,446
838.723877,483
838.84198,475
838.960205,477
839.078308,477
839.196472,478
839.314636,476
839.4328,496
839.550964,471
839.669067,485
839.787231,475
839.905396,480
840.023499,467
840.141602,469
840.259766,480
840.377869,453
840.495972,461
840.614136,488
840.732239,470
840.850342,471
840.968445,460
841.086548,449
841.204651,483
841.322754,462
841.440918,440
841.55896,464
841.677002,457
841.795166,460
841.913208,477
842.031311,475
842.149353,472
842.267456,451
842.385498,466
842.503601,451
842.621643,447
842.739746,457
842.857788,461
842.97583,451
843.093933,452
843.211975,453
843.330017,467
843.44812,450
843.566101,445
843.684204,460
843.802246,462
843.920227,473
844.038269,455
844.156311,467
844.274292,431
844.392395,469
844.510376,456
844.628357,446
844.74646,466
844.864441,464
844.982422,457
845.100403,449
845.218384,450
845.336426,453
845.454468,445
845.572449,469
845.69043,455
845.808411,459
845.926453,448
846.044373,454
846.162354,448
846.280396,437
846.398315,456
846.516296,453
846.634216,454
846.752197,455
846.870178,443
846.988098,444
847.106079,472
847.22406,447
847.34198,458
847.4599,444
847.577881,459
847.695801,457
847.813782,440
847.931641,453
848.049561,469
848.167603,455
848.285461,433
848.403381,462
848.521362,465
848.639221,441
848.75708,441
848.875,441
848.99292,439
849.110901,452
849.22876,443
849.34668,440
849.464539,455
849.582458,453
849.700317,435
849.818176,447
849.936096,466
850.053955,454
850.171875,461
850.289673,446
850.407593,458
850.525452,465
850.643311,437
850.761169,437
850.878967,468
850.996887,462
851.114746,462
851.232544,463
851.350403,447
851.468262,455
851.58606,442
851.703979,463
851.821777,439
851.939636,458
852.057434,453
852.175232,455
852.293091,444
852.410889,458
852.528687,449
852.646545,462
852.764343,444
852.88208,448
852.999939,433
853.117676,462
853.235535,452
853.353271,467
853.471069,452
853.588928,472
853.706604,430
853.824402,460
853.9422,435
854.059998,463
854.177734,456
854.295532,457
854.413269,443
854.531006,448
854.648804,447
854.766541,454
854.884277,452
855.002014,452
855.119751,454
855.237549,459
855.355225,461
855.473022,478
855.590698,451
855.708435,455
855.826172,459
855.943848,454
856.061646,455
856.179321,454
856.296997,468
856.414795,472
856.53241,466
856.650085,460
856.767822,465
856.885559,442
857.003174,458
857.120911,466
857.238586,474
857.356201,467
857.473938,467
857.591614,465
857.709351,472
857.826965,463
857.944641,469
858.062317,462
858.179993,470
858.297668,454
858.415283,455
858.532959,451
858.650574,454
858.768188,462
858.885803,451
859.003479,460
859.121094,454
859.23877,458
859.356384,463
859.473999,450
859.591675,441
859.709229,462
859.826843,452
859.944458,475
860.062012,444
860.179626,462
860.297302,441
860.414856,467
860.532471,441
860.650024,457
860.767639,442
860.885193,443
861.002808,448
861.120361,451
861.237976,451
861.35553,456
861.473022,437
861.590698,453
861.708191,448
861.825745,452
861.943298,462
862.060852,470
862.178406,448
862.295959,458
862.413513,455
862.531006,478
862.64856,466
862.766113,461
862.883667,470
863.00116,440
863.118713,455
863.236206,455
863.353699,458
863.471252,469
863.588745,463
863.706177,449
863.82373,439
863.941162,464
864.058716,458
864.176208,439
864.29364,428
864.411194,467
864.528687,465
864.646118,460
864.763611,462
864.881042,473
864.998535,452
865.116028,463
865.233459,470
865.350891,474
865.468384,463
865.585754,489
865.703308,454
865.820679,468
865.938171,446
866.055542,456
866.173035,465
866.290466,460
866.407837,435
866.52533,475
866.6427,442
866.760071,446
866.877563,470
866.994934,440
867.112305,454
867.229736,464
867.347107,465
867.464539,478
867.58197,457
867.699341,479
867.81665,459
867.934082,461
868.051453,468
868.168823,477
868.286194,444
868.403564,464
868.520935,472
868.638306,455
868.755676,454
868.872986,460
868.990295,477
869.107727,491
869.225037,469
869.342346,453
869.459717,448
869.577026,469
869.694336,478
869.811707,480
869.929016,477
870.046326,482
870.163635,460
870.280945,468
870.398254,447
870.515564,455
870.632812,480
870.750183,471
870.867432,471
870.984741,487
871.102051,454
871.219299,467
871.336609,476
871.453918,443
871.571106,460
871.688416,460
871.805664,465
871.922852,469
872.040222,447
872.157471,462
872.274719,459
872.391968,485
872.509155,456
872.626465,480
872.743652,475
872.860962,462
872.978149,460
873.095337,469
873.212646,476
873.329834,464
873.44696,474
873.564209,468
873.681396,440
873.798645,491
873.915894,479
874.03302,471
874.150208,459
874.267456,453
874.384583,438
874.501831,461
874.618958,450
874.736145,461
874.853333,446
874.970459,460
875.087646,474
875.204834,486
875.32196,454
875.439148,455
875.556274,450
875.673401,469
875.790527,450
875.907715,463
876.024841,468
876.141968,465
876.259094,461
876.376282,465
876.493347,458
876.610474,470
876.7276,459
876.844727,481
876.961853,459
877.078918,477
877.195984,453
877.313171,458
877.430237,454
877.547302,470
877.664368,466
877.781433,476
877.898499,464
878.015625,450
878.13269,435
878.249695,465
878.366821,455
878.483887,466
878.600952,474
878.717957,467
878.834961,455
878.952087,452
879.069092,473
879.186157,472
879.303162,471
879.420227,457
879.537231,442
879.654236,479
879.77124,463
879.888306,463
880.005249,452
880.122314,466
880.239319,468
880.356323,466
880.473328,456
880.590271,465
880.707275,460
880.824341,478
880.941284,465
881.058228,465
881.175232,467
881.292236,463
881.40918,472
881.526123,465
881.643066,471
881.760071,460
881.877014,476
881.993958,484
882.11084,467
882.227783,471
882.344727,466
882.46167,464
882.578613,476
882.695618,468
882.812439,472
882.929382,461
883.046326,465
883.163208,475
883.280151,466
883.397034,453
883.513916,462
883.630798,452
883.747742,467
883.864563,486
883.981506,446
884.098389,448
884.21521,463
884.332153,469
884.448975,441
884.565796,464
884.682678,468
884.7995,463
884.916443,473
885.033264,472
885.150085,468
885.266968,491
885.383789,462
885.500671,460
885.617493,462
885.734314,471
885.851196,462
885.967896,476
886.084717,480
886.201599,493
886.318359,463
886.435181,472
886.552002,471
886.668762,479
886.785645,470
886.902344,462
887.019165,466
887.135925,484
887.252747,469
887.369446,473
887.486267,452
887.603027,485
887.719788,470
887.836548,487
887.953247,479
888.070068,474
888.186829,494
888.303528,474
888.420288,472
888.536987,468
888.653687,469
888.770447,461
888.887146,460
889.003967,489
889.120667,469
889.237305,464
889.354065,465
889.470703,483
889.587463,455
889.704163,481
889.820862,478
889.937561,483
890.054199,473
890.170837,485
890.287598,471
890.404236,464
890.520874,472
890.637634,456
890.754211,479
890.87085,489
890.987549,474
891.104187,479
891.220886,479
891.337463,463
891.454102,451
891.57074,499
891.687378,453
891.804077,473
891.920654,476
892.037231,477
892.15387,469
892.270447,472
892.387085,480
892.503723,481
892.6203,468
892.736877,484
892.853516,492
892.970032,490
893.08667,464
893.203186,485
893.319763,467
893.43634,483
893.552917,466
893.669556,478
893.786011,466
893.902588,455
894.019165,481
894.135681,483
894.252197,476
894.368835,470
894.485291,479
894.601868,481
894.718384,465
894.8349,510
894.951355,476
895.067932,482
895.184448,461
895.300964,492
895.417419,491
895.533936,467
895.650452,473
895.766907,470
895.883423,490
895.999878,478
896.116333,514
896.232849,486
896.349304,479
896.465759,471
896.582214,478
896.698669,491
896.815125,464
896.931641,471
897.048035,485
897.164551,482
897.280884,489
897.397339,488
897.513794,460
897.630249,470
897.746582,472
897.863098,483
897.979431,468
898.095886,481
898.212341,470
898.328674,478
898.445129,484
898.561462,471
898.677795,484
898.794312,486
898.910645,482
899.026978,492
899.143433,493
899.259766,475
899.37616,472
899.492493,478
899.608765,480
899.725159,474
899.841553,479
899.957947,472
900.07428,507
900.190552,484
900.306946,467
900.423157,477
900.53949,479
900.655884,477
900.772156,476
900.888489,459
901.004822,498
901.121033,480
901.237366,487
901.353699,479
901.46991,464
901.586304,486
901.702515,464
901.818787,485
901.93512,480
902.051331,495
902.167603,482
902.283875,498
902.400085,477
902.516418,481
902.632629,487
902.74884,486
902.865112,482
902.981384,493
903.097595,503
903.213867,477
903.330017,466
903.446289,481
903.5625,496
903.67865,476
903.794922,468
903.911072,468
904.027344,500
904.143494,494
904.259705,483
904.375916,503
904.492065,482
904.608215,473
904.724426,480
904.840576,499
904.956726,468
905.072876,495
905.189087,456
905.305176,508
905.421387,489
905.537537,492
905.653687,475
905.769775,510
905.885925,466
906.002014,495
906.118164,474
906.234314,484
906.350403,481
906.466492,481
906.582642,459
906.69873,504
906.814758,478
906.930908,479
907.046936,484
907.163086,497
907.279175,494
907.395264,477
907.511353,471
907.62738,484
907.743408,488
907.859497,485
907.975525,491
908.091553,474
908.207703,475
908.32373,470
908.439758,482
908.555786,485
908.671814,482
908.787842,488
908.90387,463
909.019775,475
909.135864,489
909.251892,493
909.367859,467
909.483826,488
909.599854,495
909.715881,501
909.831848,476
909.947815,497
910.063782,486
910.179749,482
910.295776,481
910.411743,472
910.527649,484
910.643616,507
910.759583,477
910.875488,463
910.991455,468
911.107361,495
911.223267,489
911.339294,477
911.4552,487
911.571106,469
911.687073,486
911.802979,494
911.918823,486
912.034729,469
912.150635,480
912.266602,494
912.382446,485
912.498352,495
912.614197,474
912.730103,493
912.846008,483
792.44574,605
792.56488,621
792.68396,671
792.80304,676
792.92218,603
793.041199,569
793.160339,619
793.279419,628
793.398499,611
793.517578,572
793.636658,581
793.755737,582
793.874817,633
793.993896,611
794.112976,584
794.232056,587
794.351074,617
794.470215,604
794.589233,606
794.708313,587
794.827393,607
794.946411,577
795.065552,602
795.18457,564
795.303589,610
795.422668,611
795.541687,605
795.660767,583
795.779846,607
795.898865,574
796.017883,599
796.136963,556
796.255981,581
796.375061,569
796.49408,589
796.613037,576
796.732117,590
796.851135,595
796.970154,590
797.089233,550
797.208191,569
797.327271,576
797.446228,585
797.565186,575
797.684265,585
797.803223,566
797.922241,579
798.04126,570
798.160278,584
798.279297,597
798.398315,585
798.517273,584
798.636292,573
798.75531,565
798.874268,558
798.993286,566
799.112244,566
799.231323,563
799.350281,560
799.469238,587
799.588257,542
799.707153,568
799.826111,563
799.945129,565
800.064087,588
800.183044,560
800.302063,574
800.421021,579
800.539978,574
800.658936,554
800.777893,571
800.896912,576
801.015747,607
801.134705,578
801.253723,572
801.37262,561
801.491638,565
801.610535,566
801.729492,582
801.84845,578
801.967407,583
802.086243,582
802.205261,598
802.324158,566
802.443115,586
802.562073,604
802.680969,592
802.799927,582
802.918762,576
803.037659,564
803.156677,586
803.275574,567
803.39447,595
803.513428,582
803.632263,608
803.751221,592
803.870117,598
803.989014,560
804.107971,569
804.226746,598
804.345642,611
804.4646,580
804.583496,595
804.702393,581
804.821228,614
804.940125,575
805.059021,590
805.177917,581
805.296814,604
805.415649,591
805.534546,626
805.653442,600
805.772278,599
805.891113,580
806.01001,617
806.128906,596
806.247742,589
806.366577,607
806.485413,604
806.604309,614
806.723145,607
806.84198,616
806.960876,614
807.079712,599
807.198486,625
807.317383,605
807.436218,604
807.554993,623
807.673889,643
807.792725,614
807.91156,621
808.030396,603
808.14917,613
808.268005,606
808.386841,614
808.505676,616
808.624451,615
808.743286,607
808.862122,636
808.980896,616
809.099731,632
809.218506,632
809.337341,631
809.456116,632
809.57489,633
809.693726,622
809.8125,636
809.931274,597
810.050049,620
810.168884,639
810.287659,619
810.406372,610
810.525269,613
810.643982,640
810.762756,606
810.881531,620
811.000305,611
811.11908,616
811.237854,622
811.356567,613
811.475403,619
811.594116,629
811.71283,620
811.831604,610
811.950378,625
812.069153,632
812.187927,608
812.30658,609
812.425415,604
812.544128,597
812.662781,624
812.781616,631
812.900269,629
813.019043,597
813.137756,627
813.256531,626
813.375244,637
813.493896,619
813.612671,622
813.731384,629
813.850037,625
813.96875,623
814.087524,588
814.206238,622
814.324951,611
814.443604,609
814.562256,605
814.68103,602
814.799683,614
814.918335,628
815.037109,610
815.155762,612
815.274475,639
815.393188,613
815.511841,604
815.630554,630
815.749146,600
815.867859,619
815.986572,594
816.105164,587
816.223877,608
816.342529,591
816.461182,622
816.579895,625
816.698486,633
816.817139,605
816.935791,613
817.054504,585
817.173096,605
817.291748,615
817.4104,611
817.529053,601
817.647644,599
817.766235,595
817.884949,588
818.00354,579
818.122192,564
818.240845,565
818.359436,571
818.478088,555
818.59668,546
818.715271,507
818.833923,543
818.952515,505
819.071106,531
819.189758,525
819.30835,528
819.426941,512
819.545532,535
819.664124,510
819.782715,498
819.901306,497
820.019897,501
820.138489,507
820.25708,509
820.375671,491
820.494202,493
820.612732,497
820.731384,502
820.849915,495
820.968506,505
821.087097,502
821.205627,502
821.324158,483
821.442749,493
821.561279,480
821.679871,495
821.798401,484
821.916931,481
822.035461,488
822.154053,502
822.272583,478
822.391174,472
822.509583,477
822.628174,512
822.746704,480
822.865234,471
822.983765,488
823.102295,495
823.220825,478
823.339294,486
823.457825,457
823.576355,493
823.694824,493
823.813354,496
823.931885,492
824.050354,487
824.168884,489
824.287354,496
824.405823,498
824.524353,509
824.642822,491
824.761353,514
824.879822,492
824.998291,500
825.116699,483
825.235291,497
825.353699,492
825.472168,468
825.590637,499
825.709106,483
825.827576,470
825.946045,480
826.064453,486
826.182983,462
826.301392,476
826.4198,498
826.53833,452
826.656738,465
826.775208,462
826.893677,465
827.012024,475
827.130493,462
827.248962,463
827.36731,491
827.485779,479
827.604248,471
827.722595,462
827.841064,458
827.959412,459
828.077942,476
828.196289,467
828.314636,451
828.433105,468
828.551514,465
828.669861,437
828.78833,470
828.906677,470
829.025085,466
829.143433,472
829.261841,463
829.38031,454
829.498657,450
829.617004,461
829.735413,458
829.85376,446
829.972107,463
830.090515,467
830.208862,469
830.327209,448
830.445557,470
830.563904,466
830.682312,454
830.800659,477
830.919006,472
831.037354,466
831.155701,458
831.274048,473
831.392395,455
831.51062,465
831.629028,468
831.747314,463
831.865662,464
831.984009,461
832.102356,445
832.220642,459
832.338928,453
832.457275,460
832.575623,452
832.693909,455
832.812134,455
832.930481,457
833.048828,465
833.167114,450
833.2854,475
833.403687,483
833.521973,460
833.640259,438
833.758545,482
833.876831,455
833.995056,464
834.113281,471
834.231628,469
834.349915,463
834.468201,466
834.586426,452
834.704651,449
834.822998,474
834.941162,489
835.059448,464
835.177673,469
835.295959,465
835.414246,461
835.53241,487
835.650635,450
835.768921,456
835.887146,476
836.005371,477
836.123596,478
836.241821,458
836.360046,464
836.478271,456
836.596497,473
836.714722,458
836.832886,497
836.95105,462
837.069336,493
837.1875,478
837.305725,482
837.423889,499
837.542053,494
837.660339,474
837.778503,483
837.896667,483
838.014832,483
838.132996,460
838.25116,469
838.369385,485
838.487488,473
838.605713,482
838.723877,474
838.84198,467
838.960205,487
839.078308,496
839.196472,486
839.314636,472
839.4328,488
839.550964,480
839.669067,486
839.787231,479
839.905396,461
840.023499,451
840.141602,461
840.259766,463
840.377869,485
840.495972,463
840.614136,484
840.732239,489
840.850342,473
840.968445,482
841.086548,468
841.204651,450
841.322754,457
841.440918,473
841.55896,484
841.677002,463
841.795166,489
841.913208,460
842.031311,468
842.149353,489
842.267456,463
842.385498,435
842.503601,462
842.621643,458
842.739746,473
842.857788,475
842.97583,461
843.093933,445
843.211975,449
843.330017,461
843.44812,450
843.566101,445
843.684204,458
843.802246,443
843.920227,476
844.038269,451
844.156311,453
844.274292,448
844.392395,450
844.510376,452
844.628357,471
844.74646,451
844.864441,469
844.982422,452
845.100403,468
845.218384,467
845.336426,449
845.454468,469
845.572449,446
845.69043,458
845.808411,446
845.926453,454
846.044373,458
846.162354,459
846.280396,450
846.398315,447
846.516296,463
846.634216,447
846.752197,469
846.870178,464
846.988098,472
847.106079,463
847.22406,464
847.34198,455
847.4599,454
847.577881,459
847.695801,452
847.813782,451
847.931641,453
848.049561,444
848.167603,477
848.285461,453
848.403381,469
848.521362,461
848.639221,462
848.75708,458
848.875,464
848.99292,451
849.110901,459
849.22876,461
849.34668,448
849.464539,459
849.582458,450
849.700317,453
849.818176,453
849.936096,458
850.053955,463
850.171875,438
850.289673,480
850.407593,456
850.525452,461
850.643311,446
850.761169,468
850.878967,445
850.996887,470
851.114746,445
851.232544,460
851.350403,452
851.468262,476
851.58606,472
851.703979,456
851.821777,462
851.939636,452
852.057434,437
852.175232,454
852.293091,458
852.410889,449
852.528687,461
852.646545,473
852.764343,450
852.88208,463
852.999939,453
853.117676,469
853.235535,453
853.353271,470
853.471069,460
853.588928,453
853.706604,439
853.824402,463
853.9422,459
854.059998,458
854.177734,447
854.295532,444
854.413269,446
854.531006,450
854.648804,446
854.766541,471
854.884277,477
855.002014,446
855.119751,459
855.237549,465
855.355225,468
855.473022,474
855.590698,464
855.708435,459
855.826172,447
855.943848,464
856.061646,452
856.179321,476
856.296997,466
856.414795,475
856.53241,461
856.650085,469
856.767822,485
856.885559,457
857.003174,478
857.120911,471
857.238586,444
857.356201,476
857.473938,476
857.591614,469
857.709351,466
857.826965,466
857.944641,461
858.062317,477
858.179993,469
858.297668,461
858.415283,464
858.532959,463
858.650574,464
858.768188,459
858.885803,452
859.003479,457
859.121094,466
859.23877,477
859.356384,468
859.473999,450
859.591675,457
859.709229,466
859.826843,463
859.944458,464
860.062012,462
860.179626,472
860.297302,463
860.414856,459
860.532471,476
860.650024,470
860.767639,466
860.885193,476
861.002808,458
861.120361,460
861.237976,467
861.35553,465
861.473022,455
861.590698,460
861.708191,455
861.825745,473
861.943298,468
862.060852,461
862.178406,456
862.295959,466
862.413513,428
862.531006,465
862.64856,481
862.766113,450
862.883667,462
863.00116,481
863.118713,455
863.236206,460
863.353699,452
863.471252,449
863.588745,468
863.706177,450
863.82373,472
863.941162,469
864.058716,457
864.176208,467
864.29364,455
864.411194,474
864.528687,467
864.646118,468
864.763611,445
864.881042,459
864.998535,475
865.116028,457
865.233459,469
865.350891,458
865.468384,458
865.585754,473
865.703308,485
865.820679,473
865.938171,453
866.055542,473
866.173035,467
866.290466,463
866.407837,471
866.52533,472
866.6427,463
866.760071,459
866.877563,472
866.994934,446
867.112305,462
867.229736,470
867.347107,446
867.464539,473
867.58197,478
867.699341,456
867.81665,451
867.934082,471
868.051453,467
868.168823,461
868.286194,479
868.403564,479
868.520935,448
868.638306,456
868.755676,455
868.872986,472
868.990295,468
869.107727,473
869.225037,485
869.342346,474
869.459717,451
869.577026,461
869.694336,483
869.811707,489
869.929016,448
870.046326,461
870.163635,477
870.280945,476
870.398254,460
870.515564,466
870.632812,458
870.750183,462
870.867432,471
870.984741,472
871.102051,479
871.219299,471
871.336609,462
871.453918,461
871.571106,461
871.688416,466
871.805664,469
871.922852,474
872.040222,454
872.157471,473
872.274719,469
872.391968,467
872.509155,465
872.626465,470
872.743652,463
872.860962,459
872.978149,443
873.095337,480
873.212646,475
873.329834,472
873.44696,481
873.564209,465
873.681396,474
873.798645,467
873.915894,453
874.03302,465
874.150208,481
874.267456,467
874.384583,463
874.501831,454
874.618958,453
874.736145,478
874.853333,448
874.970459,462
875.087646,450
875.204834,464
875.32196,458
875.439148,474
875.556274,473
875.673401,476
875.790527,464
875.907715,457
876.024841,461
876.141968,475
876.259094,457
876.376282,456
876.493347,464
876.610474,478
876.7276,472
876.844727,466
876.961853,480
877.078918,466
877.195984,477
877.313171,460
877.430237,475
877.547302,475
877.664368,460
877.781433,468
877.898499,479
878.015625,474
878.13269,461
878.249695,467
878.366821,441
878.483887,479
878.600952,488
878.717957,481
878.834961,473
878.952087,455
879.069092,445
879.186157,467
879.303162,436
879.420227,462
879.537231,476
879.654236,473
879.77124,458
879.888306,485
880.005249,457
880.122314,459
880.239319,466
880.356323,474
880.473328,476
880.590271,472
880.707275,452
880.824341,471
880.941284,468
881.058228,481
881.175232,461
881.292236,450
881.40918,460
881.526123,475
881.643066,479
881.760071,456
881.877014,440
881.993958,461
882.11084,475
882.227783,484
882.344727,452
882.46167,464
882.578613,463
882.695618,475
882.812439,467
882.929382,472
883.046326,446
883.163208,456
883.280151,474
883.397034,475
883.513916,481
883.630798,478
883.747742,458
883.864563,465
883.981506,456
884.098389,480
884.21521,478
884.332153,463
884.448975,453
884.565796,465
884.682678,481
884.7995,463
884.916443,474
885.033264,489
885.150085,492
885.266968,464
885.383789,479
885.500671,489
885.617493,469
885.734314,475
885.851196,461
885.967896,482
886.084717,469
886.201599,467
886.318359,473
886.435181,488
886.552002,440
886.668762,468
886.785645,482
886.902344,464
887.019165,461
887.135925,474
887.252747,474
887.369446,466
887.486267,454
887.603027,486
887.719788,469
887.836548,480
887.953247,495
888.070068,483
888.186829,486
888.303528,488
888.420288,497
888.536987,484
888.653687,479
888.770447,488
888.887146,491
889.003967,474
889.120667,474
889.237305,487
889.354065,472
889.470703,468
889.587463,478
889.704163,480
889.820862,468
889.937561,480
890.054199,479
890.170837,471
890.287598,479
890.404236,493
890.520874,471
890.637634,480
890.754211,447
890.87085,481
890.987549,471
891.104187,464
891.220886,470
891.337463,495
891.454102,492
891.57074,491
891.687378,475
891.804077,468
891.920654,487
892.037231,494
892.15387,481
892.270447,475
892.387085,463
892.503723,483
892.6203,467
892.736877,481
892.853516,470
892.970032,468
893.08667,473
893.203186,485
893.319763,474
893.43634,481
893.552917,469
893.669556,467
893.786011,470
893.902588,471
894.019165,470
894.135681,488
894.252197,470
894.368835,496
894.485291,471
894.601868,490
894.718384,468
894.8349,470
894.951355,478
895.067932,489
895.184448,472
895.300964,477
895.417419,473
895.533936,477
895.650452,469
895.766907,476
895.883423,485
895.999878,486
896.116333,474
896.232849,478
896.349304,503
896.465759,470
896.582214,485
896.698669,486
896.815125,482
896.931641,478
897.048035,481
897.164551,478
897.280884,475
897.397339,464
897.513794,470
897.630249,482
897.746582,476
897.863098,471
897.979431,479
898.095886,486
898.212341,472
898.328674,491
898.445129,487
898.561462,471
898.677795,485
898.794312,476
898.910645,467
899.026978,501
899.143433,477
899.259766,465
899.37616,487
899.492493,491
899.608765,481
899.725159,464
899.841553,468
899.957947,492
900.07428,481
900.190552,496
900.306946,494
900.423157,487
900.53949,497
900.655884,478
900.772156,476
900.888489,480
901.004822,483
901.121033,471
901.237366,468
901.353699,512
901.46991,487
901.586304,477
901.702515,473
901.818787,493
901.93512,493
902.051331,487
902.167603,491
902.283875,500
902.400085,479
902.516418,491
902.632629,501
902.74884,491
902.865112,502
902.981384,485
903.097595,472
903.213867,506
903.330017,475
903.446289,499
903.5625,465
903.67865,477
903.794922,482
903.911072,516
904.027344,489
904.143494,486
904.259705,474
904.375916,494
904.492065,476
904.608215,494
904.724426,489
904.840576,486
904.956726,497
905.072876,470
905.189087,478
905.305176,496
905.421387,481
905.537537,492
905.653687,471
905.769775,473
905.885925,474
906.002014,494
906.118164,482
906.234314,503
906.350403,461
906.466492,490
906.582642,486
906.69873,484
906.814758,483
906.930908,492
907.046936,478
907.163086,495
907.279175,504
907.395264,487
907.511353,475
907.62738,495
907.743408,471
907.859497,495
907.975525,487
908.091553,482
908.207703,475
908.32373,488
908.439758,480
908.555786,507
908.671814,501
908.787842,480
908.90387,487
909.019775,495
909.135864,465
909.251892,491
909.367859,479
909.483826,469
909.599854,494
909.715881,484
909.831848,476
909.947815,492
910.063782,484
910.179749,499
910.295776,482
910.411743,495
910.527649,499
910.643616,509
910.759583,470
910.875488,483
910.991455,485
911.107361,482
911.223267,503
911.339294,490
911.4552,479
911.571106,490
911.687073,510
911.802979,489
911.918823,484
912.034729,495
912.150635,504
912.266602,504
912.382446,487
912.498352,500
912.614197,481
912.730103,519
912.846008,481
