792.44574,619
792.56488,617
792.68396,659
792.80304,629
792.92218,595
793.041199,577
793.160339,572
793.279419,587
793.398499,586
793.517578,561
793.636658,579
793.755737,588
793.874817,588
793.993896,620
794.112976,592
794.232056,565
794.351074,567
794.470215,568
794.589233,552
794.708313,545
794.827393,591
794.946411,568
795.065552,574
795.18457,561
795.303589,559
795.422668,560
795.541687,579
795.660767,564
795.779846,551
795.898865,548
796.017883,550
796.136963,563
796.255981,568
796.375061,557
796.49408,563
796.613037,549
796.732117,555
796.851135,538
796.970154,574
797.089233,540
797.208191,565
797.327271,565
797.446228,568
797.565186,552
797.684265,542
797.803223,557
797.922241,541
798.04126,545
798.160278,530
798.279297,553
798.398315,547
798.517273,541
798.636292,521
798.75531,571
798.874268,570
798.993286,548
799.112244,565
799.231323,570
799.350281,559
799.469238,540
799.588257,553
799.707153,528
799.826111,561
799.945129,536
800.064087,538
800.183044,566
800.302063,560
800.421021,545
800.539978,551
800.658936,539
800.777893,525
800.896912,558
801.015747,551
801.134705,567
801.253723,539
801.37262,540
801.491638,564
801.610535,560
801.729492,543
801.84845,576
801.967407,574
802.086243,545
802.205261,540
802.324158,553
802.443115,579
802.562073,567
802.680969,557
802.799927,566
802.918762,549
803.037659,562
803.156677,569
803.275574,547
803.39447,533
803.513428,541
803.632263,593
803.751221,547
803.870117,554
803.989014,553
804.107971,572
804.226746,548
804.345642,550
804.4646,537
804.583496,575
804.702393,545
804.821228,562
804.940125,571
805.059021,577
805.177917,570
805.296814,559
805.415649,577
805.534546,582
805.653442,554
805.772278,582
805.891113,583
806.01001,569
806.128906,569
806.247742,580
806.366577,582
806.485413,588
806.604309,593
806.723145,574
806.84198,590
806.960876,571
807.079712,563
807.198486,566
807.317383,558
807.436218,550
807.554993,569
807.673889,582
807.792725,576
807.91156,598
808.030396,576
808.14917,568
808.268005,570
808.386841,571
808.505676,594
808.624451,579
808.743286,578
808.862122,575
808.980896,570
809.099731,572
809.218506,591
809.337341,590
809.456116,580
809.57489,589
809.693726,573
809.8125,577
809.931274,574
810.050049,589
810.168884,565
810.287659,564
810.406372,598
810.525269,565
810.643982,592
810.762756,586
810.881531,575
811.000305,603
811.11908,572
811.237854,604
811.356567,580
811.475403,596
811.594116,581
811.71283,581
811.831604,605
811.950378,591
812.069153,613
812.187927,581
812.30658,610
812.425415,594
812.544128,581
812.662781,584
812.781616,598
812.900269,589
813.019043,593
813.137756,583
813.256531,590
813.375244,595
813.493896,599
813.612671,594
813.731384,596
813.850037,593
813.96875,587
814.087524,550
814.206238,576
814.324951,571
814.443604,582
814.562256,563
814.68103,574
814.799683,571
814.918335,563
815.037109,578
815.155762,587
815.274475,585
815.393188,578
815.511841,569
815.630554,573
815.749146,571
815.867859,573
815.986572,558
816.105164,562
816.223877,579
816.342529,565
816.461182,571
816.579895,582
816.698486,571
816.817139,574
816.935791,606
817.054504,590
817.173096,555
817.291748,559
817.4104,555
817.529053,546
817.647644,565
817.766235,555
817.884949,547
818.00354,526
818.122192,522
818.240845,524
818.359436,501
818.478088,527
818.59668,491
818.715271,510
818.833923,509
818.952515,506
819.071106,483
819.189758,494
819.30835,495
819.426941,476
819.545532,503
819.664124,492
819.782715,501
819.901306,488
820.019897,492
820.138489,507
820.25708,484
820.375671,487
820.494202,469
820.612732,493
820.731384,464
820.849915,496
820.968506,501
821.087097,478
821.205627,469
821.324158,495
821.442749,491
821.561279,484
821.679871,476
821.798401,483
821.916931,463
822.035461,481
822.154053,474
822.272583,473
822.391174,474
822.509583,498
822.628174,481
822.746704,456
822.865234,495
822.983765,471
823.102295,498
823.220825,470
823.339294,470
823.457825,474
823.576355,458
823.694824,474
823.813354,466
823.931885,480
824.050354,476
824.168884,459
824.287354,472
824.405823,482
824.524353,471
824.642822,489
824.761353,468
824.879822,496
824.998291,485
825.116699,490
825.235291,476
825.353699,473
825.472168,446
825.590637,453
825.709106,476
825.827576,469
825.946045,460
826.064453,497
826.182983,473
826.301392,459
826.4198,459
826.53833,456
826.656738,444
826.775208,470
826.893677,461
827.012024,467
827.130493,485
827.248962,461
827.36731,457
827.485779,462
827.604248,470
827.722595,465
827.841064,450
827.959412,472
828.077942,464
828.196289,445
828.314636,437
828.433105,465
828.551514,484
828.669861,454
828.78833,444
828.906677,444
829.025085,457
829.143433,453
829.261841,447
829.38031,450
829.498657,462
829.617004,459
829.735413,458
829.85376,445
829.972107,459
830.090515,462
830.208862,448
830.327209,450
830.445557,467
830.563904,454
830.682312,460
830.800659,449
830.919006,467
831.037354,481
831.155701,455
831.274048,457
831.392395,459
831.51062,463
831.629028,445
831.747314,463
831.865662,450
831.984009,471
832.102356,455
832.220642,449
832.338928,457
832.457275,468
832.575623,464
832.693909,463
832.812134,438
832.930481,459
833.048828,458
833.167114,447
833.2854,461
833.403687,451
833.521973,468
833.640259,435
833.758545,464
833.876831,453
833.995056,464
834.113281,457
834.231628,454
834.349915,465
834.468201,460
834.586426,461
834.704651,458
834.822998,446
834.941162,482
835.059448,458
835.177673,457
835.295959,456
835.414246,459
835.53241,492
835.650635,444
835.768921,468
835.887146,460
836.005371,455
836.123596,474
836.241821,448
836.360046,465
836.478271,477
836.596497,464
836.714722,477
836.832886,471
836.95105,455
837.069336,460
837.1875,458
837.305725,476
837.423889,470
837.542053,467
837.660339,465
837.778503,468
837.896667,455
838.014832,494
838.132996,477
838.25116,483
838.369385,465
838.487488,479
838.605713,453
838.723877,482
838.84198,459
838.960205,474
839.078308,460
839.196472,448
839.314636,472
839.4328,465
839.550964,475
839.669067,475
839.787231,478
839.905396,463
840.023499,443
840.141602,473
840.259766,462
840.377869,462
840.495972,439
840.614136,462
840.732239,456
840.850342,474
840.968445,447
841.086548,460
841.204651,468
841.322754,458
841.440918,450
841.55896,462
841.677002,469
841.795166,465
841.913208,451
842.031311,470
842.149353,472
842.267456,444
842.385498,447
842.503601,464
842.621643,458
842.739746,456
842.857788,457
842.97583,455
843.093933,440
843.211975,445
843.330017,445
843.44812,447
843.566101,453
843.684204,446
843.802246,465
843.920227,439
844.038269,463
844.156311,440
844.274292,453
844.392395,433
844.510376,465
844.628357,451
844.74646,445
844.864441,449
844.982422,436
845.100403,428
845.218384,457
845.336426,445
845.454468,451
845.572449,461
845.69043,444
845.808411,455
845.926453,452
846.044373,461
846.162354,455
846.280396,440
846.398315,448
846.516296,434
846.634216,445
846.752197,447
846.870178,460
846.988098,449
847.106079,452
847.22406,442
847.34198,462
847.4599,461
847.577881,439
847.695801,442
847.813782,474
847.931641,453
848.049561,456
848.167603,440
848.285461,433
848.403381,450
848.521362,462
848.639221,446
848.75708,453
848.875,467
848.99292,484
849.110901,454
849.22876,460
849.34668,450
849.464539,448
849.582458,451
849.700317,449
849.818176,443
849.936096,478
850.053955,444
850.171875,450
850.289673,458
850.407593,448
850.525452,442
850.643311,465
850.761169,475
850.878967,445
850.996887,443
851.114746,447
851.232544,453
851.350403,459
851.468262,453
851.58606,455
851.703979,453
851.821777,464
851.939636,436
852.057434,464
852.175232,460
852.293091,435
852.410889,469
852.528687,446
852.646545,453
852.764343,447
852.88208,451
852.999939,453
853.117676,450
853.235535,446
853.353271,458
853.471069,440
853.588928,462
853.706604,463
853.824402,448
853.9422,453
854.059998,474
854.177734,463
854.295532,436
854.413269,449
854.531006,457
854.648804,476
854.766541,445
854.884277,455
855.002014,462
855.119751,436
855.237549,457
855.355225,475
855.473022,456
855.590698,464
855.708435,478
855.826172,465
855.943848,446
856.061646,456
856.179321,461
856.296997,462
856.414795,471
856.53241,464
856.650085,448
856.767822,468
856.885559,455
857.003174,456
857.120911,483
857.238586,464
857.356201,435
857.473938,475
857.591614,465
857.709351,479
857.826965,463
857.944641,459
858.062317,474
858.179993,440
858.297668,458
858.415283,458
858.532959,452
858.650574,462
858.768188,459
858.885803,462
859.003479,456
859.121094,458
859.23877,454
859.356384,458
859.473999,453
859.591675,465
859.709229,475
859.826843,471
859.944458,451
860.062012,453
860.179626,453
860.297302,457
860.414856,445
860.532471,454
860.650024,466
860.767639,461
860.885193,463
861.002808,452
861.120361,457
861.237976,472
861.35553,453
861.473022,435
861.590698,447
861.708191,459
861.825745,455
861.943298,456
862.060852,446
862.178406,453
862.295959,449
862.413513,454
862.531006,458
862.64856,456
862.766113,447
862.883667,464
863.00116,454
863.118713,466
863.236206,435
863.353699,442
863.471252,447
863.588745,444
863.706177,445
863.82373,465
863.941162,452
864.058716,452
864.176208,456
864.29364,446
864.411194,455
864.528687,437
864.646118,458
864.763611,460
864.881042,460
864.998535,457
865.116028,466
865.233459,466
865.350891,447
865.468384,449
865.585754,452
865.703308,457
865.820679,479
865.938171,449
866.055542,474
866.173035,468
866.290466,452
866.407837,464
866.52533,451
866.6427,449
866.760071,464
866.877563,455
866.994934,479
867.112305,456
867.229736,450
867.347107,460
867.464539,454
867.58197,456
867.699341,443
867.81665,459
867.934082,459
868.051453,442
868.168823,463
868.286194,458
868.403564,454
868.520935,457
868.638306,456
868.755676,457
868.872986,461
868.990295,462
869.107727,463
869.225037,454
869.342346,479
869.459717,451
869.577026,467
869.694336,462
869.811707,455
869.929016,478
870.046326,477
870.163635,455
870.280945,453
870.398254,474
870.515564,487
870.632812,458
870.750183,462
870.867432,471
870.984741,450
871.102051,477
871.219299,470
871.336609,443
871.453918,465
871.571106,464
871.688416,459
871.805664,456
871.922852,470
872.040222,452
872.157471,441
872.274719,463
872.391968,461
872.509155,456
872.626465,459
872.743652,443
872.860962,470
872.978149,482
873.095337,478
873.212646,479
873.329834,437
873.44696,466
873.564209,458
873.681396,468
873.798645,444
873.915894,454
874.03302,472
874.150208,467
874.267456,468
874.384583,462
874.501831,458
874.618958,455
874.736145,468
874.853333,457
874.970459,460
875.087646,453
875.204834,451
875.32196,448
875.439148,469
875.556274,467
875.673401,458
875.790527,481
875.907715,470
876.024841,454
876.141968,450
876.259094,458
876.376282,452
876.493347,493
876.610474,472
876.7276,466
876.844727,457
876.961853,492
877.078918,469
877.195984,449
877.313171,461
877.430237,471
877.547302,480
877.664368,462
877.781433,467
877.898499,491
878.015625,461
878.13269,474
878.249695,474
878.366821,470
878.483887,475
878.600952,439
878.717957,481
878.834961,451
878.952087,488
879.069092,456
879.186157,458
879.303162,469
879.420227,463
879.537231,464
879.654236,454
879.77124,474
879.888306,485
880.005249,475
880.122314,449
880.239319,475
880.356323,450
880.473328,491
880.590271,455
880.707275,446
880.824341,461
880.941284,468
881.058228,448
881.175232,466
881.292236,465
881.40918,456
881.526123,461
881.643066,478
881.760071,458
881.877014,461
881.993958,467
882.11084,449
882.227783,478
882.344727,457
882.46167,459
882.578613,462
882.695618,464
882.812439,470
882.929382,475
883.046326,474
883.163208,468
883.280151,465
883.397034,481
883.513916,441
883.630798,464
883.747742,458
883.864563,455
883.981506,470
884.098389,438
884.21521,468
884.332153,452
884.448975,468
884.565796,460
884.682678,484
884.7995,472
884.916443,466
885.033264,475
885.150085,460
885.266968,479
885.383789,467
885.500671,482
885.617493,473
885.734314,460
885.851196,473
885.967896,464
886.084717,477
886.201599,460
886.318359,483
886.435181,454
886.552002,486
886.668762,471
886.785645,474
886.902344,459
887.019165,463
887.135925,449
887.252747,478
887.369446,482
887.486267,466
887.603027,459
887.719788,473
887.836548,486
887.953247,457
888.070068,473
888.186829,465
888.303528,472
888.420288,454
888.536987,478
888.653687,482
888.770447,463
888.887146,467
889.003967,473
889.120667,463
889.237305,484
889.354065,462
889.470703,457
889.587463,476
889.704163,478
889.820862,468
889.937561,458
890.054199,477
890.170837,467
890.287598,456
890.404236,482
890.520874,471
890.637634,483
890.754211,460
890.87085,467
890.987549,471
891.104187,488
891.220886,494
891.337463,455
891.454102,494
891.57074,484
891.687378,454
891.804077,467
891.920654,474
892.037231,470
892.15387,468
892.270447,456
892.387085,472
892.503723,471
892.6203,484
892.736877,475
892.853516,478
892.970032,466
893.08667,484
893.203186,479
893.319763,462
893.43634,481
893.552917,499
893.669556,488
893.786011,481
893.902588,486
894.019165,494
894.135681,464
894.252197,460
894.368835,459
894.485291,444
894.601868,466
894.718384,482
894.8349,477
894.951355,511
895.067932,467
895.184448,468
895.300964,470
895.417419,464
895.533936,457
895.650452,483
895.766907,482
895.883423,503
895.999878,471
896.116333,474
896.232849,466
896.349304,470
896.465759,480
896.582214,483
896.698669,465
896.815125,495
896.931641,472
897.048035,487
897.164551,476
897.280884,472
897.397339,497
897.513794,470
897.630249,460
897.746582,479
897.863098,471
897.979431,485
898.095886,478
898.212341,483
898.328674,469
898.445129,476
898.561462,491
898.677795,476
898.794312,449
898.910645,479
899.026978,480
899.143433,485
899.259766,481
899.37616,481
899.492493,486
899.608765,481
899.725159,471
899.841553,490
899.957947,467
900.07428,502
900.190552,468
900.306946,474
900.423157,469
900.53949,486
900.655884,457
900.772156,473
900.888489,480
901.004822,486
901.121033,469
901.237366,482
901.353699,456
901.46991,488
901.586304,478
901.702515,482
901.818787,488
901.93512,476
902.051331,487
902.167603,488
902.283875,488
902.400085,482
902.516418,494
902.632629,500
902.74884,481
902.865112,482
902.981384,467
903.097595,471
903.213867,494
903.330017,481
903.446289,492
903.5625,467
903.67865,467
903.794922,479
903.911072,480
904.027344,483
904.143494,473
904.259705,475
904.375916,495
904.492065,458
904.608215,482
904.724426,479
904.840576,469
904.956726,481
905.072876,481
905.189087,485
905.305176,487
905.421387,476
905.537537,494
905.653687,480
905.769775,485
905.885925,502
906.002014,473
906.118164,491
906.234314,469
906.350403,485
906.466492,500
906.582642,487
906.69873,475
906.814758,495
906.930908,470
907.046936,478
907.163086,470
907.279175,492
907.395264,463
907.511353,490
907.62738,466
907.743408,502
907.859497,485
907.975525,461
908.091553,491
908.207703,502
908.32373,495
908.439758,499
908.555786,513
908.671814,482
908.787842,473
908.90387,501
909.019775,487
909.135864,473
909.251892,475
909.367859,479
909.483826,482
909.599854,465
909.715881,486
909.831848,486
909.947815,466
910.063782,489
910.179749,476
910.295776,464
910.411743,484
910.527649,502
910.643616,459
910.759583,478
910.875488,488
910.991455,475
911.107361,462
911.223267,473
911.339294,480
911.4552,480
911.571106,473
911.687073,480
911.802979,477
911.918823,487
912.034729,479
912.150635,475
912.266602,481
912.382446,487
912.498352,458
912.614197,478
912.730103,486
912.846008,486
792.44574,600
792.56488,629
792.68396,685
792.80304,621
792.92218,604
793.041199,583
793.160339,559
793.279419,579
793.398499,605
793.517578,584
793.636658,588
793.755737,590
793.874817,595
793.993896,610
794.112976,560
794.232056,569
794.351074,567
794.470215,546
794.589233,572
794.708313,572
794.827393,567
794.946411,586
795.065552,575
795.18457,580
795.303589,556
795.422668,576
795.541687,582
795.660767,587
795.779846,563
795.898865,564
796.017883,572
796.136963,560
796.255981,578
796.375061,548
796.49408,560
796.613037,563
796.732117,553
796.851135,548
796.970154,553
797.089233,557
797.208191,559
797.327271,562
797.446228,540
797.565186,553
797.684265,550
797.803223,549
797.922241,566
798.04126,568
798.160278,569
798.279297,559
798.398315,563
798.517273,557
798.636292,557
798.75531,552
798.874268,555
798.993286,567
799.112244,538
799.231323,556
799.350281,556
799.469238,563
799.588257,543
799.707153,555
799.826111,564
799.945129,558
800.064087,549
800.183044,578
800.302063,553
800.421021,545
800.539978,535
800.658936,562
800.777893,567
800.896912,531
801.015747,552
801.134705,562
801.253723,547
801.37262,544
801.491638,591
801.610535,551
801.729492,563
801.84845,577
801.967407,565
802.086243,549
802.205261,549
802.324158,556
802.443115,540
802.562073,552
802.680969,566
802.799927,548
802.918762,551
803.037659,571
803.156677,561
803.275574,581
803.39447,547
803.513428,558
803.632263,574
803.751221,563
803.870117,570
803.989014,561
804.107971,549
804.226746,571
804.345642,563
804.4646,573
804.583496,554
804.702393,564
804.821228,576
804.940125,584
805.059021,559
805.177917,552
805.296814,564
805.415649,564
805.534546,570
805.653442,567
805.772278,545
805.891113,579
806.01001,583
806.128906,559
806.247742,587
806.366577,571
806.485413,581
806.604309,573
806.723145,574
806.84198,562
806.960876,579
807.079712,568
807.198486,571
807.317383,550
807.436218,560
807.554993,583
807.673889,581
807.792725,576
807.91156,566
808.030396,573
808.14917,596
808.268005,558
808.386841,563
808.505676,583
808.624451,577
808.743286,584
808.862122,577
808.980896,571
809.099731,580
809.218506,584
809.337341,594
809.456116,537
809.57489,588
809.693726,583
809.8125,590
809.931274,567
810.050049,599
810.168884,560
810.287659,605
810.406372,612
810.525269,611
810.643982,576
810.762756,603
810.881531,593
811.000305,592
811.11908,584
811.237854,599
811.356567,588
811.475403,574
811.594116,571
811.71283,567
811.831604,589
811.950378,593
812.069153,634
812.187927,610
812.30658,584
812.425415,573
812.544128,592
812.662781,597
812.781616,579
812.900269,578
813.019043,584
813.137756,609
813.256531,582
813.375244,590
813.493896,597
813.612671,604
813.731384,589
813.850037,582
813.96875,580
814.087524,600
814.206238,576
814.324951,569
814.443604,611
814.562256,555
814.68103,564
814.799683,574
814.918335,598
815.037109,604
815.155762,606
815.274475,567
815.393188,572
815.511841,563
815.630554,591
815.749146,581
815.867859,554
815.986572,577
816.105164,592
816.223877,585
816.342529,555
816.461182,584
816.579895,553
816.698486,572
816.817139,565
816.935791,590
817.054504,564
817.173096,568
817.291748,598
817.4104,579
817.529053,562
817.647644,569
817.766235,557
817.884949,547
818.00354,536
818.122192,560
818.240845,510
818.359436,518
818.478088,550
818.59668,533
818.715271,522
818.833923,510
818.952515,498
819.071106,526
819.189758,507
819.30835,519
819.426941,495
819.545532,529
819.664124,506
819.782715,492
819.901306,490
820.019897,489
820.138489,496
820.25708,505
820.375671,489
820.494202,481
820.612732,508
820.731384,492
820.849915,463
820.968506,505
821.087097,484
821.205627,480
821.324158,483
821.442749,493
821.561279,489
821.679871,479
821.798401,476
821.916931,489
822.035461,464
822.154053,462
822.272583,468
822.391174,481
822.509583,473
822.628174,478
822.746704,487
822.865234,498
822.983765,483
823.102295,477
823.220825,491
823.339294,466
823.457825,473
823.576355,468
823.694824,469
823.813354,477
823.931885,474
824.050354,475
824.168884,482
824.287354,477
824.405823,482
824.524353,471
824.642822,474
824.761353,492
824.879822,485
824.998291,474
825.116699,487
825.235291,471
825.353699,462
825.472168,477
825.590637,483
825.709106,476
825.827576,473
825.946045,468
826.064453,486
826.182983,459
826.301392,486
826.4198,486
826.53833,476
826.656738,453
826.775208,471
826.893677,473
827.012024,454
827.130493,454
827.248962,468
827.36731,449
827.485779,457
827.604248,461
827.722595,447
827.841064,468
827.959412,460
828.077942,471
828.196289,469
828.314636,457
828.433105,461
828.551514,469
828.669861,469
828.78833,455
828.906677,452
829.025085,443
829.143433,476
829.261841,454
829.38031,454
829.498657,452
829.617004,463
829.735413,466
829.85376,470
829.972107,464
830.090515,450
830.208862,464
830.327209,444
830.445557,462
830.563904,478
830.682312,460
830.800659,473
830.919006,443
831.037354,461
831.155701,454
831.274048,460
831.392395,449
831.51062,435
831.629028,461
831.747314,446
831.865662,431
831.984009,461
832.102356,460
832.220642,466
832.338928,446
832.457275,460
832.575623,445
832.693909,443
832.812134,462
832.930481,461
833.048828,442
833.167114,450
833.2854,446
833.403687,466
833.521973,474
833.640259,445
833.758545,431
833.876831,455
833.995056,460
834.113281,454
834.231628,452
834.349915,454
834.468201,471
834.586426,461
834.704651,464
834.822998,462
834.941162,448
835.059448,466
835.177673,463
835.295959,451
835.414246,472
835.53241,460
835.650635,472
835.768921,454
835.887146,465
836.005371,429
836.123596,455
836.241821,470
836.360046,471
836.478271,453
836.596497,474
836.714722,469
836.832886,485
836.95105,472
837.069336,474
837.1875,478
837.305725,467
837.423889,483
837.542053,475
837.660339,487
837.778503,483
837.896667,465
838.014832,478
838.132996,472
838.25116,459
838.369385,465
838.487488,462
838.605713,476
838.723877,479
838.84198,474
838.960205,445
839.078308,471
839.196472,478
839.314636,472
839.4328,466
839.550964,456
839.669067,467
839.787231,441
839.905396,482
840.023499,433
840.141602,465
840.259766,469
840.377869,465
840.495972,475
840.614136,464
840.732239,457
840.850342,464
840.968445,479
841.086548,474
841.204651,446
841.322754,466
841.440918,452
841.55896,467
841.677002,447
841.795166,470
841.913208,463
842.031311,454
842.149353,462
842.267456,475
842.385498,462
842.503601,458
842.621643,459
842.739746,453
842.857788,465
842.97583,456
843.093933,472
843.211975,458
843.330017,457
843.44812,468
843.566101,445
843.684204,459
843.802246,458
843.920227,459
844.038269,440
844.156311,463
844.274292,455
844.392395,446
844.510376,453
844.628357,446
844.74646,452
844.864441,464
844.982422,459
845.100403,442
845.218384,461
845.336426,450
845.454468,447
845.572449,458
845.69043,461
845.808411,467
845.926453,463
846.044373,459
846.162354,432
846.280396,459
846.398315,469
846.516296,450
846.634216,462
846.752197,443
846.870178,434
846.988098,452
847.106079,472
847.22406,464
847.34198,454
847.4599,441
847.577881,464
847.695801,453
847.813782,469
847.931641,466
848.049561,448
848.167603,438
848.285461,451
848.403381,442
848.521362,455
848.639221,458
848.75708,437
848.875,463
848.99292,439
849.110901,452
849.22876,460
849.34668,441
849.464539,441
849.582458,451
849.700317,439
849.818176,466
849.936096,457
850.053955,465
850.171875,453
850.289673,462
850.407593,455
850.525452,460
850.643311,454
850.761169,464
850.878967,463
850.996887,465
851.114746,462
851.232544,459
851.350403,469
851.468262,456
851.58606,470
851.703979,462
851.821777,463
851.939636,477
852.057434,440
852.175232,465
852.293091,446
852.410889,471
852.528687,458
852.646545,466
852.764343,458
852.88208,446
852.999939,452
853.117676,461
853.235535,472
853.353271,453
853.471069,462
853.588928,446
853.706604,447
853.824402,455
853.9422,452
854.059998,453
854.177734,467
854.295532,461
854.413269,453
854.531006,472
854.648804,450
854.766541,474
854.884277,437
855.002014,459
855.119751,470
855.237549,464
855.355225,458
855.473022,452
855.590698,472
855.708435,456
855.826172,465
855.943848,468
856.061646,469
856.179321,474
856.296997,459
856.414795,464
856.53241,468
856.650085,471
856.767822,469
856.885559,450
857.003174,448
857.120911,466
857.238586,467
857.356201,460
857.473938,452
857.591614,457
857.709351,447
857.826965,468
857.944641,470
858.062317,458
858.179993,468
858.297668,458
858.415283,458
858.532959,459
858.650574,454
858.768188,480
858.885803,466
859.003479,453
859.121094,461
859.23877,469
859.356384,458
859.473999,458
859.591675,459
859.709229,470
859.826843,464
859.944458,468
860.062012,452
860.179626,449
860.297302,453
860.414856,456
860.532471,484
860.650024,458
860.767639,451
860.885193,454
861.002808,460
861.120361,475
861.237976,448
861.35553,462
861.473022,454
861.590698,475
861.708191,468
861.825745,452
861.943298,456
862.060852,459
862.178406,460
862.295959,450
862.413513,458
862.531006,476
862.64856,461
862.766113,462
862.883667,469
863.00116,467
863.118713,444
863.236206,461
863.353699,452
863.471252,468
863.588745,466
863.706177,466
863.82373,462
863.941162,480
864.058716,464
864.176208,458
864.29364,450
864.411194,441
864.528687,442
864.646118,469
864.763611,452
864.881042,443
864.998535,465
865.116028,458
865.233459,457
865.350891,459
865.468384,443
865.585754,471
865.703308,459
865.820679,496
865.938171,443
866.055542,474
866.173035,480
866.290466,464
866.407837,453
866.52533,455
866.6427,474
866.760071,489
866.877563,462
866.994934,480
867.112305,460
867.229736,469
867.347107,442
867.464539,473
867.58197,450
867.699341,479
867.81665,467
867.934082,470
868.051453,462
868.168823,487
868.286194,492
868.403564,458
868.520935,455
868.638306,460
868.755676,474
868.872986,456
868.990295,446
869.107727,466
869.225037,480
869.342346,479
869.459717,469
869.577026,460
869.694336,445
869.811707,452
869.929016,460
870.046326,470
870.163635,462
870.280945,466
870.398254,458
870.515564,475
870.632812,456
870.750183,461
870.867432,456
870.984741,450
871.102051,460
871.219299,464
871.336609,437
871.453918,476
871.571106,469
871.688416,444
871.805664,480
871.922852,479
872.040222,446
872.157471,468
872.274719,448
872.391968,472
872.509155,484
872.626465,471
872.743652,472
872.860962,462
872.978149,464
873.095337,467
873.212646,468
873.329834,465
873.44696,461
873.564209,487
873.681396,448
873.798645,481
873.915894,456
874.03302,465
874.150208,465
874.267456,449
874.384583,464
874.501831,464
874.618958,478
874.736145,461
874.853333,455
874.970459,456
875.087646,458
875.204834,489
875.32196,478
875.439148,462
875.556274,463
875.673401,470
875.790527,447
875.907715,476
876.024841,472
876.141968,477
876.259094,471
876.376282,474
876.493347,468
876.610474,459
876.7276,450
876.844727,470
876.961853,466
877.078918,483
877.195984,459
877.313171,465
877.430237,473
877.547302,469
877.664368,473
877.781433,465
877.898499,463
878.015625,456
878.13269,477
878.249695,468
878.366821,467
878.483887,467
878.600952,460
878.717957,462
878.834961,483
878.952087,466
879.069092,471
879.186157,472
879.303162,467
879.420227,473
879.537231,460
879.654236,480
879.77124,468
879.888306,475
880.005249,465
880.122314,472
880.239319,451
880.356323,461
880.473328,461
880.590271,481
880.707275,466
880.824341,461
880.941284,464
881.058228,457
881.175232,466
881.292236,462
881.40918,462
881.526123,473
881.643066,466
881.760071,489
881.877014,477
881.993958,471
882.11084,436
882.227783,477
882.344727,458
882.46167,466
882.578613,479
882.695618,469
882.812439,477
882.929382,478
883.046326,442
883.163208,457
883.280151,462
883.397034,462
883.513916,450
883.630798,469
883.747742,463
883.864563,469
883.981506,475
884.098389,463
884.21521,476
884.332153,472
884.448975,477
884.565796,470
884.682678,484
884.7995,462
884.916443,462
885.033264,475
885.150085,461
885.266968,477
885.383789,471
885.500671,469
885.617493,474
885.734314,480
885.851196,475
885.967896,472
886.084717,452
886.201599,484
886.318359,468
886.435181,461
886.552002,478
886.668762,497
886.785645,469
886.902344,458
887.019165,471
887.135925,467
887.252747,490
887.369446,462
887.486267,472
887.603027,455
887.719788,478
887.836548,475
887.953247,475
888.070068,494
888.186829,474
888.303528,462
888.420288,459
888.536987,480
888.653687,472
888.770447,490
888.887146,450
889.003967,467
889.120667,482
889.237305,484
889.354065,476
889.470703,476
889.587463,463
889.704163,464
889.820862,458
889.937561,481
890.054199,492
890.170837,479
890.287598,470
890.404236,505
890.520874,452
890.637634,470
890.754211,476
890.87085,489
890.987549,475
891.104187,473
891.220886,483
891.337463,467
891.454102,466
891.57074,477
891.687378,481
891.804077,475
891.920654,480
892.037231,476
892.15387,478
892.270447,466
892.387085,481
892.503723,488
892.6203,452
892.736877,492
892.853516,479
892.970032,487
893.08667,478
893.203186,487
893.319763,460
893.43634,499
893.552917,480
893.669556,479
893.786011,475
893.902588,471
894.019165,477
894.135681,485
894.252197,450
894.368835,482
894.485291,469
894.601868,459
894.718384,451
894.8349,475
894.951355,501
895.067932,486
895.184448,479
895.300964,479
895.417419,478
895.533936,476
895.650452,484
895.766907,484
895.883423,481
895.999878,480
896.116333,474
896.232849,469
896.349304,484
896.465759,462
896.582214,471
896.698669,486
896.815125,491
896.931641,462
897.048035,458
897.164551,497
897.280884,486
897.397339,473
897.513794,464
897.630249,479
897.746582,470
897.863098,473
897.979431,477
898.095886,477
898.212341,468
898.328674,482
898.445129,484
898.561462,489
898.677795,487
898.794312,471
898.910645,465
899.026978,473
899.143433,465
899.259766,490
899.37616,483
899.492493,481
899.608765,475
899.725159,465
899.841553,476
899.957947,484
900.07428,483
900.190552,468
900.306946,491
900.423157,474
900.53949,483
900.655884,481
900.772156,475
900.888489,463
901.004822,476
901.121033,479
901.237366,478
901.353699,486
901.46991,468
901.586304,493
901.702515,492
901.818787,510
901.93512,491
902.051331,500
902.167603,449
902.283875,484
902.400085,467
902.516418,495
902.632629,484
902.74884,483
902.865112,506
902.981384,499
903.097595,469
903.213867,487
903.330017,487
903.446289,487
903.5625,477
903.67865,482
903.794922,503
903.911072,490
904.027344,479
904.143494,486
904.259705,491
904.375916,503
904.492065,482
904.608215,485
904.724426,481
904.840576,477
904.956726,486
905.072876,495
905.189087,472
905.305176,483
905.421387,496
905.537537,508
905.653687,486
905.769775,473
905.885925,481
906.002014,498
906.118164,490
906.234314,472
906.350403,484
906.466492,519
906.582642,489
906.69873,509
906.814758,476
906.930908,490
907.046936,482
907.163086,470
907.279175,505
907.395264,485
907.511353,493
907.62738,483
907.743408,466
907.859497,471
907.975525,491
908.091553,471
908.207703,483
908.32373,474
908.439758,474
908.555786,482
908.671814,494
908.787842,497
908.90387,498
909.019775,504
909.135864,480
909.251892,492
909.367859,487
909.483826,497
909.599854,478
909.715881,493
909.831848,478
909.947815,492
910.063782,481
910.179749,501
910.295776,503
910.411743,484
910.527649,486
910.643616,504
910.759583,481
910.875488,503
910.991455,500
911.107361,494
911.223267,494
911.339294,474
911.4552,484
911.571106,497
911.687073,482
911.802979,479
911.918823,506
912.034729,494
912.150635,475
912.266602,465
912.382446,465
912.498352,499
912.614197,493
912.730103,485
912.846008,492
792.44574,581
792.56488,618
792.68396,655
792.80304,658
792.92218,604
793.041199,588
793.160339,593
793.279419,620
793.398499,587
793.517578,557
793.636658,569
793.755737,597
793.874817,593
793.993896,593
794.112976,588
794.232056,583
794.351074,569
794.470215,570
794.589233,570
794.708313,529
794.827393,583
794.946411,577
795.065552,585
795.18457,550
795.303589,570
795.422668,573
795.541687,562
795.660767,573
795.779846,579
795.898865,538
796.017883,584
796.136963,558
796.255981,548
796.375061,567
796.49408,561
796.613037,565
796.732117,572
796.851135,566
796.970154,527
797.089233,554
797.208191,553
797.327271,568
797.446228,562
797.565186,581
797.684265,541
797.803223,558
797.922241,526
798.04126,562
798.160278,542
798.279297,544
798.398315,566
798.517273,556
798.636292,555
798.75531,553
798.874268,539
798.993286,546
799.112244,558
799.231323,567
799.350281,547
799.469238,565
799.588257,543
799.707153,572
799.826111,565
799.945129,544
800.064087,552
800.183044,550
800.302063,567
800.421021,548
800.539978,556
800.658936,567
800.777893,545
800.896912,559
801.015747,559
801.134705,566
801.253723,550
801.37262,570
801.491638,562
801.610535,540
801.729492,559
801.84845,575
801.967407,549
802.086243,575
802.205261,569
802.324158,560
802.443115,531
802.562073,549
802.680969,570
802.799927,577
802.918762,571
803.037659,572
803.156677,570
803.275574,550
803.39447,567
803.513428,542
803.632263,566
803.751221,567
803.870117,550
803.989014,579
804.107971,564
804.226746,555
804.345642,560
804.4646,551
804.583496,571
804.702393,555
804.821228,567
804.940125,582
805.059021,551
805.177917,574
805.296814,574
805.415649,563
805.534546,577
805.653442,580
805.772278,566
805.891113,567
806.01001,595
806.128906,554
806.247742,589
806.366577,593
806.485413,575
806.604309,570
806.723145,583
806.84198,571
806.960876,559
807.079712,589
807.198486,559
807.317383,566
807.436218,598
807.554993,578
807.673889,555
807.792725,599
807.91156,571
808.030396,588
808.14917,576
808.268005,581
808.386841,602
808.505676,579
808.624451,593
808.743286,585
808.862122,592
808.980896,604
809.099731,601
809.218506,582
809.337341,592
809.456116,586
809.57489,598
809.693726,610
809.8125,581
809.931274,579
810.050049,577
810.168884,564
810.287659,605
810.406372,590
810.525269,566
810.643982,599
810.762756,589
810.881531,580
811.000305,599
811.11908,592
811.237854,581
811.356567,578
811.475403,601
811.594116,591
811.71283,581
811.831604,588
811.950378,598
812.069153,595
812.187927,596
812.30658,603
812.425415,570
812.544128,574
812.662781,600
812.781616,622
812.900269,594
813.019043,592
813.137756,574
813.256531,571
813.375244,568
813.493896,598
813.612671,564
813.731384,595
813.850037,594
813.96875,584
814.087524,592
814.206238,564
814.324951,586
814.443604,585
814.562256,570
814.68103,572
814.799683,575
814.918335,593
815.037109,580
815.155762,603
815.274475,596
815.393188,608
815.511841,570
815.630554,558
815.749146,583
815.867859,574
815.986572,545
816.105164,549
816.223877,576
816.342529,549
816.461182,579
816.579895,566
816.698486,575
816.817139,569
816.935791,581
817.054504,571
817.173096,590
817.291748,575
817.4104,557
817.529053,569
817.647644,576
817.766235,562
817.884949,535
818.00354,546
818.122192,547
818.240845,544
818.359436,541
818.478088,520
818.59668,549
818.715271,520
818.833923,500
818.952515,523
819.071106,521
819.189758,514
819.30835,512
819.426941,511
819.545532,505
819.664124,511
819.782715,485
819.901306,479
820.019897,506
820.138489,492
820.25708,486
820.375671,509
820.494202,477
820.612732,491
820.731384,483
820.849915,475
820.968506,470
821.087097,469
821.205627,479
821.324158,492
821.442749,470
821.561279,486
821.679871,479
821.798401,477
821.916931,481
822.035461,467
822.154053,480
822.272583,488
822.391174,477
822.509583,485
822.628174,473
822.746704,494
822.865234,474
822.983765,480
823.102295,486
823.220825,466
823.339294,476
823.457825,460
823.576355,475
823.694824,463
823.813354,507
823.931885,482
824.050354,492
824.168884,490
824.287354,489
824.405823,460
824.524353,489
824.642822,484
824.761353,472
824.879822,483
824.998291,488
825.116699,487
825.235291,475
825.353699,458
825.472168,467
825.590637,460
825.709106,471
825.827576,465
825.946045,470
826.064453,474
826.182983,475
826.301392,475
826.4198,465
826.53833,463
826.656738,483
826.775208,474
826.893677,471
827.012024,459
827.130493,464
827.248962,462
827.36731,464
827.485779,470
827.604248,475
827.722595,453
827.841064,457
827.959412,455
828.077942,474
828.196289,468
828.314636,462
828.433105,473
828.551514,491
828.669861,482
828.78833,479
828.906677,466
829.025085,457
829.143433,448
829.261841,464
829.38031,447
829.498657,466
829.617004,455
829.735413,448
829.85376,464
829.972107,476
830.090515,472
830.208862,439
830.327209,453
830.445557,453
830.563904,466
830.682312,459
830.800659,452
830.919006,470
831.037354,469
831.155701,436
831.274048,462
831.392395,471
831.51062,460
831.629028,453
831.747314,457
831.865662,469
831.984009,453
832.102356,463
832.220642,455
832.338928,474
832.457275,457
832.575623,453
832.693909,460
832.812134,442
832.930481,437
833.048828,460
833.167114,472
833.2854,460
833.403687,464
833.521973,468
833.640259,457
833.758545,457
833.876831,444
833.995056,443
834.113281,474
834.231628,450
834.349915,451
834.468201,472
834.586426,482
834.704651,459
834.822998,450
834.941162,490
835.059448,476
835.177673,461
835.295959,469
835.414246,463
835.53241,459
835.650635,454
835.768921,465
835.887146,465
836.005371,460
836.123596,481
836.241821,476
836.360046,472
836.478271,473
836.596497,467
836.714722,473
836.832886,491
836.95105,467
837.069336,464
837.1875,457
837.305725,470
837.423889,475
837.542053,465
837.660339,468
837.778503,483
837.896667,469
838.014832,454
838.132996,480
838.25116,467
838.369385,469
838.487488,468
838.605713,473
838.723877,465
838.84198,453
838.960205,470
839.078308,469
839.196472,455
839.314636,472
839.4328,478
839.550964,477
839.669067,456
839.787231,456
839.905396,480
840.023499,477
840.141602,449
840.259766,475
840.377869,460
840.495972,488
840.614136,467
840.732239,464
840.850342,467
840.968445,458
841.086548,464
841.204651,464
841.322754,466
841.440918,451
841.55896,469
841.677002,461
841.795166,453
841.913208,443
842.031311,459
842.149353,467
842.267456,452
842.385498,438
842.503601,466
842.621643,443
842.739746,463
842.857788,462
842.97583,447
843.093933,444
843.211975,469
843.330017,454
843.44812,464
843.566101,447
843.684204,463
843.802246,453
843.920227,448
844.038269,464
844.156311,441
844.274292,460
844.392395,467
844.510376,443
844.628357,451
844.74646,470
844.864441,456
844.982422,470
845.100403,455
845.218384,450
845.336426,457
845.454468,449
845.572449,458
845.69043,455
845.808411,444
845.926453,473
846.044373,443
846.162354,448
846.280396,448
846.398315,449
846.516296,449
846.634216,455
846.752197,476
846.870178,454
846.988098,468
847.106079,465
847.22406,458
847.34198,430
847.4599,449
847.577881,440
847.695801,464
847.813782,465
847.931641,429
848.049561,461
848.167603,453
848.285461,462
848.403381,479
848.521362,474
848.639221,439
848.75708,477
848.875,446
848.99292,482
849.110901,469
849.22876,449
849.34668,456
849.464539,443
849.582458,441
849.700317,473
849.818176,467
849.936096,476
850.053955,446
850.171875,455
850.289673,469
850.407593,451
850.525452,469
850.643311,460
850.761169,442
850.878967,440
850.996887,449
851.114746,463
851.232544,457
851.350403,454
851.468262,470
851.58606,452
851.703979,462
851.821777,462
851.939636,457
852.057434,450
852.175232,471
852.293091,462
852.410889,449
852.528687,454
852.646545,455
852.764343,468
852.88208,471
852.999939,461
853.117676,477
853.235535,441
853.353271,452
853.471069,467
853.588928,443
853.706604,462
853.824402,456
853.9422,474
854.059998,469
854.177734,484
854.295532,455
854.413269,474
854.531006,455
854.648804,477
854.766541,454
854.884277,466
855.002014,446
855.119751,468
855.237549,455
855.355225,449
855.473022,443
855.590698,464
855.708435,456
855.826172,473
855.943848,478
856.061646,487
856.179321,458
856.296997,445
856.414795,443
856.53241,472
856.650085,448
856.767822,451
856.885559,466
857.003174,477
857.120911,468
857.238586,455
857.356201,478
857.473938,457
857.591614,459
857.709351,468
857.826965,479
857.944641,455
858.062317,461
858.179993,449
858.297668,463
858.415283,456
858.532959,461
858.650574,452
858.768188,453
858.885803,447
859.003479,466
859.121094,459
859.23877,465
859.356384,454
859.473999,447
859.591675,471
859.709229,453
859.826843,473
859.944458,463
860.062012,440
860.179626,463
860.297302,459
860.414856,455
860.532471,451
860.650024,463
860.767639,453
860.885193,484
861.002808,455
861.120361,462
861.237976,457
861.35553,457
861.473022,446
861.590698,433
861.708191,468
861.825745,464
861.943298,457
862.060852,467
862.178406,464
862.295959,487
862.413513,439
862.531006,466
862.64856,464
862.766113,442
862.883667,437
863.00116,470
863.118713,455
863.236206,492
863.353699,456
863.471252,455
863.588745,461
863.706177,457
863.82373,466
863.941162,459
864.058716,477
864.176208,464
864.29364,457
864.411194,435
864.528687,451
864.646118,451
864.763611,454
864.881042,460
864.998535,472
865.116028,477
865.233459,459
865.350891,451
865.468384,448
865.585754,452
865.703308,450
865.820679,475
865.938171,449
866.055542,467
866.173035,455
866.290466,464
866.407837,464
866.52533,486
866.6427,461
866.760071,479
866.877563,468
866.994934,454
867.112305,474
867.229736,469
867.347107,460
867.464539,456
867.58197,445
867.699341,463
867.81665,465
867.934082,477
868.051453,482
868.168823,461
868.286194,480
868.403564,467
868.520935,477
868.638306,457
868.755676,473
868.872986,445
868.990295,466
869.107727,474
869.225037,455
869.342346,470
869.459717,464
869.577026,486
869.694336,460
869.811707,454
869.929016,444
870.046326,452
870.163635,456
870.280945,470
870.398254,484
870.515564,469
870.632812,471
870.750183,463
870.867432,489
870.984741,469
871.102051,445
871.219299,452
871.336609,449
871.453918,458
871.571106,473
871.688416,467
871.805664,473
871.922852,465
872.040222,481
872.157471,463
872.274719,474
872.391968,472
872.509155,475
872.626465,460
872.743652,476
872.860962,475
872.978149,456
873.095337,481
873.212646,476
873.329834,472
873.44696,471
873.564209,455
873.681396,465
873.798645,457
873.915894,467
874.03302,472
874.150208,477
874.267456,470
874.384583,448
874.501831,457
874.618958,444
874.736145,447
874.853333,477
874.970459,474
875.087646,448
875.204834,470
875.32196,477
875.439148,472
875.556274,460
875.673401,466
875.790527,473
875.907715,473
876.024841,472
876.141968,450
876.259094,469
876.376282,466
876.493347,476
876.610474,458
876.7276,470
876.844727,476
876.961853,454
877.078918,484
877.195984,479
877.313171,483
877.430237,483
877.547302,480
877.664368,481
877.781433,449
877.898499,460
878.015625,476
878.13269,467
878.249695,468
878.366821,486
878.483887,459
878.600952,475
878.717957,452
878.834961,476
878.952087,478
879.069092,477
879.186157,462
879.303162,480
879.420227,476
879.537231,466
879.654236,468
879.77124,469
879.888306,466
880.005249,455
880.122314,471
880.239319,472
880.356323,452
880.473328,478
880.590271,470
880.707275,471
880.824341,482
880.941284,477
881.058228,475
881.175232,483
881.292236,483
881.40918,470
881.526123,450
881.643066,497
881.760071,471
881.877014,469
881.993958,464
882.11084,459
882.227783,466
882.344727,475
882.46167,471
882.578613,473
882.695618,471
882.812439,470
882.929382,459
883.046326,463
883.163208,478
883.280151,472
883.397034,472
883.513916,456
883.630798,463
883.747742,475
883.864563,466
883.981506,475
884.098389,481
884.21521,461
884.332153,474
884.448975,494
884.565796,469
884.682678,478
884.7995,455
884.916443,450
885.033264,474
885.150085,479
885.266968,475
885.383789,474
885.500671,462
885.617493,468
885.734314,480
885.851196,478
885.967896,488
886.084717,477
886.201599,469
886.318359,473
886.435181,471
886.552002,498
886.668762,509
886.785645,492
886.902344,486
887.019165,495
887.135925,451
887.252747,466
887.369446,459
887.486267,489
887.603027,473
887.719788,468
887.836548,478
887.953247,480
888.070068,478
888.186829,489
888.303528,461
888.420288,463
888.536987,484
888.653687,459
888.770447,457
888.887146,500
889.003967,481
889.120667,475
889.237305,471
889.354065,483
889.470703,490
889.587463,473
889.704163,457
889.820862,477
889.937561,471
890.054199,462
890.170837,466
890.287598,472
890.404236,471
890.520874,478
890.637634,481
890.754211,497
890.87085,468
890.987549,470
891.104187,498
891.220886,468
891.337463,481
891.454102,465
891.57074,494
891.687378,463
891.804077,469
891.920654,473
892.037231,499
892.15387,464
892.270447,446
892.387085,461
892.503723,492
892.6203,476
892.736877,466
892.853516,488
892.970032,492
893.08667,474
893.203186,467
893.319763,486
893.43634,472
893.552917,488
893.669556,493
893.786011,472
893.902588,481
894.019165,479
894.135681,505
894.252197,479
894.368835,490
894.485291,482
894.601868,487
894.718384,494
894.8349,482
894.951355,486
895.067932,484
895.184448,461
895.300964,493
895.417419,494
895.533936,469
895.650452,492
895.766907,473
895.883423,489
895.999878,485
896.116333,480
896.232849,476
896.349304,482
896.465759,507
896.582214,487
896.698669,476
896.815125,480
896.931641,460
897.048035,470
897.164551,496
897.280884,477
897.397339,482
897.513794,479
897.630249,482
897.746582,484
897.863098,461
897.979431,484
898.095886,471
898.212341,488
898.328674,474
898.445129,483
898.561462,497
898.677795,490
898.794312,469
898.910645,477
899.026978,486
899.143433,490
899.259766,488
899.37616,470
899.492493,480
899.608765,488
899.725159,479
899.841553,489
899.957947,498
900.07428,471
900.190552,480
900.306946,488
900.423157,484
900.53949,484
900.655884,499
900.772156,480
900.888489,480
901.004822,486
901.121033,460
901.237366,483
901.353699,482
901.46991,488
901.586304,505
901.702515,484
901.818787,484
901.93512,482
902.051331,468
902.167603,476
902.283875,480
902.400085,472
902.516418,476
902.632629,483
902.74884,477
902.865112,487
902.981384,491
903.097595,503
903.213867,488
903.330017,492
903.446289,505
903.5625,494
903.67865,487
903.794922,507
903.911072,500
904.027344,486
904.143494,498
904.259705,501
904.375916,498
904.492065,472
904.608215,494
904.724426,486
904.840576,475
904.956726,485
905.072876,477
905.189087,490
905.305176,501
905.421387,481
905.537537,489
905.653687,490
905.769775,477
905.885925,494
906.002014,480
906.118164,485
906.234314,459
906.350403,482
906.466492,477
906.582642,494
906.69873,506
906.814758,487
906.930908,473
907.046936,501
907.163086,484
907.279175,486
907.395264,469
907.511353,500
907.62738,501
907.743408,497
907.859497,486
907.975525,504
908.091553,473
908.207703,505
908.32373,462
908.439758,486
908.555786,470
908.671814,495
908.787842,499
908.90387,496
909.019775,486
909.135864,467
909.251892,480
909.367859,495
909.483826,472
909.599854,501
909.715881,476
909.831848,504
909.947815,494
910.063782,505
910.179749,484
910.295776,487
910.411743,495
910.527649,490
910.643616,491
910.759583,500
910.875488,491
910.991455,503
911.107361,487
911.223267,481
911.339294,493
911.4552,487
911.571106,491
911.687073,515
911.802979,480
911.918823,486
912.034729,486
912.150635,495
912.266602,496
912.382446,487
912.498352,482
912.614197,491
912.730103,468
912.846008,478
