792.44574,597
792.56488,644
792.68396,678
792.80304,664
792.92218,620
793.041199,584
793.160339,600
793.279419,604
793.398499,612
793.517578,566
793.636658,573
793.755737,589
793.874817,622
793.993896,600
794.112976,580
794.232056,605
794.351074,585
794.470215,586
794.589233,586
794.708313,598
794.827393,577
794.946411,576
795.065552,578
795.18457,576
795.303589,589
795.422668,588
795.541687,578
795.660767,583
795.779846,583
795.898865,566
796.017883,588
796.136963,569
796.255981,560
796.375061,565
796.49408,569
796.613037,582
796.732117,572
796.851135,576
796.970154,564
797.089233,574
797.208191,585
797.327271,587
797.446228,555
797.565186,551
797.684265,555
797.803223,580
797.922241,544
798.04126,553
798.160278,572
798.279297,567
798.398315,554
798.517273,565
798.636292,562
798.75531,571
798.874268,564
798.993286,565
799.112244,572
799.231323,567
799.350281,580
799.469238,557
799.588257,546
799.707153,564
799.826111,561
799.945129,566
800.064087,558
800.183044,574
800.302063,575
800.421021,548
800.539978,572
800.658936,571
800.777893,569
800.896912,559
801.015747,575
801.134705,566
801.253723,567
801.37262,569
801.491638,561
801.610535,559
801.729492,568
801.84845,570
801.967407,580
802.086243,577
802.205261,568
802.324158,556
802.443115,585
802.562073,548
802.680969,565
802.799927,560
802.918762,578
803.037659,596
803.156677,558
803.275574,574
803.39447,570
803.513428,565
803.632263,564
803.751221,557
803.870117,564
803.989014,570
804.107971,563
804.226746,613
804.345642,572
804.4646,577
804.583496,574
804.702393,588
804.821228,580
804.940125,566
805.059021,585
805.177917,587
805.296814,572
805.415649,600
805.534546,573
805.653442,596
805.772278,570
805.891113,579
806.01001,606
806.128906,581
806.247742,601
806.366577,589
806.485413,586
806.604309,587
806.723145,600
806.84198,580
806.960876,577
807.079712,616
807.198486,582
807.317383,606
807.436218,589
807.554993,605
807.673889,601
807.792725,587
807.91156,586
808.030396,620
808.14917,601
808.268005,595
808.386841,611
808.505676,597
808.624451,587
808.743286,595
808.862122,589
808.980896,583
809.099731,586
809.218506,584
809.337341,579
809.456116,619
809.57489,596
809.693726,606
809.8125,594
809.931274,619
810.050049,602
810.168884,582
810.287659,598
810.406372,616
810.525269,590
810.643982,611
810.762756,600
810.881531,620
811.000305,609
811.11908,609
811.237854,599
811.356567,604
811.475403,621
811.594116,599
811.71283,622
811.831604,609
811.950378,600
812.069153,597
812.187927,611
812.30658,633
812.425415,614
812.544128,604
812.662781,609
812.781616,600
812.900269,602
813.019043,612
813.137756,622
813.256531,600
813.375244,584
813.493896,610
813.612671,590
813.731384,617
813.850037,602
813.96875,590
814.087524,601
814.206238,614
814.324951,604
814.443604,626
814.562256,595
814.68103,597
814.799683,597
814.918335,600
815.037109,609
815.155762,588
815.274475,579
815.393188,598
815.511841,589
815.630554,585
815.749146,573
815.867859,588
815.986572,594
816.105164,587
816.223877,583
816.342529,583
816.461182,590
816.579895,597
816.698486,614
816.817139,597
816.935791,591
817.054504,591
817.173096,591
817.291748,575
817.4104,579
817.529053,585
817.647644,575
817.766235,560
817.884949,569
818.00354,578
818.122192,534
818.240845,550
818.359436,549
818.478088,561
818.59668,538
818.715271,527
818.833923,532
818.952515,517
819.071106,496
819.189758,504
819.30835,506
819.426941,512
819.545532,503
819.664124,492
819.782715,473
819.901306,475
820.019897,484
820.138489,508
820.25708,500
820.375671,494
820.494202,489
820.612732,501
820.731384,470
820.849915,502
820.968506,481
821.087097,484
821.205627,484
821.324158,488
821.442749,498
821.561279,493
821.679871,488
821.798401,491
821.916931,471
822.035461,471
822.154053,468
822.272583,463
822.391174,491
822.509583,477
822.628174,482
822.746704,481
822.865234,473
822.983765,500
823.102295,499
823.220825,481
823.339294,484
823.457825,474
823.576355,472
823.694824,510
823.813354,470
823.931885,469
824.050354,473
824.168884,480
824.287354,483
824.405823,497
824.524353,472
824.642822,487
824.761353,478
824.879822,475
824.998291,483
825.116699,487
825.235291,469
825.353699,487
825.472168,484
825.590637,464
825.709106,481
825.827576,462
825.946045,461
826.064453,469
826.182983,488
826.301392,478
826.4198,443
826.53833,481
826.656738,459
826.775208,481
826.893677,474
827.012024,457
827.130493,474
827.248962,459
827.36731,470
827.485779,478
827.604248,467
827.722595,466
827.841064,466
827.959412,462
828.077942,450
828.196289,456
828.314636,480
828.433105,450
828.551514,460
828.669861,460
828.78833,460
828.906677,474
829.025085,447
829.143433,476
829.261841,471
829.38031,462
829.498657,438
829.617004,458
829.735413,460
829.85376,467
829.972107,447
830.090515,459
830.208862,463
830.327209,447
830.445557,468
830.563904,438
830.682312,452
830.800659,465
830.919006,469
831.037354,443
831.155701,470
831.274048,466
831.392395,440
831.51062,456
831.629028,455
831.747314,472
831.865662,454
831.984009,460
832.102356,461
832.220642,462
832.338928,440
832.457275,458
832.575623,457
832.693909,471
832.812134,459
832.930481,464
833.048828,457
833.167114,452
833.2854,449
833.403687,457
833.521973,463
833.640259,450
833.758545,432
833.876831,468
833.995056,452
834.113281,459
834.231628,450
834.349915,456
834.468201,452
834.586426,442
834.704651,448
834.822998,471
834.941162,462
835.059448,467
835.177673,465
835.295959,454
835.414246,459
835.53241,456
835.650635,449
835.768921,440
835.887146,454
836.005371,457
836.123596,443
836.241821,468
836.360046,472
836.478271,461
836.596497,468
836.714722,470
836.832886,452
836.95105,445
837.069336,486
837.1875,478
837.305725,461
837.423889,466
837.542053,495
837.660339,470
837.778503,468
837.896667,462
838.014832,466
838.132996,470
838.25116,460
838.369385,467
838.487488,479
838.605713,466
838.723877,464
838.84198,470
838.960205,457
839.078308,475
839.196472,466
839.314636,470
839.4328,479
839.550964,466
839.669067,486
839.787231,494
839.905396,477
840.023499,458
840.141602,468
840.259766,460
840.377869,468
840.495972,469
840.614136,465
840.732239,468
840.850342,462
840.968445,480
841.086548,479
841.204651,453
841.322754,466
841.440918,441
841.55896,469
841.677002,470
841.795166,459
841.913208,476
842.031311,456
842.149353,450
842.267456,458
842.385498,458
842.503601,454
842.621643,457
842.739746,462
842.857788,478
842.97583,460
843.093933,464
843.211975,463
843.330017,460
843.44812,450
843.566101,448
843.684204,480
843.802246,434
843.920227,458
844.038269,451
844.156311,445
844.274292,468
844.392395,449
844.510376,450
844.628357,449
844.74646,457
844.864441,460
844.982422,436
845.100403,457
845.218384,459
845.336426,457
845.454468,447
845.572449,446
845.69043,460
845.808411,446
845.926453,443
846.044373,451
846.162354,444
846.280396,444
846.398315,460
846.516296,455
846.634216,465
846.752197,443
846.870178,476
846.988098,446
847.106079,461
847.22406,440
847.34198,465
847.4599,462
847.577881,465
847.695801,439
847.813782,459
847.931641,457
848.049561,460
848.167603,448
848.285461,448
848.403381,448
848.521362,459
848.639221,455
848.75708,460
848.875,471
848.99292,455
849.110901,452
849.22876,473
849.34668,423
849.464539,482
849.582458,464
849.700317,465
849.818176,461
849.936096,471
850.053955,464
850.171875,457
850.289673,464
850.407593,467
850.525452,462
850.643311,465
850.761169,462
850.878967,461
850.996887,457
851.114746,442
851.232544,445
851.350403,459
851.468262,461
851.58606,457
851.703979,444
851.821777,468
851.939636,464
852.057434,448
852.175232,465
852.293091,437
852.410889,451
852.528687,451
852.646545,442
852.764343,472
852.88208,452
852.999939,461
853.117676,456
853.235535,462
853.353271,450
853.471069,462
853.588928,441
853.706604,457
853.824402,454
853.9422,462
854.059998,454
854.177734,451
854.295532,473
854.413269,456
854.531006,455
854.648804,454
854.766541,452
854.884277,464
855.002014,460
855.119751,465
855.237549,445
855.355225,467
855.473022,471
855.590698,453
855.708435,455
855.826172,462
855.943848,452
856.061646,455
856.179321,476
856.296997,471
856.414795,457
856.53241,467
856.650085,459
856.767822,447
856.885559,448
857.003174,490
857.120911,461
857.238586,454
857.356201,450
857.473938,468
857.591614,451
857.709351,455
857.826965,469
857.944641,462
858.062317,452
858.179993,468
858.297668,465
858.415283,470
858.532959,447
858.650574,458
858.768188,463
858.885803,464
859.003479,461
859.121094,464
859.23877,474
859.356384,466
859.473999,449
859.591675,472
859.709229,461
859.826843,468
859.944458,474
860.062012,471
860.179626,451
860.297302,452
860.414856,440
860.532471,459
860.650024,456
860.767639,478
860.885193,454
861.002808,431
861.120361,462
861.237976,447
861.35553,447
861.473022,444
861.590698,437
861.708191,465
861.825745,455
861.943298,461
862.060852,454
862.178406,460
862.295959,444
862.413513,465
862.531006,452
862.64856,455
862.766113,450
862.883667,475
863.00116,470
863.118713,467
863.236206,464
863.353699,438
863.471252,466
863.588745,464
863.706177,463
863.82373,456
863.941162,459
864.058716,461
864.176208,457
864.29364,461
864.411194,453
864.528687,481
864.646118,466
864.763611,441
864.881042,454
864.998535,457
865.116028,450
865.233459,472
865.350891,457
865.468384,488
865.585754,461
865.703308,462
865.820679,448
865.938171,460
866.055542,481
866.173035,458
866.290466,461
866.407837,457
866.52533,473
866.6427,461
866.760071,469
866.877563,456
866.994934,450
867.112305,464
867.229736,466
867.347107,446
867.464539,458
867.58197,446
867.699341,450
867.81665,483
867.934082,458
868.051453,462
868.168823,473
868.286194,451
868.403564,466
868.520935,462
868.638306,457
868.755676,455
868.872986,443
868.990295,458
869.107727,470
869.225037,435
869.342346,464
869.459717,475
869.577026,468
869.694336,440
869.811707,469
869.929016,476
870.046326,470
870.163635,490
870.280945,443
870.398254,461
870.515564,452
870.632812,474
870.750183,458
870.867432,480
870.984741,466
871.102051,454
871.219299,435
871.336609,459
871.453918,462
871.571106,458
871.688416,452
871.805664,459
871.922852,457
872.040222,470
872.157471,490
872.274719,470
872.391968,456
872.509155,468
872.626465,457
872.743652,468
872.860962,451
872.978149,442
873.095337,460
873.212646,454
873.329834,455
873.44696,465
873.564209,467
873.681396,480
873.798645,451
873.915894,444
874.03302,456
874.150208,470
874.267456,454
874.384583,478
874.501831,452
874.618958,474
874.736145,462
874.853333,481
874.970459,473
875.087646,477
875.204834,472
875.32196,452
875.439148,442
875.556274,474
875.673401,469
875.790527,473
875.907715,440
876.024841,458
876.141968,441
876.259094,442
876.376282,453
876.493347,454
876.610474,462
876.7276,436
876.844727,481
876.961853,457
877.078918,467
877.195984,458
877.313171,485
877.430237,478
877.547302,476
877.664368,476
877.781433,468
877.898499,466
878.015625,463
878.13269,462
878.249695,449
878.366821,452
878.483887,450
878.600952,474
878.717957,452
878.834961,472
878.952087,476
879.069092,454
879.186157,458
879.303162,450
879.420227,450
879.537231,466
879.654236,476
879.77124,466
879.888306,482
880.005249,467
880.122314,470
880.239319,473
880.356323,470
880.473328,477
880.590271,481
880.707275,459
880.824341,445
880.941284,470
881.058228,459
881.175232,460
881.292236,461
881.40918,455
881.526123,456
881.643066,456
881.760071,446
881.877014,488
881.993958,486
882.11084,482
882.227783,456
882.344727,465
882.46167,459
882.578613,453
882.695618,466
882.812439,491
882.929382,483
883.046326,471
883.163208,473
883.280151,468
883.397034,470
883.513916,458
883.630798,466
883.747742,465
883.864563,469
883.981506,460
884.098389,456
884.21521,454
884.332153,490
884.448975,476
884.565796,473
884.682678,476
884.7995,479
884.916443,491
885.033264,468
885.150085,474
885.266968,467
885.383789,477
885.500671,481
885.617493,483
885.734314,476
885.851196,466
885.967896,476
886.084717,465
886.201599,478
886.318359,484
886.435181,459
886.552002,483
886.668762,479
886.785645,478
886.902344,467
887.019165,450
887.135925,471
887.252747,473
887.369446,460
887.486267,487
887.603027,454
887.719788,483
887.836548,455
887.953247,460
888.070068,482
888.186829,471
888.303528,478
888.420288,477
888.536987,474
888.653687,487
888.770447,472
888.887146,465
889.003967,492
889.120667,474
889.237305,475
889.354065,477
889.470703,469
889.587463,478
889.704163,452
889.820862,462
889.937561,456
890.054199,456
890.170837,463
890.287598,444
890.404236,462
890.520874,472
890.637634,463
890.754211,467
890.87085,473
890.987549,468
891.104187,474
891.220886,477
891.337463,479
891.454102,463
891.57074,485
891.687378,483
891.804077,474
891.920654,475
892.037231,476
892.15387,463
892.270447,463
892.387085,472
892.503723,456
892.6203,466
892.736877,455
892.853516,463
892.970032,487
893.08667,445
893.203186,461
893.319763,493
893.43634,468
893.552917,480
893.669556,493
893.786011,476
893.902588,472
894.019165,472
894.135681,469
894.252197,480
894.368835,462
894.485291,472
894.601868,473
894.718384,481
894.8349,477
894.951355,482
895.067932,479
895.184448,468
895.300964,474
895.417419,471
895.533936,477
895.650452,474
895.766907,478
895.883423,480
895.999878,461
896.116333,479
896.232849,483
896.349304,465
896.465759,498
896.582214,488
896.698669,482
896.815125,467
896.931641,465
897.048035,472
897.164551,488
897.280884,503
897.397339,471
897.513794,469
897.630249,484
897.746582,488
897.863098,488
897.979431,473
898.095886,476
898.212341,480
898.328674,498
898.445129,481
898.561462,470
898.677795,474
898.794312,479
898.910645,470
899.026978,476
899.143433,491
899.259766,470
899.37616,488
899.492493,460
899.608765,484
899.725159,471
899.841553,466
899.957947,485
900.07428,477
900.190552,492
900.306946,483
900.423157,488
900.53949,491
900.655884,470
900.772156,479
900.888489,477
901.004822,465
901.121033,470
901.237366,489
901.353699,483
901.46991,480
901.586304,492
901.702515,485
901.818787,442
901.93512,481
902.051331,461
902.167603,465
902.283875,484
902.400085,469
902.516418,481
902.632629,469
902.74884,466
902.865112,481
902.981384,487
903.097595,488
903.213867,485
903.330017,480
903.446289,495
903.5625,479
903.67865,501
903.794922,485
903.911072,467
904.027344,487
904.143494,491
904.259705,489
904.375916,486
904.492065,490
904.608215,459
904.724426,485
904.840576,468
904.956726,479
905.072876,472
905.189087,504
905.305176,472
905.421387,500
905.537537,474
905.653687,490
905.769775,477
905.885925,469
906.002014,486
906.118164,482
906.234314,484
906.350403,500
906.466492,462
906.582642,487
906.69873,470
906.814758,496
906.930908,476
907.046936,473
907.163086,464
907.279175,481
907.395264,507
907.511353,458
907.62738,458
907.743408,482
907.859497,481
907.975525,450
908.091553,482
908.207703,485
908.32373,476
908.439758,481
908.555786,481
908.671814,488
908.787842,480
908.90387,490
909.019775,469
909.135864,485
909.251892,473
909.367859,476
909.483826,468
909.599854,463
909.715881,479
909.831848,492
909.947815,484
910.063782,485
910.179749,483
910.295776,480
910.411743,486
910.527649,477
910.643616,501
910.759583,477
910.875488,476
910.991455,468
911.107361,473
911.223267,454
911.339294,478
911.4552,491
911.571106,469
911.687073,488
911.802979,486
911.918823,475
912.034729,488
912.150635,494
912.266602,465
912.382446,484
912.498352,478
912.614197,492
912.730103,465
912.846008,487
792.44574,628
792.56488,639
792.68396,694
792.80304,659
792.92218,619
793.041199,602
793.160339,593
793.279419,594
793.398499,614
793.517578,607
793.636658,599
793.755737,569
793.874817,608
793.993896,604
794.112976,615
794.232056,568
794.351074,590
794.470215,577
794.589233,604
794.708313,571
794.827393,570
794.946411,578
795.065552,590
795.18457,590
795.303589,585
795.422668,565
795.541687,578
795.660767,576
795.779846,585
795.898865,574
796.017883,569
796.136963,575
796.255981,604
796.375061,562
796.49408,574
796.613037,570
796.732117,581
796.851135,580
796.970154,570
797.089233,565
797.208191,564
797.327271,569
797.446228,575
797.565186,559
797.684265,569
797.803223,564
797.922241,592
798.04126,562
798.160278,542
798.279297,560
798.398315,555
798.517273,546
798.636292,558
798.75531,542
798.874268,598
798.993286,566
799.112244,576
799.231323,565
799.350281,570
799.469238,579
799.588257,579
799.707153,585
799.826111,579
799.945129,565
800.064087,555
800.183044,555
800.302063,583
800.421021,570
800.539978,556
800.658936,580
800.777893,563
800.896912,562
801.015747,554
801.134705,560
801.253723,575
801.37262,546
801.491638,571
801.610535,566
801.729492,560
801.84845,579
801.967407,590
802.086243,554
802.205261,573
802.324158,557
802.443115,565
802.562073,573
802.680969,588
802.799927,567
802.918762,580
803.037659,591
803.156677,599
803.275574,586
803.39447,602
803.513428,570
803.632263,567
803.751221,581
803.870117,581
803.989014,568
804.107971,557
804.226746,564
804.345642,587
804.4646,579
804.583496,580
804.702393,545
804.821228,578
804.940125,561
805.059021,612
805.177917,586
805.296814,592
805.415649,585
805.534546,606
805.653442,570
805.772278,594
805.891113,588
806.01001,590
806.128906,575
806.247742,615
806.366577,594
806.485413,619
806.604309,592
806.723145,584
806.84198,598
806.960876,607
807.079712,572
807.198486,608
807.317383,597
807.436218,618
807.554993,587
807.673889,574
807.792725,597
807.91156,604
808.030396,614
808.14917,594
808.268005,608
808.386841,618
808.505676,608
808.624451,611
808.743286,611
808.862122,614
808.980896,587
809.099731,600
809.218506,605
809.337341,602
809.456116,590
809.57489,608
809.693726,622
809.8125,601
809.931274,596
810.050049,596
810.168884,620
810.287659,585
810.406372,613
810.525269,608
810.643982,603
810.762756,623
810.881531,596
811.000305,619
811.11908,624
811.237854,616
811.356567,607
811.475403,580
811.594116,597
811.71283,603
811.831604,617
811.950378,612
812.069153,615
812.187927,603
812.30658,617
812.425415,608
812.544128,587
812.662781,616
812.781616,622
812.900269,616
813.019043,618
813.137756,635
813.256531,588
813.375244,616
813.493896,623
813.612671,600
813.731384,601
813.850037,620
813.96875,607
814.087524,637
814.206238,588
814.324951,629
814.443604,600
814.562256,616
814.68103,619
814.799683,579
814.918335,610
815.037109,597
815.155762,588
815.274475,608
815.393188,595
815.511841,594
815.630554,617
815.749146,616
815.867859,587
815.986572,589
816.105164,597
816.223877,591
816.342529,571
816.461182,593
816.579895,591
816.698486,599
816.817139,566
816.935791,619
817.054504,591
817.173096,600
817.291748,605
817.4104,585
817.529053,596
817.647644,568
817.766235,575
817.884949,567
818.00354,562
818.122192,556
818.240845,556
818.359436,543
818.478088,545
818.59668,533
818.715271,531
818.833923,528
818.952515,534
819.071106,521
819.189758,509
819.30835,534
819.426941,516
819.545532,495
819.664124,506
819.782715,509
819.901306,505
820.019897,508
820.138489,492
820.25708,502
820.375671,493
820.494202,490
820.612732,489
820.731384,490
820.849915,468
820.968506,492
821.087097,510
821.205627,501
821.324158,482
821.442749,499
821.561279,486
821.679871,489
821.798401,476
821.916931,464
822.035461,491
822.154053,492
822.272583,486
822.391174,496
822.509583,491
822.628174,482
822.746704,474
822.865234,481
822.983765,489
823.102295,488
823.220825,481
823.339294,480
823.457825,483
823.576355,487
823.694824,489
823.813354,476
823.931885,494
824.050354,494
824.168884,487
824.287354,500
824.405823,493
824.524353,483
824.642822,479
824.761353,473
824.879822,468
824.998291,494
825.116699,477
825.235291,483
825.353699,470
825.472168,490
825.590637,511
825.709106,479
825.827576,467
825.946045,485
826.064453,473
826.182983,487
826.301392,459
826.4198,500
826.53833,496
826.656738,502
826.775208,463
826.893677,464
827.012024,471
827.130493,464
827.248962,449
827.36731,461
827.485779,452
827.604248,481
827.722595,477
827.841064,460
827.959412,449
828.077942,452
828.196289,448
828.314636,464
828.433105,470
828.551514,473
828.669861,460
828.78833,444
828.906677,448
829.025085,466
829.143433,460
829.261841,453
829.38031,474
829.498657,460
829.617004,466
829.735413,460
829.85376,489
829.972107,476
830.090515,460
830.208862,455
830.327209,465
830.445557,462
830.563904,471
830.682312,458
830.800659,449
830.919006,468
831.037354,473
831.155701,473
831.274048,469
831.392395,458
831.51062,444
831.629028,459
831.747314,471
831.865662,454
831.984009,452
832.102356,466
832.220642,456
832.338928,485
832.457275,460
832.575623,460
832.693909,471
832.812134,472
832.930481,459
833.048828,450
833.167114,459
833.2854,466
833.403687,464
833.521973,476
833.640259,469
833.758545,453
833.876831,457
833.995056,473
834.113281,460
834.231628,473
834.349915,466
834.468201,468
834.586426,465
834.704651,466
834.822998,442
834.941162,458
835.059448,466
835.177673,459
835.295959,453
835.414246,452
835.53241,463
835.650635,461
835.768921,452
835.887146,465
836.005371,464
836.123596,457
836.241821,473
836.360046,474
836.478271,481
836.596497,480
836.714722,469
836.832886,474
836.95105,458
837.069336,467
837.1875,472
837.305725,491
837.423889,467
837.542053,468
837.660339,476
837.778503,478
837.896667,487
838.014832,475
838.132996,474
838.25116,475
838.369385,469
838.487488,482
838.605713,469
838.723877,469
838.84198,478
838.960205,484
839.078308,462
839.196472,482
839.314636,478
839.4328,466
839.550964,467
839.669067,463
839.787231,471
839.905396,462
840.023499,480
840.141602,480
840.259766,475
840.377869,484
840.495972,454
840.614136,470
840.732239,464
840.850342,456
840.968445,471
841.086548,479
841.204651,478
841.322754,470
841.440918,444
841.55896,485
841.677002,472
841.795166,457
841.913208,440
842.031311,476
842.149353,443
842.267456,444
842.385498,473
842.503601,473
842.621643,468
842.739746,469
842.857788,439
842.97583,464
843.093933,476
843.211975,457
843.330017,460
843.44812,448
843.566101,453
843.684204,453
843.802246,457
843.920227,459
844.038269,463
844.156311,479
844.274292,459
844.392395,428
844.510376,454
844.628357,456
844.74646,443
844.864441,451
844.982422,448
845.100403,483
845.218384,447
845.336426,457
845.454468,450
845.572449,472
845.69043,445
845.808411,434
845.926453,466
846.044373,463
846.162354,456
846.280396,441
846.398315,445
846.516296,456
846.634216,449
846.752197,452
846.870178,442
846.988098,479
847.106079,468
847.22406,449
847.34198,464
847.4599,478
847.577881,451
847.695801,458
847.813782,443
847.931641,467
848.049561,446
848.167603,444
848.285461,452
848.403381,459
848.521362,463
848.639221,449
848.75708,462
848.875,458
848.99292,467
849.110901,449
849.22876,444
849.34668,447
849.464539,458
849.582458,477
849.700317,471
849.818176,448
849.936096,435
850.053955,481
850.171875,440
850.289673,457
850.407593,452
850.525452,477
850.643311,453
850.761169,452
850.878967,453
850.996887,466
851.114746,450
851.232544,459
851.350403,470
851.468262,475
851.58606,468
851.703979,459
851.821777,465
851.939636,477
852.057434,440
852.175232,452
852.293091,455
852.410889,434
852.528687,469
852.646545,458
852.764343,454
852.88208,468
852.999939,478
853.117676,459
853.235535,444
853.353271,464
853.471069,453
853.588928,469
853.706604,440
853.824402,459
853.9422,447
854.059998,451
854.177734,463
854.295532,463
854.413269,463
854.531006,465
854.648804,466
854.766541,453
854.884277,468
855.002014,474
855.119751,472
855.237549,430
855.355225,468
855.473022,464
855.590698,473
855.708435,456
855.826172,449
855.943848,469
856.061646,447
856.179321,466
856.296997,461
856.414795,454
856.53241,486
856.650085,470
856.767822,467
856.885559,467
857.003174,459
857.120911,476
857.238586,461
857.356201,458
857.473938,472
857.591614,458
857.709351,448
857.826965,467
857.944641,452
858.062317,475
858.179993,471
858.297668,466
858.415283,461
858.532959,479
858.650574,453
858.768188,458
858.885803,461
859.003479,447
859.121094,454
859.23877,460
859.356384,458
859.473999,455
859.591675,450
859.709229,478
859.826843,466
859.944458,474
860.062012,444
860.179626,462
860.297302,460
860.414856,471
860.532471,461
860.650024,456
860.767639,453
860.885193,459
861.002808,452
861.120361,458
861.237976,444
861.35553,459
861.473022,466
861.590698,458
861.708191,461
861.825745,475
861.943298,442
862.060852,474
862.178406,463
862.295959,463
862.413513,461
862.531006,472
862.64856,462
862.766113,455
862.883667,454
863.00116,452
863.118713,446
863.236206,464
863.353699,473
863.471252,471
863.588745,455
863.706177,455
863.82373,460
863.941162,490
864.058716,474
864.176208,465
864.29364,479
864.411194,464
864.528687,471
864.646118,468
864.763611,455
864.881042,478
864.998535,463
865.116028,468
865.233459,451
865.350891,475
865.468384,480
865.585754,476
865.703308,465
865.820679,474
865.938171,443
866.055542,477
866.173035,466
866.290466,494
866.407837,459
866.52533,478
866.6427,485
866.760071,466
866.877563,452
866.994934,473
867.112305,471
867.229736,465
867.347107,466
867.464539,467
867.58197,487
867.699341,486
867.81665,452
867.934082,465
868.051453,463
868.168823,473
868.286194,455
868.403564,463
868.520935,467
868.638306,473
868.755676,462
868.872986,459
868.990295,453
869.107727,480
869.225037,456
869.342346,479
869.459717,454
869.577026,478
869.694336,473
869.811707,449
869.929016,469
870.046326,475
870.163635,459
870.280945,459
870.398254,492
870.515564,474
870.632812,469
870.750183,452
870.867432,451
870.984741,467
871.102051,459
871.219299,453
871.336609,454
871.453918,464
871.571106,473
871.688416,460
871.805664,466
871.922852,457
872.040222,446
872.157471,472
872.274719,467
872.391968,459
872.509155,473
872.626465,474
872.743652,468
872.860962,474
872.978149,447
873.095337,486
873.212646,448
873.329834,456
873.44696,464
873.564209,455
873.681396,450
873.798645,458
873.915894,453
874.03302,445
874.150208,465
874.267456,469
874.384583,474
874.501831,471
874.618958,452
874.736145,452
874.853333,463
874.970459,486
875.087646,474
875.204834,471
875.32196,477
875.439148,481
875.556274,461
875.673401,455
875.790527,474
875.907715,452
876.024841,444
876.141968,457
876.259094,459
876.376282,471
876.493347,483
876.610474,472
876.7276,465
876.844727,451
876.961853,455
877.078918,465
877.195984,458
877.313171,456
877.430237,491
877.547302,450
877.664368,471
877.781433,464
877.898499,490
878.015625,467
878.13269,482
878.249695,481
878.366821,457
878.483887,473
878.600952,476
878.717957,463
878.834961,469
878.952087,462
879.069092,446
879.186157,472
879.303162,450
879.420227,470
879.537231,465
879.654236,480
879.77124,446
879.888306,473
880.005249,470
880.122314,448
880.239319,482
880.356323,478
880.473328,473
880.590271,457
880.707275,468
880.824341,456
880.941284,455
881.058228,473
881.175232,453
881.292236,467
881.40918,466
881.526123,472
881.643066,446
881.760071,481
881.877014,462
881.993958,467
882.11084,466
882.227783,469
882.344727,476
882.46167,487
882.578613,472
882.695618,471
882.812439,455
882.929382,479
883.046326,474
883.163208,478
883.280151,450
883.397034,487
883.513916,480
883.630798,477
883.747742,456
883.864563,470
883.981506,474
884.098389,478
884.21521,478
884.332153,468
884.448975,471
884.565796,466
884.682678,450
884.7995,488
884.916443,479
885.033264,479
885.150085,460
885.266968,470
885.383789,493
885.500671,485
885.617493,469
885.734314,469
885.851196,483
885.967896,487
886.084717,492
886.201599,477
886.318359,454
886.435181,454
886.552002,464
886.668762,461
886.785645,454
886.902344,489
887.019165,477
887.135925,471
887.252747,473
887.369446,468
887.486267,457
887.603027,472
887.719788,472
887.836548,479
887.953247,485
888.070068,481
888.186829,459
888.303528,469
888.420288,462
888.536987,466
888.653687,486
888.770447,464
888.887146,479
889.003967,478
889.120667,468
889.237305,464
889.354065,466
889.470703,477
889.587463,474
889.704163,497
889.820862,469
889.937561,477
890.054199,475
890.170837,482
890.287598,464
890.404236,455
890.520874,456
890.637634,481
890.754211,477
890.87085,474
890.987549,468
891.104187,487
891.220886,472
891.337463,462
891.454102,458
891.57074,474
891.687378,448
891.804077,501
891.920654,465
892.037231,490
892.15387,494
892.270447,458
892.387085,469
892.503723,453
892.6203,474
892.736877,458
892.853516,475
892.970032,464
893.08667,461
893.203186,476
893.319763,490
893.43634,488
893.552917,485
893.669556,476
893.786011,474
893.902588,480
894.019165,502
894.135681,460
894.252197,467
894.368835,471
894.485291,482
894.601868,490
894.718384,491
894.8349,479
894.951355,472
895.067932,474
895.184448,478
895.300964,495
895.417419,452
895.533936,482
895.650452,472
895.766907,490
895.883423,469
895.999878,464
896.116333,483
896.232849,495
896.349304,483
896.465759,476
896.582214,465
896.698669,482
896.815125,472
896.931641,478
897.048035,469
897.164551,493
897.280884,489
897.397339,469
897.513794,485
897.630249,487
897.746582,474
897.863098,470
897.979431,466
898.095886,502
898.212341,487
898.328674,486
898.445129,468
898.561462,469
898.677795,478
898.794312,481
898.910645,476
899.026978,478
899.143433,476
899.259766,489
899.37616,475
899.492493,494
899.608765,476
899.725159,477
899.841553,471
899.957947,491
900.07428,474
900.190552,475
900.306946,480
900.423157,475
900.53949,479
900.655884,476
900.772156,482
900.888489,484
901.004822,487
901.121033,470
901.237366,473
901.353699,487
901.46991,481
901.586304,491
901.702515,471
901.818787,494
901.93512,495
902.051331,489
902.167603,489
902.283875,488
902.400085,479
902.516418,470
902.632629,475
902.74884,491
902.865112,474
902.981384,483
903.097595,483
903.213867,472
903.330017,490
903.446289,506
903.5625,482
903.67865,494
903.794922,460
903.911072,497
904.027344,486
904.143494,471
904.259705,463
904.375916,474
904.492065,491
904.608215,487
904.724426,477
904.840576,494
904.956726,494
905.072876,487
905.189087,462
905.305176,476
905.421387,469
905.537537,481
905.653687,509
905.769775,500
905.885925,486
906.002014,481
906.118164,493
906.234314,469
906.350403,470
906.466492,472
906.582642,491
906.69873,494
906.814758,503
906.930908,486
907.046936,482
907.163086,490
907.279175,488
907.395264,483
907.511353,481
907.62738,488
907.743408,492
907.859497,479
907.975525,469
908.091553,494
908.207703,497
908.32373,492
908.439758,490
908.555786,459
908.671814,470
908.787842,489
908.90387,471
909.019775,483
909.135864,490
909.251892,496
909.367859,471
909.483826,481
909.599854,488
909.715881,468
909.831848,498
909.947815,487
910.063782,474
910.179749,495
910.295776,499
910.411743,490
910.527649,469
910.643616,484
910.759583,472
910.875488,493
910.991455,493
911.107361,467
911.223267,488
911.339294,482
911.4552,494
911.571106,482
911.687073,496
911.802979,484
911.918823,478
912.034729,497
912.150635,484
912.266602,510
912.382446,471
912.498352,474
912.614197,486
912.730103,476
912.846008,464
792.44574,607
792.56488,627
792.68396,680
792.80304,662
792.92218,586
793.041199,622
793.160339,585
793.279419,582
793.398499,594
793.517578,575
793.636658,570
793.755737,597
793.874817,644
793.993896,602
794.112976,594
794.232056,571
794.351074,591
794.470215,574
794.589233,581
794.708313,594
794.827393,568
794.946411,601
795.065552,594
795.18457,595
795.303589,588
795.422668,590
795.541687,587
795.660767,600
795.779846,581
795.898865,569
796.017883,567
796.136963,573
796.255981,571
796.375061,580
796.49408,577
796.613037,572
796.732117,534
796.851135,567
796.970154,561
797.089233,571
797.208191,577
797.327271,589
797.446228,564
797.565186,590
797.684265,562
797.803223,583
797.922241,568
798.04126,574
798.160278,589
798.279297,564
798.398315,563
798.517273,567
798.636292,549
798.75531,574
798.874268,590
798.993286,550
799.112244,580
799.231323,575
799.350281,548
799.469238,573
799.588257,571
799.707153,578
799.826111,562
799.945129,568
800.064087,579
800.183044,585
800.302063,558
800.421021,565
800.539978,577
800.658936,585
800.777893,565
800.896912,601
801.015747,581
801.134705,552
801.253723,569
801.37262,562
801.491638,567
801.610535,582
801.729492,563
801.84845,563
801.967407,581
802.086243,564
802.205261,584
802.324158,576
802.443115,575
802.562073,577
802.680969,576
802.799927,579
802.918762,561
803.037659,586
803.156677,566
803.275574,566
803.39447,576
803.513428,571
803.632263,561
803.751221,566
803.870117,579
803.989014,606
804.107971,599
804.226746,578
804.345642,564
804.4646,599
804.583496,583
804.702393,572
804.821228,615
804.940125,589
805.059021,580
805.177917,591
805.296814,596
805.415649,609
805.534546,567
805.653442,570
805.772278,596
805.891113,594
806.01001,574
806.128906,606
806.247742,612
806.366577,600
806.485413,593
806.604309,611
806.723145,587
806.84198,596
806.960876,583
807.079712,587
807.198486,619
807.317383,587
807.436218,585
807.554993,576
807.673889,597
807.792725,591
807.91156,616
808.030396,585
808.14917,588
808.268005,594
808.386841,632
808.505676,599
808.624451,581
808.743286,604
808.862122,595
808.980896,590
809.099731,598
809.218506,553
809.337341,595
809.456116,603
809.57489,592
809.693726,615
809.8125,607
809.931274,598
810.050049,608
810.168884,616
810.287659,627
810.406372,618
810.525269,585
810.643982,588
810.762756,601
810.881531,605
811.000305,601
811.11908,619
811.237854,607
811.356567,601
811.475403,610
811.594116,596
811.71283,628
811.831604,615
811.950378,611
812.069153,624
812.187927,602
812.30658,632
812.425415,572
812.544128,611
812.662781,612
812.781616,615
812.900269,605
813.019043,600
813.137756,586
813.256531,620
813.375244,609
813.493896,609
813.612671,612
813.731384,585
813.850037,588
813.96875,624
814.087524,606
814.206238,632
814.324951,595
814.443604,610
814.562256,616
814.68103,585
814.799683,608
814.918335,605
815.037109,598
815.155762,605
815.274475,596
815.393188,604
815.511841,604
815.630554,600
815.749146,585
815.867859,582
815.986572,591
816.105164,599
816.223877,597
816.342529,583
816.461182,599
816.579895,591
816.698486,584
816.817139,604
816.935791,614
817.054504,594
817.173096,574
817.291748,595
817.4104,575
817.529053,567
817.647644,565
817.766235,575
817.884949,563
818.00354,556
818.122192,557
818.240845,559
818.359436,543
818.478088,548
818.59668,534
818.715271,527
818.833923,523
818.952515,511
819.071106,493
819.189758,507
819.30835,509
819.426941,496
819.545532,505
819.664124,497
819.782715,498
819.901306,508
820.019897,500
820.138489,509
820.25708,491
820.375671,486
820.494202,475
820.612732,514
820.731384,481
820.849915,496
820.968506,491
821.087097,474
821.205627,510
821.324158,500
821.442749,491
821.561279,489
821.679871,488
821.798401,496
821.916931,487
822.035461,481
822.154053,477
822.272583,485
822.391174,465
822.509583,478
822.628174,467
822.746704,488
822.865234,491
822.983765,479
823.102295,474
823.220825,498
823.339294,459
823.457825,485
823.576355,495
823.694824,474
823.813354,468
823.931885,494
824.050354,472
824.168884,502
824.287354,473
824.405823,503
824.524353,481
824.642822,487
824.761353,472
824.879822,466
824.998291,496
825.116699,485
825.235291,457
825.353699,485
825.472168,488
825.590637,486
825.709106,478
825.827576,472
825.946045,461
826.064453,469
826.182983,456
826.301392,475
826.4198,473
826.53833,455
826.656738,470
826.775208,472
826.893677,482
827.012024,455
827.130493,469
827.248962,465
827.36731,463
827.485779,464
827.604248,463
827.722595,462
827.841064,444
827.959412,464
828.077942,469
828.196289,477
828.314636,460
828.433105,459
828.551514,481
828.669861,457
828.78833,442
828.906677,465
829.025085,457
829.143433,465
829.261841,465
829.38031,468
829.498657,470
829.617004,481
829.735413,463
829.85376,466
829.972107,453
830.090515,461
830.208862,474
830.327209,458
830.445557,462
830.563904,460
830.682312,455
830.800659,449
830.919006,481
831.037354,468
831.155701,461
831.274048,440
831.392395,448
831.51062,467
831.629028,473
831.747314,469
831.865662,471
831.984009,457
832.102356,452
832.220642,467
832.338928,472
832.457275,471
832.575623,454
832.693909,458
832.812134,470
832.930481,450
833.048828,462
833.167114,477
833.2854,440
833.403687,471
833.521973,453
833.640259,472
833.758545,482
833.876831,468
833.995056,472
834.113281,453
834.231628,470
834.349915,464
834.468201,478
834.586426,451
834.704651,469
834.822998,460
834.941162,480
835.059448,454
835.177673,457
835.295959,476
835.414246,441
835.53241,458
835.650635,446
835.768921,462
835.887146,476
836.005371,463
836.123596,466
836.241821,454
836.360046,466
836.478271,482
836.596497,476
836.714722,453
836.832886,484
836.95105,496
837.069336,470
837.1875,469
837.305725,488
837.423889,484
837.542053,482
837.660339,488
837.778503,472
837.896667,468
838.014832,493
838.132996,466
838.25116,474
838.369385,483
838.487488,457
838.605713,478
838.723877,493
838.84198,452
838.960205,471
839.078308,482
839.196472,459
839.314636,476
839.4328,468
839.550964,493
839.669067,458
839.787231,473
839.905396,473
840.023499,481
840.141602,475
840.259766,474
840.377869,480
840.495972,460
840.614136,474
840.732239,474
840.850342,468
840.968445,487
841.086548,473
841.204651,470
841.322754,471
841.440918,467
841.55896,453
841.677002,470
841.795166,464
841.913208,439
842.031311,465
842.149353,466
842.267456,459
842.385498,467
842.503601,466
842.621643,471
842.739746,449
842.857788,470
842.97583,464
843.093933,467
843.211975,460
843.330017,471
843.44812,472
843.566101,463
843.684204,457
843.802246,467
843.920227,477
844.038269,471
844.156311,440
844.274292,476
844.392395,455
844.510376,478
844.628357,450
844.74646,457
844.864441,443
844.982422,460
845.100403,460
845.218384,458
845.336426,444
845.454468,468
845.572449,448
845.69043,449
845.808411,460
845.926453,460
846.044373,448
846.162354,448
846.280396,465
846.398315,452
846.516296,476
846.634216,458
846.752197,454
846.870178,459
846.988098,471
847.106079,453
847.22406,448
847.34198,445
847.4599,472
847.577881,474
847.695801,470
847.813782,456
847.931641,448
848.049561,456
848.167603,455
848.285461,462
848.403381,437
848.521362,457
848.639221,452
848.75708,458
848.875,445
848.99292,463
849.110901,448
849.22876,458
849.34668,458
849.464539,462
849.582458,460
849.700317,460
849.818176,473
849.936096,459
850.053955,464
850.171875,456
850.289673,457
850.407593,470
850.525452,451
850.643311,457
850.761169,449
850.878967,458
850.996887,455
851.114746,456
851.232544,458
851.350403,462
851.468262,457
851.58606,461
851.703979,477
851.821777,458
851.939636,450
852.057434,448
852.175232,438
852.293091,465
852.410889,452
852.528687,463
852.646545,441
852.764343,443
852.88208,435
852.999939,487
853.117676,452
853.235535,463
853.353271,453
853.471069,456
853.588928,454
853.706604,468
853.824402,466
853.9422,464
854.059998,464
854.177734,466
854.295532,458
854.413269,451
854.531006,453
854.648804,463
854.766541,461
854.884277,463
855.002014,469
855.119751,478
855.237549,459
855.355225,473
855.473022,453
855.590698,469
855.708435,462
855.826172,458
855.943848,465
856.061646,450
856.179321,468
856.296997,470
856.414795,469
856.53241,471
856.650085,449
856.767822,477
856.885559,476
857.003174,464
857.120911,468
857.238586,467
857.356201,458
857.473938,453
857.591614,467
857.709351,456
857.826965,462
857.944641,475
858.062317,487
858.179993,455
858.297668,447
858.415283,449
858.532959,468
858.650574,454
858.768188,462
858.885803,465
859.003479,461
859.121094,448
859.23877,462
859.356384,469
859.473999,466
859.591675,447
859.709229,442
859.826843,466
859.944458,463
860.062012,472
860.179626,449
860.297302,449
860.414856,462
860.532471,455
860.650024,465
860.767639,446
860.885193,471
861.002808,464
861.120361,457
861.237976,453
861.35553,444
861.473022,460
861.590698,459
861.708191,467
861.825745,467
861.943298,479
862.060852,462
862.178406,470
862.295959,457
862.413513,448
862.531006,483
862.64856,450
862.766113,446
862.883667,467
863.00116,449
863.118713,463
863.236206,463
863.353699,462
863.471252,452
863.588745,455
863.706177,478
863.82373,464
863.941162,456
864.058716,471
864.176208,469
864.29364,476
864.411194,450
864.528687,464
864.646118,465
864.763611,464
864.881042,471
864.998535,459
865.116028,465
865.233459,475
865.350891,468
865.468384,477
865.585754,469
865.703308,473
865.820679,464
865.938171,476
866.055542,458
866.173035,456
866.290466,450
866.407837,462
866.52533,456
866.6427,469
866.760071,460
866.877563,466
866.994934,451
867.112305,463
867.229736,451
867.347107,470
867.464539,459
867.58197,466
867.699341,450
867.81665,458
867.934082,470
868.051453,490
868.168823,468
868.286194,460
868.403564,465
868.520935,473
868.638306,482
868.755676,461
868.872986,452
868.990295,461
869.107727,460
869.225037,468
869.342346,459
869.459717,469
869.577026,470
869.694336,468
869.811707,446
869.929016,463
870.046326,459
870.163635,476
870.280945,465
870.398254,465
870.515564,462
870.632812,451
870.750183,471
870.867432,438
870.984741,480
871.102051,486
871.219299,473
871.336609,471
871.453918,466
871.571106,468
871.688416,462
871.805664,477
871.922852,463
872.040222,478
872.157471,506
872.274719,475
872.391968,455
872.509155,470
872.626465,457
872.743652,465
872.860962,467
872.978149,471
873.095337,450
873.212646,475
873.329834,473
873.44696,471
873.564209,460
873.681396,480
873.798645,481
873.915894,473
874.03302,470
874.150208,482
874.267456,455
874.384583,459
874.501831,477
874.618958,463
874.736145,465
874.853333,459
874.970459,457
875.087646,467
875.204834,475
875.32196,480
875.439148,488
875.556274,456
875.673401,457
875.790527,458
875.907715,456
876.024841,474
876.141968,458
876.259094,460
876.376282,451
876.493347,450
876.610474,467
876.7276,465
876.844727,462
876.961853,459
877.078918,463
877.195984,463
877.313171,468
877.430237,454
877.547302,457
877.664368,472
877.781433,468
877.898499,491
878.015625,476
878.13269,450
878.249695,456
878.366821,475
878.483887,482
878.600952,466
878.717957,466
878.834961,468
878.952087,466
879.069092,470
879.186157,453
879.303162,482
879.420227,458
879.537231,472
879.654236,475
879.77124,462
879.888306,472
880.005249,471
880.122314,476
880.239319,481
880.356323,466
880.473328,463
880.590271,472
880.707275,487
880.824341,472
880.941284,483
881.058228,453
881.175232,479
881.292236,467
881.40918,464
881.526123,466
881.643066,477
881.760071,484
881.877014,471
881.993958,484
882.11084,453
882.227783,460
882.344727,472
882.46167,461
882.578613,451
882.695618,466
882.812439,479
882.929382,462
883.046326,469
883.163208,477
883.280151,470
883.397034,486
883.513916,463
883.630798,466
883.747742,463
883.864563,463
883.981506,468
884.098389,474
884.21521,459
884.332153,468
884.448975,479
884.565796,465
884.682678,449
884.7995,476
884.916443,476
885.033264,466
885.150085,462
885.266968,476
885.383789,479
885.500671,454
885.617493,489
885.734314,472
885.851196,466
885.967896,465
886.084717,456
886.201599,486
886.318359,480
886.435181,477
886.552002,482
886.668762,473
886.785645,465
886.902344,458
887.019165,486
887.135925,480
887.252747,495
887.369446,480
887.486267,480
887.603027,466
887.719788,483
887.836548,474
887.953247,468
888.070068,475
888.186829,473
888.303528,468
888.420288,463
888.536987,475
888.653687,474
888.770447,464
888.887146,474
889.003967,476
889.120667,485
889.237305,474
889.354065,473
889.470703,485
889.587463,489
889.704163,458
889.820862,475
889.937561,472
890.054199,487
890.170837,469
890.287598,473
890.404236,477
890.520874,486
890.637634,482
890.754211,475
890.87085,481
890.987549,454
891.104187,468
891.220886,465
891.337463,487
891.454102,488
891.57074,499
891.687378,471
891.804077,469
891.920654,490
892.037231,480
892.15387,498
892.270447,490
892.387085,480
892.503723,461
892.6203,481
892.736877,486
892.853516,461
892.970032,490
893.08667,470
893.203186,451
893.319763,472
893.43634,499
893.552917,470
893.669556,478
893.786011,470
893.902588,495
894.019165,486
894.135681,480
894.252197,480
894.368835,490
894.485291,479
894.601868,463
894.718384,484
894.8349,466
894.951355,470
895.067932,463
895.184448,483
895.300964,477
895.417419,453
895.533936,468
895.650452,480
895.766907,493
895.883423,512
895.999878,469
896.116333,485
896.232849,488
896.349304,481
896.465759,477
896.582214,468
896.698669,495
896.815125,488
896.931641,468
897.048035,459
897.164551,487
897.280884,468
897.397339,476
897.513794,454
897.630249,483
897.746582,472
897.863098,470
897.979431,492
898.095886,465
898.212341,475
898.328674,452
898.445129,482
898.561462,502
898.677795,485
898.794312,478
898.910645,480
899.026978,500
899.143433,468
899.259766,471
899.37616,468
899.492493,477
899.608765,485
899.725159,461
899.841553,483
899.957947,478
900.07428,488
900.190552,496
900.306946,502
900.423157,471
900.53949,487
900.655884,510
900.772156,490
900.888489,493
901.004822,500
901.121033,466
901.237366,488
901.353699,504
901.46991,475
901.586304,467
901.702515,492
901.818787,487
901.93512,478
902.051331,487
902.167603,478
902.283875,478
902.400085,475
902.516418,481
902.632629,480
902.74884,481
902.865112,491
902.981384,491
903.097595,484
903.213867,462
903.330017,476
903.446289,501
903.5625,485
903.67865,478
903.794922,500
903.911072,462
904.027344,526
904.143494,499
904.259705,475
904.375916,491
904.492065,495
904.608215,481
904.724426,462
904.840576,488
904.956726,505
905.072876,498
905.189087,475
905.305176,462
905.421387,500
905.537537,490
905.653687,468
905.769775,478
905.885925,492
906.002014,499
906.118164,490
906.234314,516
906.350403,463
906.466492,473
906.582642,475
906.69873,491
906.814758,477
906.930908,478
907.046936,490
907.163086,472
907.279175,495
907.395264,483
907.511353,482
907.62738,496
907.743408,482
907.859497,479
907.975525,491
908.091553,490
908.207703,488
908.32373,478
908.439758,486
908.555786,491
908.671814,500
908.787842,470
908.90387,485
909.019775,465
909.135864,498
909.251892,487
909.367859,481
909.483826,482
909.599854,503
909.715881,476
909.831848,477
909.947815,485
910.063782,490
910.179749,479
910.295776,480
910.411743,485
910.527649,489
910.643616,474
910.759583,486
910.875488,489
910.991455,475
911.107361,483
911.223267,497
911.339294,498
911.4552,489
911.571106,486
911.687073,510
911.802979,462
911.918823,487
912.034729,483
912.150635,477
912.266602,495
912.382446,480
912.498352,487
912.614197,502
912.730103,501
912.846008,487
