792.44574,701
792.56488,718
792.68396,766
792.80304,709
792.92218,678
793.041199,660
793.160339,654
793.279419,672
793.398499,650
793.517578,650
793.636658,623
793.755737,647
793.874817,647
793.993896,647
794.112976,626
794.232056,587
794.351074,588
794.470215,592
794.589233,608
794.708313,571
794.827393,589
794.946411,588
795.065552,593
795.18457,602
795.303589,599
795.422668,592
795.541687,569
795.660767,586
795.779846,585
795.898865,577
796.017883,577
796.136963,575
796.255981,573
796.375061,571
796.49408,560
796.613037,592
796.732117,577
796.851135,565
796.970154,566
797.089233,565
797.208191,561
797.327271,542
797.446228,551
797.565186,552
797.684265,549
797.803223,559
797.922241,542
798.04126,537
798.160278,557
798.279297,527
798.398315,531
798.517273,530
798.636292,548
798.75531,523
798.874268,548
798.993286,534
799.112244,529
799.231323,524
799.350281,532
799.469238,529
799.588257,533
799.707153,532
799.826111,541
799.945129,524
800.064087,536
800.183044,520
800.302063,524
800.421021,534
800.539978,535
800.658936,533
800.777893,505
800.896912,538
801.015747,538
801.134705,515
801.253723,553
801.37262,550
801.491638,545
801.610535,543
801.729492,529
801.84845,536
801.967407,526
802.086243,547
802.205261,521
802.324158,518
802.443115,542
802.562073,529
802.680969,511
802.799927,509
802.918762,513
803.037659,523
803.156677,524
803.275574,527
803.39447,511
803.513428,528
803.632263,538
803.751221,518
803.870117,514
803.989014,506
804.107971,517
804.226746,524
804.345642,524
804.4646,522
804.583496,534
804.702393,517
804.821228,518
804.940125,513
805.059021,510
805.177917,531
805.296814,519
805.415649,523
805.534546,520
805.653442,510
805.772278,514
805.891113,529
806.01001,519
806.128906,514
806.247742,519
806.366577,500
806.485413,532
806.604309,515
806.723145,508
806.84198,495
806.960876,511
807.079712,537
807.198486,522
807.317383,517
807.436218,513
807.554993,494
807.673889,547
807.792725,541
807.91156,504
808.030396,526
808.14917,521
808.268005,527
808.386841,532
808.505676,516
808.624451,517
808.743286,511
808.862122,513
808.980896,521
809.099731,524
809.218506,510
809.337341,509
809.456116,531
809.57489,522
809.693726,496
809.8125,516
809.931274,507
810.050049,500
810.168884,511
810.287659,516
810.406372,498
810.525269,521
810.643982,519
810.762756,504
810.881531,503
811.000305,524
811.11908,498
811.237854,502
811.356567,545
811.475403,513
811.594116,512
811.71283,519
811.831604,522
811.950378,522
812.069153,519
812.187927,539
812.30658,521
812.425415,526
812.544128,501
812.662781,531
812.781616,517
812.900269,518
813.019043,516
813.137756,506
813.256531,521
813.375244,522
813.493896,511
813.612671,519
813.731384,520
813.850037,519
813.96875,501
814.087524,496
814.206238,497
814.324951,520
814.443604,509
814.562256,518
814.68103,495
814.799683,508
814.918335,517
815.037109,523
815.155762,517
815.274475,526
815.393188,517
815.511841,527
815.630554,497
815.749146,505
815.867859,514
815.986572,497
816.105164,514
816.223877,495
816.342529,522
816.461182,518
816.579895,543
816.698486,501
816.817139,504
816.935791,528
817.054504,488
817.173096,501
817.291748,528
817.4104,499
817.529053,503
817.647644,508
817.766235,493
817.884949,494
818.00354,503
818.122192,473
818.240845,499
818.359436,471
818.478088,474
818.59668,495
818.715271,476
818.833923,502
818.952515,490
819.071106,484
819.189758,465
819.30835,479
819.426941,474
819.545532,475
819.664124,465
819.782715,476
819.901306,463
820.019897,476
820.138489,474
820.25708,475
820.375671,442
820.494202,483
820.612732,479
820.731384,467
820.849915,494
820.968506,462
821.087097,468
821.205627,488
821.324158,467
821.442749,488
821.561279,460
821.679871,494
821.798401,472
821.916931,481
822.035461,469
822.154053,467
822.272583,471
822.391174,488
822.509583,469
822.628174,472
822.746704,463
822.865234,457
822.983765,459
823.102295,478
823.220825,464
823.339294,465
823.457825,464
823.576355,472
823.694824,480
823.813354,462
823.931885,466
824.050354,465
824.168884,483
824.287354,468
824.405823,459
824.524353,505
824.642822,463
824.761353,484
824.879822,447
824.998291,467
825.116699,464
825.235291,474
825.353699,481
825.472168,489
825.590637,475
825.709106,473
825.827576,454
825.946045,473
826.064453,465
826.182983,476
826.301392,453
826.4198,460
826.53833,472
826.656738,453
826.775208,447
826.893677,463
827.012024,459
827.130493,447
827.248962,466
827.36731,480
827.485779,455
827.604248,467
827.722595,442
827.841064,457
827.959412,449
828.077942,459
828.196289,459
828.314636,447
828.433105,459
828.551514,461
828.669861,443
828.78833,454
828.906677,462
829.025085,454
829.143433,465
829.261841,459
829.38031,450
829.498657,468
829.617004,460
829.735413,458
829.85376,455
829.972107,457
830.090515,445
830.208862,445
830.327209,454
830.445557,469
830.563904,433
830.682312,460
830.800659,459
830.919006,434
831.037354,456
831.155701,456
831.274048,472
831.392395,456
831.51062,467
831.629028,465
831.747314,455
831.865662,486
831.984009,444
832.102356,463
832.220642,468
832.338928,456
832.457275,449
832.575623,456
832.693909,459
832.812134,457
832.930481,440
833.048828,456
833.167114,448
833.2854,452
833.403687,466
833.521973,468
833.640259,444
833.758545,458
833.876831,458
833.995056,470
834.113281,448
834.231628,468
834.349915,461
834.468201,471
834.586426,460
834.704651,475
834.822998,473
834.941162,446
835.059448,457
835.177673,459
835.295959,441
835.414246,464
835.53241,450
835.650635,443
835.768921,455
835.887146,460
836.005371,461
836.123596,442
836.241821,455
836.360046,463
836.478271,430
836.596497,459
836.714722,454
836.832886,456
836.95105,452
837.069336,450
837.1875,440
837.305725,467
837.423889,461
837.542053,450
837.660339,463
837.778503,468
837.896667,439
838.014832,462
838.132996,464
838.25116,460
838.369385,470
838.487488,480
838.605713,458
838.723877,463
838.84198,451
838.960205,458
839.078308,446
839.196472,453
839.314636,472
839.4328,468
839.550964,464
839.669067,458
839.787231,444
839.905396,453
840.023499,478
840.141602,445
840.259766,448
840.377869,478
840.495972,468
840.614136,459
840.732239,463
840.850342,461
840.968445,460
841.086548,466
841.204651,437
841.322754,455
841.440918,486
841.55896,472
841.677002,456
841.795166,478
841.913208,483
842.031311,484
842.149353,471
842.267456,472
842.385498,463
842.503601,486
842.621643,463
842.739746,461
842.857788,471
842.97583,467
843.093933,470
843.211975,454
843.330017,462
843.44812,475
843.566101,468
843.684204,466
843.802246,477
843.920227,463
844.038269,467
844.156311,480
844.274292,459
844.392395,459
844.510376,453
844.628357,457
844.74646,456
844.864441,481
844.982422,450
845.100403,458
845.218384,465
845.336426,441
845.454468,467
845.572449,457
845.69043,449
845.808411,462
845.926453,469
846.044373,443
846.162354,469
846.280396,466
846.398315,474
846.516296,465
846.634216,459
846.752197,461
846.870178,461
846.988098,456
847.106079,465
847.22406,457
847.34198,479
847.4599,458
847.577881,461
847.695801,463
847.813782,463
847.931641,459
848.049561,451
848.167603,470
848.285461,459
848.403381,464
848.521362,465
848.639221,455
848.75708,462
848.875,466
848.99292,466
849.110901,465
849.22876,459
849.34668,459
849.464539,457
849.582458,467
849.700317,464
849.818176,484
849.936096,448
850.053955,467
850.171875,461
850.289673,458
850.407593,457
850.525452,460
850.643311,445
850.761169,469
850.878967,460
850.996887,476
851.114746,459
851.232544,461
851.350403,472
851.468262,463
851.58606,454
851.703979,464
851.821777,448
851.939636,483
852.057434,435
852.175232,473
852.293091,466
852.410889,477
852.528687,476
852.646545,465
852.764343,486
852.88208,474
852.999939,487
853.117676,461
853.235535,455
853.353271,493
853.471069,462
853.588928,469
853.706604,480
853.824402,476
853.9422,464
854.059998,474
854.177734,450
854.295532,467
854.413269,439
854.531006,459
854.648804,466
854.766541,481
854.884277,464
855.002014,465
855.119751,459
855.237549,459
855.355225,474
855.473022,470
855.590698,462
855.708435,463
855.826172,466
855.943848,457
856.061646,494
856.179321,481
856.296997,455
856.414795,465
856.53241,452
856.650085,466
856.767822,481
856.885559,483
857.003174,470
857.120911,487
857.238586,473
857.356201,457
857.473938,477
857.591614,487
857.709351,477
857.826965,461
857.944641,468
858.062317,467
858.179993,471
858.297668,460
858.415283,484
858.532959,492
858.650574,469
858.768188,479
858.885803,460
859.003479,468
859.121094,474
859.23877,460
859.356384,471
859.473999,475
859.591675,466
859.709229,476
859.826843,446
859.944458,458
860.062012,462
860.179626,455
860.297302,449
860.414856,447
860.532471,447
860.650024,472
860.767639,457
860.885193,454
861.002808,460
861.120361,475
861.237976,463
861.35553,468
861.473022,464
861.590698,460
861.708191,448
861.825745,461
861.943298,463
862.060852,467
862.178406,449
862.295959,462
862.413513,448
862.531006,462
862.64856,469
862.766113,460
862.883667,460
863.00116,447
863.118713,449
863.236206,459
863.353699,466
863.471252,467
863.588745,479
863.706177,473
863.82373,455
863.941162,465
864.058716,463
864.176208,468
864.29364,465
864.411194,482
864.528687,463
864.646118,488
864.763611,463
864.881042,464
864.998535,474
865.116028,472
865.233459,451
865.350891,469
865.468384,454
865.585754,465
865.703308,443
865.820679,462
865.938171,471
866.055542,467
866.173035,451
866.290466,461
866.407837,442
866.52533,459
866.6427,457
866.760071,446
866.877563,443
866.994934,457
867.112305,476
867.229736,459
867.347107,463
867.464539,461
867.58197,455
867.699341,472
867.81665,459
867.934082,473
868.051453,456
868.168823,456
868.286194,463
868.403564,450
868.520935,457
868.638306,474
868.755676,477
868.872986,466
868.990295,469
869.107727,476
869.225037,467
869.342346,482
869.459717,447
869.577026,466
869.694336,453
869.811707,460
869.929016,495
870.046326,474
870.163635,467
870.280945,465
870.398254,476
870.515564,473
870.632812,471
870.750183,472
870.867432,453
870.984741,471
871.102051,469
871.219299,492
871.336609,487
871.453918,485
871.571106,473
871.688416,495
871.805664,471
871.922852,479
872.040222,473
872.157471,473
872.274719,470
872.391968,485
872.509155,484
872.626465,490
872.743652,457
872.860962,465
872.978149,480
873.095337,468
873.212646,467
873.329834,445
873.44696,490
873.564209,468
873.681396,497
873.798645,473
873.915894,471
874.03302,469
874.150208,468
874.267456,481
874.384583,456
874.501831,496
874.618958,479
874.736145,508
874.853333,472
874.970459,509
875.087646,473
875.204834,483
875.32196,457
875.439148,482
875.556274,466
875.673401,490
875.790527,468
875.907715,470
876.024841,459
876.141968,457
876.259094,473
876.376282,482
876.493347,483
876.610474,470
876.7276,473
876.844727,459
876.961853,469
877.078918,463
877.195984,467
877.313171,487
877.430237,473
877.547302,478
877.664368,461
877.781433,453
877.898499,466
878.015625,483
878.13269,472
878.249695,462
878.366821,479
878.483887,460
878.600952,469
878.717957,474
878.834961,462
878.952087,490
879.069092,453
879.186157,448
879.303162,468
879.420227,468
879.537231,462
879.654236,483
879.77124,453
879.888306,480
880.005249,466
880.122314,462
880.239319,479
880.356323,454
880.473328,461
880.590271,462
880.707275,460
880.824341,468
880.941284,453
881.058228,454
881.175232,453
881.292236,456
881.40918,459
881.526123,471
881.643066,463
881.760071,455
881.877014,457
881.993958,469
882.11084,453
882.227783,455
882.344727,452
882.46167,464
882.578613,448
882.695618,445
882.812439,475
882.929382,470
883.046326,447
883.163208,465
883.280151,460
883.397034,447
883.513916,478
883.630798,470
883.747742,459
883.864563,460
883.981506,467
884.098389,488
884.21521,465
884.332153,470
884.448975,460
884.565796,482
884.682678,475
884.7995,476
884.916443,479
885.033264,479
885.150085,503
885.266968,511
885.383789,514
885.500671,512
885.617493,500
885.734314,503
885.851196,495
885.967896,506
886.084717,508
886.201599,492
886.318359,511
886.435181,528
886.552002,508
886.668762,494
886.785645,488
886.902344,511
887.019165,478
887.135925,466
887.252747,477
887.369446,482
887.486267,467
887.603027,483
887.719788,470
887.836548,488
887.953247,473
888.070068,477
888.186829,456
888.303528,475
888.420288,462
888.536987,470
888.653687,467
888.770447,472
888.887146,472
889.003967,452
889.120667,460
889.237305,459
889.354065,452
889.470703,477
889.587463,480
889.704163,469
889.820862,462
889.937561,451
890.054199,448
890.170837,468
890.287598,442
890.404236,458
890.520874,451
890.637634,491
890.754211,452
890.87085,464
890.987549,456
891.104187,460
891.220886,466
891.337463,467
891.454102,469
891.57074,452
891.687378,454
891.804077,490
891.920654,447
892.037231,475
892.15387,480
892.270447,469
892.387085,455
892.503723,470
892.6203,442
892.736877,471
892.853516,456
892.970032,473
893.08667,473
893.203186,463
893.319763,472
893.43634,459
893.552917,460
893.669556,464
893.786011,471
893.902588,468
894.019165,451
894.135681,453
894.252197,451
894.368835,455
894.485291,479
894.601868,453
894.718384,470
894.8349,471
894.951355,465
895.067932,459
895.184448,461
895.300964,475
895.417419,466
895.533936,459
895.650452,474
895.766907,460
895.883423,464
895.999878,478
896.116333,454
896.232849,461
896.349304,442
896.465759,468
896.582214,467
896.698669,475
896.815125,470
896.931641,450
897.048035,451
897.164551,459
897.280884,433
897.397339,464
897.513794,457
897.630249,468
897.746582,461
897.863098,456
897.979431,467
898.095886,469
898.212341,470
898.328674,477
898.445129,470
898.561462,481
898.677795,473
898.794312,480
898.910645,458
899.026978,459
899.143433,467
899.259766,468
899.37616,477
899.492493,455
899.608765,454
899.725159,476
899.841553,471
899.957947,471
900.07428,482
900.190552,479
900.306946,471
900.423157,472
900.53949,451
900.655884,433
900.772156,449
900.888489,476
901.004822,462
901.121033,470
901.237366,451
901.353699,465
901.46991,471
901.586304,494
901.702515,461
901.818787,492
901.93512,474
902.051331,488
902.167603,473
902.283875,470
902.400085,481
902.516418,503
902.632629,490
902.74884,479
902.865112,494
902.981384,472
903.097595,507
903.213867,492
903.330017,487
903.446289,496
903.5625,482
903.67865,475
903.794922,475
903.911072,478
904.027344,485
904.143494,497
904.259705,476
904.375916,494
904.492065,478
904.608215,465
904.724426,461
904.840576,459
904.956726,465
905.072876,473
905.189087,451
905.305176,478
905.421387,477
905.537537,469
905.653687,470
905.769775,478
905.885925,469
906.002014,479
906.118164,463
906.234314,470
906.350403,468
906.466492,472
906.582642,465
906.69873,476
906.814758,473
906.930908,452
907.046936,464
907.163086,455
907.279175,468
907.395264,454
907.511353,451
907.62738,491
907.743408,468
907.859497,453
907.975525,486
908.091553,464
908.207703,434
908.32373,480
908.439758,457
908.555786,484
908.671814,471
908.787842,471
908.90387,464
909.019775,471
909.135864,468
909.251892,477
909.367859,479
909.483826,451
909.599854,454
909.715881,502
909.831848,460
909.947815,490
910.063782,471
910.179749,468
910.295776,458
910.411743,472
910.527649,455
910.643616,467
910.759583,470
910.875488,462
910.991455,470
911.107361,475
911.223267,444
911.339294,453
911.4552,462
911.571106,469
911.687073,469
911.802979,472
911.918823,437
912.034729,479
912.150635,467
912.266602,463
912.382446,454
912.498352,493
912.614197,464
912.730103,482
912.846008,457
792.44574,693
792.56488,772
792.68396,758
792.80304,702
792.92218,675
793.041199,645
793.160339,661
793.279419,680
793.398499,674
793.517578,634
793.636658,644
793.755737,637
793.874817,615
793.993896,637
794.112976,620
794.232056,611
794.351074,610
794.470215,628
794.589233,599
794.708313,601
794.827393,610
794.946411,597
795.065552,599
795.18457,583
795.303589,608
795.422668,623
795.541687,572
795.660767,584
795.779846,593
795.898865,565
796.017883,577
796.136963,593
796.255981,580
796.375061,560
796.49408,575
796.613037,574
796.732117,558
796.851135,556
796.970154,562
797.089233,562
797.208191,562
797.327271,551
797.446228,557
797.565186,561
797.684265,540
797.803223,540
797.922241,568
798.04126,552
798.160278,537
798.279297,545
798.398315,553
798.517273,538
798.636292,556
798.75531,554
798.874268,553
798.993286,536
799.112244,543
799.231323,536
799.350281,531
799.469238,552
799.588257,567
799.707153,541
799.826111,553
799.945129,521
800.064087,539
800.183044,528
800.302063,555
800.421021,522
800.539978,533
800.658936,517
800.777893,545
800.896912,543
801.015747,529
801.134705,525
801.253723,540
801.37262,516
801.491638,525
801.610535,522
801.729492,518
801.84845,515
801.967407,513
802.086243,512
802.205261,528
802.324158,512
802.443115,520
802.562073,501
802.680969,535
802.799927,529
802.918762,517
803.037659,523
803.156677,543
803.275574,529
803.39447,517
803.513428,507
803.632263,526
803.751221,535
803.870117,523
803.989014,525
804.107971,514
804.226746,528
804.345642,518
804.4646,532
804.583496,515
804.702393,511
804.821228,530
804.940125,514
805.059021,533
805.177917,507
805.296814,511
805.415649,527
805.534546,545
805.653442,518
805.772278,524
805.891113,519
806.01001,531
806.128906,514
806.247742,534
806.366577,511
806.485413,522
806.604309,519
806.723145,512
806.84198,505
806.960876,515
807.079712,521
807.198486,514
807.317383,518
807.436218,540
807.554993,523
807.673889,511
807.792725,529
807.91156,522
808.030396,511
808.14917,525
808.268005,508
808.386841,518
808.505676,501
808.624451,534
808.743286,499
808.862122,514
808.980896,514
809.099731,527
809.218506,520
809.337341,530
809.456116,502
809.57489,506
809.693726,519
809.8125,537
809.931274,525
810.050049,498
810.168884,501
810.287659,527
810.406372,523
810.525269,536
810.643982,504
810.762756,516
810.881531,501
811.000305,513
811.11908,525
811.237854,507
811.356567,506
811.475403,513
811.594116,520
811.71283,526
811.831604,511
811.950378,526
812.069153,531
812.187927,505
812.30658,548
812.425415,510
812.544128,530
812.662781,525
812.781616,518
812.900269,526
813.019043,526
813.137756,510
813.256531,510
813.375244,506
813.493896,527
813.612671,514
813.731384,497
813.850037,523
813.96875,507
814.087524,508
814.206238,507
814.324951,510
814.443604,495
814.562256,531
814.68103,519
814.799683,523
814.918335,495
815.037109,538
815.155762,515
815.274475,502
815.393188,496
815.511841,507
815.630554,506
815.749146,504
815.867859,515
815.986572,518
816.105164,510
816.223877,524
816.342529,492
816.461182,519
816.579895,513
816.698486,511
816.817139,513
816.935791,521
817.054504,524
817.173096,506
817.291748,523
817.4104,505
817.529053,517
817.647644,491
817.766235,486
817.884949,484
818.00354,511
818.122192,486
818.240845,485
818.359436,500
818.478088,499
818.59668,486
818.715271,479
818.833923,480
818.952515,484
819.071106,489
819.189758,463
819.30835,497
819.426941,452
819.545532,492
819.664124,482
819.782715,492
819.901306,468
820.019897,494
820.138489,473
820.25708,480
820.375671,474
820.494202,479
820.612732,470
820.731384,491
820.849915,470
820.968506,476
821.087097,465
821.205627,480
821.324158,475
821.442749,477
821.561279,469
821.679871,472
821.798401,467
821.916931,448
822.035461,473
822.154053,467
822.272583,466
822.391174,460
822.509583,459
822.628174,474
822.746704,477
822.865234,466
822.983765,469
823.102295,474
823.220825,471
823.339294,463
823.457825,459
823.576355,474
823.694824,458
823.813354,477
823.931885,466
824.050354,482
824.168884,475
824.287354,475
824.405823,474
824.524353,467
824.642822,450
824.761353,483
824.879822,484
824.998291,471
825.116699,462
825.235291,477
825.353699,462
825.472168,465
825.590637,462
825.709106,481
825.827576,459
825.946045,462
826.064453,458
826.182983,473
826.301392,463
826.4198,476
826.53833,459
826.656738,472
826.775208,461
826.893677,458
827.012024,464
827.130493,462
827.248962,444
827.36731,448
827.485779,461
827.604248,466
827.722595,450
827.841064,467
827.959412,479
828.077942,472
828.196289,466
828.314636,449
828.433105,468
828.551514,474
828.669861,440
828.78833,465
828.906677,457
829.025085,460
829.143433,477
829.261841,452
829.38031,463
829.498657,450
829.617004,446
829.735413,451
829.85376,434
829.972107,475
830.090515,439
830.208862,478
830.327209,448
830.445557,466
830.563904,463
830.682312,462
830.800659,461
830.919006,471
831.037354,473
831.155701,469
831.274048,458
831.392395,464
831.51062,456
831.629028,470
831.747314,449
831.865662,478
831.984009,444
832.102356,480
832.220642,471
832.338928,456
832.457275,472
832.575623,468
832.693909,448
832.812134,489
832.930481,449
833.048828,459
833.167114,468
833.2854,465
833.403687,462
833.521973,477
833.640259,458
833.758545,461
833.876831,452
833.995056,467
834.113281,451
834.231628,485
834.349915,449
834.468201,443
834.586426,454
834.704651,464
834.822998,456
834.941162,473
835.059448,465
835.177673,461
835.295959,455
835.414246,479
835.53241,460
835.650635,455
835.768921,466
835.887146,461
836.005371,468
836.123596,476
836.241821,450
836.360046,453
836.478271,453
836.596497,452
836.714722,452
836.832886,461
836.95105,456
837.069336,469
837.1875,468
837.305725,467
837.423889,463
837.542053,472
837.660339,440
837.778503,457
837.896667,453
838.014832,473
838.132996,457
838.25116,455
838.369385,454
838.487488,463
838.605713,465
838.723877,481
838.84198,442
838.960205,471
839.078308,461
839.196472,451
839.314636,467
839.4328,464
839.550964,472
839.669067,464
839.787231,459
839.905396,496
840.023499,475
840.141602,481
840.259766,455
840.377869,471
840.495972,459
840.614136,461
840.732239,464
840.850342,460
840.968445,450
841.086548,462
841.204651,459
841.322754,468
841.440918,471
841.55896,485
841.677002,452
841.795166,471
841.913208,453
842.031311,484
842.149353,474
842.267456,482
842.385498,479
842.503601,461
842.621643,446
842.739746,449
842.857788,476
842.97583,461
843.093933,457
843.211975,464
843.330017,465
843.44812,475
843.566101,456
843.684204,473
843.802246,481
843.920227,476
844.038269,470
844.156311,483
844.274292,464
844.392395,463
844.510376,457
844.628357,469
844.74646,457
844.864441,460
844.982422,473
845.100403,456
845.218384,447
845.336426,462
845.454468,469
845.572449,474
845.69043,468
845.808411,474
845.926453,454
846.044373,449
846.162354,476
846.280396,476
846.398315,450
846.516296,464
846.634216,470
846.752197,475
846.870178,460
846.988098,477
847.106079,455
847.22406,477
847.34198,459
847.4599,459
847.577881,462
847.695801,469
847.813782,458
847.931641,472
848.049561,463
848.167603,472
848.285461,457
848.403381,470
848.521362,466
848.639221,479
848.75708,462
848.875,476
848.99292,478
849.110901,487
849.22876,476
849.34668,464
849.464539,460
849.582458,486
849.700317,468
849.818176,461
849.936096,471
850.053955,459
850.171875,442
850.289673,463
850.407593,461
850.525452,451
850.643311,448
850.761169,462
850.878967,454
850.996887,462
851.114746,455
851.232544,476
851.350403,459
851.468262,468
851.58606,455
851.703979,460
851.821777,457
851.939636,486
852.057434,466
852.175232,469
852.293091,466
852.410889,481
852.528687,488
852.646545,454
852.764343,464
852.88208,483
852.999939,458
853.117676,487
853.235535,460
853.353271,462
853.471069,467
853.588928,454
853.706604,488
853.824402,465
853.9422,464
854.059998,465
854.177734,458
854.295532,473
854.413269,450
854.531006,472
854.648804,459
854.766541,469
854.884277,466
855.002014,476
855.119751,472
855.237549,469
855.355225,465
855.473022,490
855.590698,461
855.708435,471
855.826172,466
855.943848,468
856.061646,493
856.179321,467
856.296997,467
856.414795,491
856.53241,456
856.650085,474
856.767822,475
856.885559,477
857.003174,493
857.120911,488
857.238586,480
857.356201,475
857.473938,449
857.591614,467
857.709351,481
857.826965,482
857.944641,471
858.062317,498
858.179993,465
858.297668,472
858.415283,467
858.532959,453
858.650574,463
858.768188,454
858.885803,457
859.003479,480
859.121094,455
859.23877,476
859.356384,470
859.473999,467
859.591675,462
859.709229,466
859.826843,474
859.944458,478
860.062012,469
860.179626,460
860.297302,470
860.414856,460
860.532471,452
860.650024,472
860.767639,482
860.885193,469
861.002808,459
861.120361,453
861.237976,456
861.35553,477
861.473022,459
861.590698,479
861.708191,469
861.825745,474
861.943298,473
862.060852,447
862.178406,464
862.295959,458
862.413513,453
862.531006,487
862.64856,467
862.766113,459
862.883667,458
863.00116,462
863.118713,456
863.236206,471
863.353699,443
863.471252,459
863.588745,465
863.706177,451
863.82373,456
863.941162,452
864.058716,474
864.176208,464
864.29364,469
864.411194,479
864.528687,466
864.646118,463
864.763611,463
864.881042,476
864.998535,450
865.116028,466
865.233459,464
865.350891,473
865.468384,475
865.585754,470
865.703308,445
865.820679,467
865.938171,470
866.055542,478
866.173035,463
866.290466,471
866.407837,454
866.52533,460
866.6427,464
866.760071,471
866.877563,454
866.994934,466
867.112305,449
867.229736,476
867.347107,478
867.464539,472
867.58197,449
867.699341,468
867.81665,476
867.934082,483
868.051453,429
868.168823,446
868.286194,447
868.403564,472
868.520935,461
868.638306,487
868.755676,481
868.872986,485
868.990295,465
869.107727,463
869.225037,469
869.342346,467
869.459717,453
869.577026,486
869.694336,479
869.811707,480
869.929016,459
870.046326,478
870.163635,454
870.280945,474
870.398254,488
870.515564,475
870.632812,474
870.750183,484
870.867432,487
870.984741,464
871.102051,474
871.219299,487
871.336609,468
871.453918,467
871.571106,478
871.688416,489
871.805664,481
871.922852,478
872.040222,457
872.157471,470
872.274719,458
872.391968,491
872.509155,477
872.626465,471
872.743652,495
872.860962,483
872.978149,453
873.095337,484
873.212646,467
873.329834,467
873.44696,471
873.564209,477
873.681396,468
873.798645,476
873.915894,490
874.03302,496
874.150208,478
874.267456,495
874.384583,454
874.501831,487
874.618958,496
874.736145,494
874.853333,461
874.970459,482
875.087646,469
875.204834,489
875.32196,486
875.439148,491
875.556274,486
875.673401,475
875.790527,457
875.907715,471
876.024841,465
876.141968,476
876.259094,459
876.376282,491
876.493347,473
876.610474,476
876.7276,467
876.844727,467
876.961853,477
877.078918,464
877.195984,464
877.313171,473
877.430237,483
877.547302,474
877.664368,452
877.781433,471
877.898499,486
878.015625,486
878.13269,465
878.249695,472
878.366821,456
878.483887,473
878.600952,462
878.717957,459
878.834961,464
878.952087,482
879.069092,475
879.186157,457
879.303162,470
879.420227,468
879.537231,477
879.654236,466
879.77124,471
879.888306,467
880.005249,460
880.122314,465
880.239319,453
880.356323,473
880.473328,466
880.590271,467
880.707275,477
880.824341,470
880.941284,462
881.058228,483
881.175232,445
881.292236,478
881.40918,451
881.526123,459
881.643066,447
881.760071,463
881.877014,455
881.993958,492
882.11084,457
882.227783,473
882.344727,457
882.46167,479
882.578613,466
882.695618,461
882.812439,469
882.929382,475
883.046326,452
883.163208,470
883.280151,457
883.397034,464
883.513916,483
883.630798,474
883.747742,460
883.864563,471
883.981506,473
884.098389,493
884.21521,471
884.332153,470
884.448975,453
884.565796,502
884.682678,480
884.7995,471
884.916443,481
885.033264,499
885.150085,485
885.266968,495
885.383789,488
885.500671,509
885.617493,485
885.734314,505
885.851196,508
885.967896,507
886.084717,514
886.201599,500
886.318359,494
886.435181,502
886.552002,500
886.668762,521
886.785645,492
886.902344,488
887.019165,485
887.135925,501
887.252747,480
887.369446,475
887.486267,498
887.603027,466
887.719788,478
887.836548,490
887.953247,473
888.070068,472
888.186829,493
888.303528,462
888.420288,463
888.536987,474
888.653687,453
888.770447,436
888.887146,463
889.003967,457
889.120667,464
889.237305,476
889.354065,449
889.470703,451
889.587463,447
889.704163,475
889.820862,450
889.937561,469
890.054199,464
890.170837,467
890.287598,463
890.404236,450
890.520874,463
890.637634,480
890.754211,472
890.87085,468
890.987549,476
891.104187,464
891.220886,477
891.337463,475
891.454102,476
891.57074,462
891.687378,483
891.804077,487
891.920654,468
892.037231,474
892.15387,473
892.270447,476
892.387085,458
892.503723,483
892.6203,460
892.736877,456
892.853516,461
892.970032,467
893.08667,463
893.203186,465
893.319763,456
893.43634,479
893.552917,482
893.669556,478
893.786011,455
893.902588,474
894.019165,479
894.135681,493
894.252197,480
894.368835,468
894.485291,471
894.601868,488
894.718384,466
894.8349,456
894.951355,467
895.067932,472
895.184448,472
895.300964,464
895.417419,468
895.533936,440
895.650452,468
895.766907,476
895.883423,463
895.999878,458
896.116333,466
896.232849,472
896.349304,448
896.465759,472
896.582214,474
896.698669,473
896.815125,471
896.931641,467
897.048035,471
897.164551,465
897.280884,457
897.397339,451
897.513794,472
897.630249,462
897.746582,481
897.863098,476
897.979431,455
898.095886,464
898.212341,447
898.328674,477
898.445129,470
898.561462,465
898.677795,463
898.794312,470
898.910645,471
899.026978,455
899.143433,459
899.259766,445
899.37616,460
899.492493,472
899.608765,466
899.725159,459
899.841553,464
899.957947,492
900.07428,463
900.190552,454
900.306946,476
900.423157,467
900.53949,477
900.655884,478
900.772156,467
900.888489,464
901.004822,463
901.121033,478
901.237366,468
901.353699,458
901.46991,463
901.586304,478
901.702515,477
901.818787,480
901.93512,467
902.051331,473
902.167603,478
902.283875,484
902.400085,497
902.516418,494
902.632629,502
902.74884,496
902.865112,482
902.981384,502
903.097595,503
903.213867,487
903.330017,493
903.446289,490
903.5625,490
903.67865,491
903.794922,492
903.911072,473
904.027344,484
904.143494,474
904.259705,497
904.375916,477
904.492065,465
904.608215,490
904.724426,479
904.840576,482
904.956726,478
905.072876,467
905.189087,487
905.305176,478
905.421387,499
905.537537,474
905.653687,465
905.769775,498
905.885925,457
906.002014,476
906.118164,449
906.234314,482
906.350403,473
906.466492,474
906.582642,437
906.69873,481
906.814758,472
906.930908,462
907.046936,465
907.163086,482
907.279175,449
907.395264,464
907.511353,468
907.62738,482
907.743408,468
907.859497,466
907.975525,457
908.091553,480
908.207703,471
908.32373,470
908.439758,480
908.555786,479
908.671814,454
908.787842,480
908.90387,467
909.019775,495
909.135864,455
909.251892,479
909.367859,472
909.483826,484
909.599854,462
909.715881,474
909.831848,470
909.947815,478
910.063782,471
910.179749,475
910.295776,455
910.411743,480
910.527649,501
910.643616,487
910.759583,486
910.875488,480
910.991455,465
911.107361,489
911.223267,468
911.339294,467
911.4552,478
911.571106,482
911.687073,483
911.802979,467
911.918823,475
912.034729,450
912.150635,460
912.266602,470
912.382446,486
912.498352,476
912.614197,456
912.730103,465
912.846008,468
792.44574,710
792.56488,724
792.68396,747
792.80304,745
792.92218,701
793.041199,653
793.160339,663
793.279419,674
793.398499,670
793.517578,604
793.636658,605
793.755737,626
793.874817,639
793.993896,645
794.112976,633
794.232056,592
794.351074,626
794.470215,629
794.589233,604
794.708313,610
794.827393,619
794.946411,595
795.065552,593
795.18457,585
795.303589,604
795.422668,590
795.541687,565
795.660767,573
795.779846,579
795.898865,557
796.017883,563
796.136963,574
796.255981,564
796.375061,575
796.49408,552
796.613037,609
796.732117,573
796.851135,554
796.970154,564
797.089233,540
797.208191,541
797.327271,528
797.446228,554
797.565186,538
797.684265,542
797.803223,559
797.922241,557
798.04126,538
798.160278,532
798.279297,548
798.398315,549
798.517273,533
798.636292,551
798.75531,538
798.874268,548
798.993286,526
799.112244,536
799.231323,555
799.350281,535
799.469238,534
799.588257,552
799.707153,538
799.826111,535
799.945129,520
800.064087,539
800.183044,540
800.302063,564
800.421021,544
800.539978,535
800.658936,544
800.777893,550
800.896912,534
801.015747,522
801.134705,519
801.253723,559
801.37262,514
801.491638,531
801.610535,524
801.729492,532
801.84845,501
801.967407,520
802.086243,517
802.205261,515
802.324158,507
802.443115,534
802.562073,507
802.680969,539
802.799927,529
802.918762,526
803.037659,516
803.156677,557
803.275574,506
803.39447,543
803.513428,527
803.632263,536
803.751221,518
803.870117,519
803.989014,511
804.107971,513
804.226746,516
804.345642,522
804.4646,537
804.583496,526
804.702393,513
804.821228,528
804.940125,522
805.059021,501
805.177917,509
805.296814,539
805.415649,493
805.534546,526
805.653442,505
805.772278,514
805.891113,515
806.01001,524
806.128906,517
806.247742,513
806.366577,517
806.485413,532
806.604309,529
806.723145,528
806.84198,530
806.960876,510
807.079712,517
807.198486,493
807.317383,513
807.436218,496
807.554993,508
807.673889,540
807.792725,515
807.91156,524
808.030396,495
808.14917,510
808.268005,504
808.386841,540
808.505676,506
808.624451,514
808.743286,506
808.862122,508
808.980896,489
809.099731,525
809.218506,500
809.337341,519
809.456116,514
809.57489,532
809.693726,508
809.8125,513
809.931274,513
810.050049,522
810.168884,502
810.287659,535
810.406372,507
810.525269,518
810.643982,503
810.762756,518
810.881531,519
811.000305,527
811.11908,512
811.237854,524
811.356567,498
811.475403,533
811.594116,521
811.71283,513
811.831604,502
811.950378,533
812.069153,509
812.187927,496
812.30658,523
812.425415,526
812.544128,520
812.662781,527
812.781616,524
812.900269,511
813.019043,503
813.137756,539
813.256531,511
813.375244,516
813.493896,526
813.612671,542
813.731384,493
813.850037,537
813.96875,488
814.087524,496
814.206238,492
814.324951,500
814.443604,479
814.562256,514
814.68103,509
814.799683,524
814.918335,508
815.037109,520
815.155762,522
815.274475,503
815.393188,505
815.511841,512
815.630554,527
815.749146,512
815.867859,504
815.986572,505
816.105164,514
816.223877,502
816.342529,498
816.461182,499
816.579895,504
816.698486,514
816.817139,504
816.935791,516
817.054504,505
817.173096,526
817.291748,503
817.4104,495
817.529053,496
817.647644,497
817.766235,497
817.884949,496
818.00354,489
818.122192,486
818.240845,487
818.359436,484
818.478088,495
818.59668,485
818.715271,487
818.833923,490
818.952515,469
819.071106,489
819.189758,485
819.30835,501
819.426941,496
819.545532,506
819.664124,490
819.782715,493
819.901306,480
820.019897,475
820.138489,468
820.25708,477
820.375671,483
820.494202,469
820.612732,461
820.731384,469
820.849915,481
820.968506,509
821.087097,464
821.205627,474
821.324158,486
821.442749,479
821.561279,454
821.679871,471
821.798401,489
821.916931,481
822.035461,461
822.154053,468
822.272583,473
822.391174,462
822.509583,462
822.628174,476
822.746704,474
822.865234,480
822.983765,485
823.102295,474
823.220825,461
823.339294,470
823.457825,487
823.576355,475
823.694824,486
823.813354,483
823.931885,461
824.050354,476
824.168884,478
824.287354,482
824.405823,485
824.524353,463
824.642822,482
824.761353,468
824.879822,467
824.998291,498
825.116699,460
825.235291,454
825.353699,459
825.472168,463
825.590637,447
825.709106,467
825.827576,486
825.946045,471
826.064453,463
826.182983,453
826.301392,464
826.4198,462
826.53833,459
826.656738,455
826.775208,472
826.893677,466
827.012024,464
827.130493,463
827.248962,474
827.36731,469
827.485779,457
827.604248,464
827.722595,464
827.841064,471
827.959412,465
828.077942,485
828.196289,451
828.314636,445
828.433105,480
828.551514,464
828.669861,456
828.78833,470
828.906677,458
829.025085,479
829.143433,458
829.261841,447
829.38031,439
829.498657,459
829.617004,462
829.735413,450
829.85376,464
829.972107,444
830.090515,465
830.208862,459
830.327209,466
830.445557,471
830.563904,456
830.682312,451
830.800659,472
830.919006,474
831.037354,449
831.155701,478
831.274048,442
831.392395,452
831.51062,456
831.629028,459
831.747314,454
831.865662,460
831.984009,456
832.102356,458
832.220642,462
832.338928,459
832.457275,462
832.575623,480
832.693909,469
832.812134,477
832.930481,464
833.048828,470
833.167114,462
833.2854,444
833.403687,463
833.521973,483
833.640259,444
833.758545,452
833.876831,453
833.995056,484
834.113281,463
834.231628,486
834.349915,478
834.468201,453
834.586426,464
834.704651,452
834.822998,453
834.941162,461
835.059448,467
835.177673,473
835.295959,467
835.414246,466
835.53241,464
835.650635,467
835.768921,477
835.887146,468
836.005371,459
836.123596,485
836.241821,445
836.360046,460
836.478271,454
836.596497,463
836.714722,448
836.832886,470
836.95105,463
837.069336,471
837.1875,478
837.305725,466
837.423889,478
837.542053,464
837.660339,443
837.778503,479
837.896667,477
838.014832,457
838.132996,455
838.25116,454
838.369385,465
838.487488,484
838.605713,454
838.723877,465
838.84198,462
838.960205,459
839.078308,466
839.196472,467
839.314636,469
839.4328,473
839.550964,468
839.669067,453
839.787231,467
839.905396,462
840.023499,471
840.141602,457
840.259766,458
840.377869,478
840.495972,482
840.614136,462
840.732239,472
840.850342,485
840.968445,464
841.086548,477
841.204651,474
841.322754,465
841.440918,453
841.55896,469
841.677002,465
841.795166,480
841.913208,468
842.031311,472
842.149353,462
842.267456,476
842.385498,481
842.503601,460
842.621643,471
842.739746,485
842.857788,467
842.97583,452
843.093933,486
843.211975,470
843.330017,455
843.44812,462
843.566101,464
843.684204,477
843.802246,460
843.920227,457
844.038269,500
844.156311,470
844.274292,477
844.392395,461
844.510376,457
844.628357,464
844.74646,471
844.864441,449
844.982422,472
845.100403,474
845.218384,449
845.336426,466
845.454468,448
845.572449,468
845.69043,461
845.808411,472
845.926453,465
846.044373,454
846.162354,479
846.280396,471
846.398315,461
846.516296,474
846.634216,461
846.752197,451
846.870178,467
846.988098,475
847.106079,452
847.22406,459
847.34198,457
847.4599,460
847.577881,455
847.695801,461
847.813782,466
847.931641,473
848.049561,488
848.167603,465
848.285461,465
848.403381,469
848.521362,460
848.639221,480
848.75708,463
848.875,456
848.99292,468
849.110901,444
849.22876,462
849.34668,463
849.464539,465
849.582458,468
849.700317,478
849.818176,470
849.936096,475
850.053955,461
850.171875,453
850.289673,465
850.407593,456
850.525452,470
850.643311,456
850.761169,462
850.878967,476
850.996887,463
851.114746,467
851.232544,464
851.350403,464
851.468262,463
851.58606,480
851.703979,460
851.821777,464
851.939636,465
852.057434,449
852.175232,490
852.293091,495
852.410889,455
852.528687,454
852.646545,506
852.764343,501
852.88208,475
852.999939,482
853.117676,496
853.235535,460
853.353271,477
853.471069,466
853.588928,443
853.706604,462
853.824402,483
853.9422,462
854.059998,464
854.177734,471
854.295532,467
854.413269,453
854.531006,468
854.648804,469
854.766541,482
854.884277,481
855.002014,471
855.119751,458
855.237549,465
855.355225,466
855.473022,464
855.590698,478
855.708435,473
855.826172,448
855.943848,467
856.061646,469
856.179321,466
856.296997,464
856.414795,466
856.53241,490
856.650085,459
856.767822,469
856.885559,476
857.003174,470
857.120911,462
857.238586,475
857.356201,502
857.473938,451
857.591614,486
857.709351,482
857.826965,473
857.944641,468
858.062317,479
858.179993,470
858.297668,470
858.415283,468
858.532959,486
858.650574,482
858.768188,497
858.885803,467
859.003479,475
859.121094,470
859.23877,475
859.356384,489
859.473999,479
859.591675,464
859.709229,489
859.826843,461
859.944458,474
860.062012,434
860.179626,472
860.297302,469
860.414856,457
860.532471,472
860.650024,461
860.767639,436
860.885193,462
861.002808,445
861.120361,464
861.237976,458
861.35553,459
861.473022,461
861.590698,482
861.708191,479
861.825745,456
861.943298,457
862.060852,488
862.178406,450
862.295959,470
862.413513,452
862.531006,456
862.64856,458
862.766113,469
862.883667,466
863.00116,464
863.118713,468
863.236206,463
863.353699,461
863.471252,474
863.588745,460
863.706177,467
863.82373,469
863.941162,481
864.058716,484
864.176208,453
864.29364,477
864.411194,463
864.528687,478
864.646118,470
864.763611,460
864.881042,462
864.998535,454
865.116028,459
865.233459,458
865.350891,449
865.468384,459
865.585754,463
865.703308,473
865.820679,460
865.938171,450
866.055542,452
866.173035,475
866.290466,482
866.407837,457
866.52533,469
866.6427,464
866.760071,474
866.877563,470
866.994934,483
867.112305,463
867.229736,471
867.347107,474
867.464539,465
867.58197,447
867.699341,474
867.81665,449
867.934082,484
868.051453,459
868.168823,475
868.286194,475
868.403564,455
868.520935,477
868.638306,476
868.755676,461
868.872986,469
868.990295,459
869.107727,463
869.225037,470
869.342346,450
869.459717,474
869.577026,459
869.694336,451
869.811707,470
869.929016,469
870.046326,461
870.163635,478
870.280945,475
870.398254,475
870.515564,481
870.632812,488
870.750183,480
870.867432,467
870.984741,460
871.102051,455
871.219299,495
871.336609,473
871.453918,488
871.571106,477
871.688416,478
871.805664,492
871.922852,484
872.040222,487
872.157471,491
872.274719,500
872.391968,476
872.509155,477
872.626465,477
872.743652,473
872.860962,486
872.978149,493
873.095337,490
873.212646,449
873.329834,477
873.44696,468
873.564209,482
873.681396,477
873.798645,475
873.915894,486
874.03302,483
874.150208,469
874.267456,491
874.384583,478
874.501831,486
874.618958,487
874.736145,493
874.853333,475
874.970459,484
875.087646,479
875.204834,469
875.32196,482
875.439148,482
875.556274,481
875.673401,467
875.790527,467
875.907715,495
876.024841,464
876.141968,481
876.259094,485
876.376282,476
876.493347,472
876.610474,468
876.7276,483
876.844727,463
876.961853,484
877.078918,492
877.195984,476
877.313171,473
877.430237,461
877.547302,474
877.664368,467
877.781433,483
877.898499,480
878.015625,500
878.13269,470
878.249695,462
878.366821,461
878.483887,472
878.600952,479
878.717957,470
878.834961,476
878.952087,459
879.069092,479
879.186157,463
879.303162,484
879.420227,475
879.537231,456
879.654236,467
879.77124,450
879.888306,477
880.005249,468
880.122314,462
880.239319,462
880.356323,475
880.473328,467
880.590271,459
880.707275,459
880.824341,451
880.941284,465
881.058228,464
881.175232,465
881.292236,458
881.40918,454
881.526123,467
881.643066,456
881.760071,476
881.877014,448
881.993958,456
882.11084,463
882.227783,464
882.344727,469
882.46167,461
882.578613,468
882.695618,435
882.812439,466
882.929382,458
883.046326,469
883.163208,465
883.280151,461
883.397034,464
883.513916,467
883.630798,473
883.747742,467
883.864563,502
883.981506,471
884.098389,494
884.21521,459
884.332153,473
884.448975,449
884.565796,476
884.682678,480
884.7995,488
884.916443,490
885.033264,489
885.150085,484
885.266968,504
885.383789,503
885.500671,496
885.617493,514
885.734314,492
885.851196,519
885.967896,508
886.084717,505
886.201599,525
886.318359,500
886.435181,488
886.552002,515
886.668762,488
886.785645,467
886.902344,487
887.019165,509
887.135925,524
887.252747,477
887.369446,474
887.486267,474
887.603027,488
887.719788,479
887.836548,495
887.953247,464
888.070068,495
888.186829,484
888.303528,470
888.420288,469
888.536987,461
888.653687,491
888.770447,479
888.887146,465
889.003967,463
889.120667,451
889.237305,488
889.354065,449
889.470703,465
889.587463,456
889.704163,461
889.820862,459
889.937561,461
890.054199,471
890.170837,461
890.287598,464
890.404236,479
890.520874,434
890.637634,458
890.754211,467
890.87085,451
890.987549,463
891.104187,460
891.220886,458
891.337463,477
891.454102,466
891.57074,451
891.687378,461
891.804077,470
891.920654,474
892.037231,488
892.15387,457
892.270447,482
892.387085,458
892.503723,483
892.6203,470
892.736877,457
892.853516,485
892.970032,464
893.08667,456
893.203186,452
893.319763,446
893.43634,466
893.552917,468
893.669556,464
893.786011,472
893.902588,466
894.019165,442
894.135681,463
894.252197,463
894.368835,460
894.485291,469
894.601868,459
894.718384,478
894.8349,468
894.951355,464
895.067932,457
895.184448,464
895.300964,472
895.417419,473
895.533936,450
895.650452,474
895.766907,472
895.883423,455
895.999878,466
896.116333,459
896.232849,465
896.349304,458
896.465759,481
896.582214,460
896.698669,474
896.815125,464
896.931641,470
897.048035,483
897.164551,476
897.280884,464
897.397339,482
897.513794,466
897.630249,468
897.746582,464
897.863098,470
897.979431,459
898.095886,480
898.212341,459
898.328674,475
898.445129,473
898.561462,475
898.677795,464
898.794312,461
898.910645,459
899.026978,454
899.143433,459
899.259766,459
899.37616,453
899.492493,474
899.608765,475
899.725159,460
899.841553,467
899.957947,457
900.07428,464
900.190552,477
900.306946,478
900.423157,462
900.53949,480
900.655884,487
900.772156,464
900.888489,473
901.004822,469
901.121033,462
901.237366,454
901.353699,469
901.46991,506
901.586304,462
901.702515,452
901.818787,484
901.93512,467
902.051331,485
902.167603,459
902.283875,484
902.400085,484
902.516418,479
902.632629,484
902.74884,489
902.865112,480
902.981384,507
903.097595,499
903.213867,493
903.330017,475
903.446289,488
903.5625,471
903.67865,473
903.794922,464
903.911072,495
904.027344,473
904.143494,475
904.259705,491
904.375916,495
904.492065,476
904.608215,487
904.724426,478
904.840576,484
904.956726,460
905.072876,474
905.189087,462
905.305176,489
905.421387,471
905.537537,484
905.653687,453
905.769775,466
905.885925,481
906.002014,499
906.118164,463
906.234314,468
906.350403,472
906.466492,485
906.582642,462
906.69873,463
906.814758,494
906.930908,456
907.046936,472
907.163086,477
907.279175,460
907.395264,463
907.511353,472
907.62738,468
907.743408,465
907.859497,475
907.975525,472
908.091553,489
908.207703,465
908.32373,475
908.439758,468
908.555786,478
908.671814,458
908.787842,489
908.90387,466
909.019775,481
909.135864,479
909.251892,484
909.367859,468
909.483826,471
909.599854,464
909.715881,477
909.831848,470
909.947815,485
910.063782,470
910.179749,482
910.295776,475
910.411743,475
910.527649,472
910.643616,465
910.759583,476
910.875488,481
910.991455,475
911.107361,474
911.223267,463
911.339294,462
911.4552,455
911.571106,474
911.687073,480
911.802979,499
911.918823,463
912.034729,463
912.150635,462
912.266602,483
912.382446,449
912.498352,476
912.614197,474
912.730103,480
912.846008,485
