792.44574,496
792.56488,525
792.68396,573
792.80304,547
792.92218,521
793.041199,485
793.160339,486
793.279419,506
793.398499,503
793.517578,470
793.636658,494
793.755737,501
793.874817,512
793.993896,503
794.112976,491
794.232056,491
794.351074,513
794.470215,489
794.589233,494
794.708313,491
794.827393,514
794.946411,488
795.065552,499
795.18457,486
795.303589,506
795.422668,499
795.541687,500
795.660767,480
795.779846,501
795.898865,509
796.017883,487
796.136963,489
796.255981,505
796.375061,468
796.49408,479
796.613037,500
796.732117,488
796.851135,471
796.970154,500
797.089233,475
797.208191,496
797.327271,496
797.446228,490
797.565186,478
797.684265,484
797.803223,480
797.922241,463
798.04126,471
798.160278,473
798.279297,473
798.398315,499
798.517273,487
798.636292,476
798.75531,483
798.874268,483
798.993286,492
799.112244,478
799.231323,480
799.350281,469
799.469238,464
799.588257,493
799.707153,469
799.826111,486
799.945129,464
800.064087,473
800.183044,477
800.302063,486
800.421021,471
800.539978,486
800.658936,468
800.777893,475
800.896912,471
801.015747,482
801.134705,481
801.253723,497
801.37262,487
801.491638,455
801.610535,477
801.729492,472
801.84845,480
801.967407,463
802.086243,484
802.205261,485
802.324158,486
802.443115,496
802.562073,485
802.680969,504
802.799927,458
802.918762,464
803.037659,482
803.156677,480
803.275574,494
803.39447,479
803.513428,457
803.632263,483
803.751221,479
803.870117,484
803.989014,467
804.107971,485
804.226746,482
804.345642,490
804.4646,478
804.583496,490
804.702393,479
804.821228,483
804.940125,476
805.059021,492
805.177917,479
805.296814,472
805.415649,497
805.534546,478
805.653442,497
805.772278,481
805.891113,487
806.01001,478
806.128906,477
806.247742,485
806.366577,482
806.485413,483
806.604309,472
806.723145,478
806.84198,480
806.960876,496
807.079712,485
807.198486,450
807.317383,464
807.436218,488
807.554993,478
807.673889,474
807.792725,485
807.91156,486
808.030396,475
808.14917,473
808.268005,468
808.386841,483
808.505676,492
808.624451,474
808.743286,491
808.862122,481
808.980896,477
809.099731,510
809.218506,471
809.337341,493
809.456116,480
809.57489,504
809.693726,484
809.8125,490
809.931274,484
810.050049,460
810.168884,490
810.287659,489
810.406372,476
810.525269,463
810.643982,474
810.762756,490
810.881531,489
811.000305,482
811.11908,489
811.237854,473
811.356567,477
811.475403,478
811.594116,490
811.71283,480
811.831604,476
811.950378,505
812.069153,466
812.187927,491
812.30658,474
812.425415,475
812.544128,467
812.662781,477
812.781616,501
812.900269,472
813.019043,477
813.137756,475
813.256531,490
813.375244,494
813.493896,469
813.612671,485
813.731384,478
813.850037,487
813.96875,488
814.087524,475
814.206238,461
814.324951,486
814.443604,472
814.562256,483
814.68103,477
814.799683,498
814.918335,484
815.037109,478
815.155762,466
815.274475,479
815.393188,466
815.511841,490
815.630554,470
815.749146,495
815.867859,467
815.986572,457
816.105164,470
816.223877,468
816.342529,477
816.461182,480
816.579895,480
816.698486,467
816.817139,461
816.935791,500
817.054504,465
817.173096,488
817.291748,467
817.4104,460
817.529053,472
817.647644,464
817.766235,466
817.884949,493
818.00354,469
818.122192,480
818.240845,471
818.359436,469
818.478088,458
818.59668,462
818.715271,474
818.833923,478
818.952515,459
819.071106,481
819.189758,460
819.30835,466
819.426941,449
819.545532,466
819.664124,446
819.782715,466
819.901306,476
820.019897,461
820.138489,458
820.25708,462
820.375671,448
820.494202,463
820.612732,471
820.731384,465
820.849915,450
820.968506,454
821.087097,460
821.205627,437
821.324158,463
821.442749,465
821.561279,452
821.679871,476
821.798401,459
821.916931,473
822.035461,469
822.154053,443
822.272583,459
822.391174,451
822.509583,442
822.628174,469
822.746704,450
822.865234,450
822.983765,465
823.102295,457
823.220825,453
823.339294,459
823.457825,449
823.576355,449
823.694824,447
823.813354,460
823.931885,451
824.050354,471
824.168884,461
824.287354,441
824.405823,447
824.524353,465
824.642822,461
824.761353,439
824.879822,445
824.998291,443
825.116699,448
825.235291,472
825.353699,436
825.472168,459
825.590637,467
825.709106,458
825.827576,448
825.946045,448
826.064453,430
826.182983,449
826.301392,456
826.4198,461
826.53833,453
826.656738,456
826.775208,447
826.893677,450
827.012024,437
827.130493,454
827.248962,437
827.36731,453
827.485779,445
827.604248,443
827.722595,456
827.841064,437
827.959412,439
828.077942,446
828.196289,452
828.314636,447
828.433105,457
828.551514,456
828.669861,452
828.78833,446
828.906677,453
829.025085,451
829.143433,436
829.261841,443
829.38031,433
829.498657,462
829.617004,436
829.735413,434
829.85376,451
829.972107,442
830.090515,460
830.208862,441
830.327209,452
830.445557,444
830.563904,451
830.682312,448
830.800659,450
830.919006,443
831.037354,442
831.155701,458
831.274048,447
831.392395,450
831.51062,454
831.629028,428
831.747314,438
831.865662,466
831.984009,445
832.102356,450
832.220642,460
832.338928,434
832.457275,457
832.575623,449
832.693909,456
832.812134,454
832.930481,441
833.048828,447
833.167114,447
833.2854,442
833.403687,444
833.521973,438
833.640259,455
833.758545,437
833.876831,421
833.995056,448
834.113281,453
834.231628,442
834.349915,425
834.468201,433
834.586426,443
834.704651,458
834.822998,424
834.941162,437
835.059448,447
835.177673,444
835.295959,456
835.414246,440
835.53241,458
835.650635,457
835.768921,436
835.887146,461
836.005371,448
836.123596,456
836.241821,436
836.360046,456
836.478271,448
836.596497,431
836.714722,448
836.832886,459
836.95105,457
837.069336,462
837.1875,460
837.305725,440
837.423889,434
837.542053,447
837.660339,447
837.778503,436
837.896667,441
838.014832,436
838.132996,448
838.25116,446
838.369385,435
838.487488,462
838.605713,436
838.723877,428
838.84198,441
838.960205,442
839.078308,427
839.196472,459
839.314636,467
839.4328,459
839.550964,442
839.669067,450
839.787231,460
839.905396,450
840.023499,459
840.141602,458
840.259766,458
840.377869,440
840.495972,460
840.614136,460
840.732239,449
840.850342,448
840.968445,440
841.086548,429
841.204651,440
841.322754,460
841.440918,447
841.55896,428
841.677002,468
841.795166,453
841.913208,457
842.031311,448
842.149353,442
842.267456,452
842.385498,458
842.503601,449
842.621643,462
842.739746,443
842.857788,438
842.97583,464
843.093933,440
843.211975,428
843.330017,447
843.44812,453
843.566101,435
843.684204,449
843.802246,446
843.920227,444
844.038269,456
844.156311,439
844.274292,443
844.392395,435
844.510376,443
844.628357,445
844.74646,455
844.864441,443
844.982422,426
845.100403,443
845.218384,456
845.336426,458
845.454468,430
845.572449,451
845.69043,443
845.808411,455
845.926453,436
846.044373,446
846.162354,430
846.280396,428
846.398315,449
846.516296,443
846.634216,439
846.752197,449
846.870178,426
846.988098,428
847.106079,453
847.22406,448
847.34198,444
847.4599,468
847.577881,438
847.695801,449
847.813782,451
847.931641,454
848.049561,450
848.167603,448
848.285461,434
848.403381,455
848.521362,451
848.639221,445
848.75708,452
848.875,461
848.99292,443
849.110901,440
849.22876,447
849.34668,451
849.464539,447
849.582458,440
849.700317,452
849.818176,447
849.936096,422
850.053955,446
850.171875,430
850.289673,452
850.407593,441
850.525452,442
850.643311,453
850.761169,443
850.878967,452
850.996887,444
851.114746,426
851.232544,470
851.350403,426
851.468262,451
851.58606,431
851.703979,446
851.821777,435
851.939636,441
852.057434,445
852.175232,476
852.293091,415
852.410889,447
852.528687,449
852.646545,456
852.764343,445
852.88208,449
852.999939,431
853.117676,452
853.235535,428
853.353271,456
853.471069,418
853.588928,453
853.706604,448
853.824402,436
853.9422,448
854.059998,446
854.177734,442
854.295532,446
854.413269,445
854.531006,448
854.648804,435
854.766541,439
854.884277,468
855.002014,465
855.119751,449
855.237549,435
855.355225,431
855.473022,457
855.590698,431
855.708435,458
855.826172,444
855.943848,460
856.061646,442
856.179321,442
856.296997,437
856.414795,443
856.53241,451
856.650085,441
856.767822,440
856.885559,443
857.003174,436
857.120911,452
857.238586,441
857.356201,434
857.473938,436
857.591614,438
857.709351,449
857.826965,447
857.944641,454
858.062317,456
858.179993,442
858.297668,471
858.415283,426
858.532959,436
858.650574,425
858.768188,461
858.885803,440
859.003479,450
859.121094,443
859.23877,451
859.356384,431
859.473999,452
859.591675,440
859.709229,438
859.826843,436
859.944458,437
860.062012,444
860.179626,442
860.297302,456
860.414856,435
860.532471,432
860.650024,445
860.767639,437
860.885193,444
861.002808,445
861.120361,442
861.237976,452
861.35553,438
861.473022,436
861.590698,456
861.708191,437
861.825745,445
861.943298,450
862.060852,453
862.178406,445
862.295959,443
862.413513,460
862.531006,425
862.64856,447
862.766113,453
862.883667,438
863.00116,444
863.118713,434
863.236206,455
863.353699,450
863.471252,433
863.588745,463
863.706177,454
863.82373,443
863.941162,442
864.058716,445
864.176208,450
864.29364,446
864.411194,447
864.528687,409
864.646118,448
864.763611,454
864.881042,454
864.998535,446
865.116028,457
865.233459,445
865.350891,444
865.468384,446
865.585754,448
865.703308,465
865.820679,450
865.938171,425
866.055542,445
866.173035,427
866.290466,432
866.407837,421
866.52533,449
866.6427,452
866.760071,452
866.877563,439
866.994934,474
867.112305,447
867.229736,442
867.347107,467
867.464539,464
867.58197,442
867.699341,457
867.81665,458
867.934082,437
868.051453,455
868.168823,453
868.286194,447
868.403564,450
868.520935,448
868.638306,453
868.755676,437
868.872986,465
868.990295,434
869.107727,426
869.225037,429
869.342346,443
869.459717,453
869.577026,446
869.694336,453
869.811707,457
869.929016,440
870.046326,437
870.163635,441
870.280945,460
870.398254,450
870.515564,458
870.632812,437
870.750183,437
870.867432,462
870.984741,438
871.102051,451
871.219299,463
871.336609,448
871.453918,445
871.571106,431
871.688416,445
871.805664,454
871.922852,441
872.040222,419
872.157471,460
872.274719,449
872.391968,449
872.509155,446
872.626465,464
872.743652,460
872.860962,456
872.978149,456
873.095337,445
873.212646,446
873.329834,446
873.44696,435
873.564209,446
873.681396,470
873.798645,468
873.915894,441
874.03302,442
874.150208,453
874.267456,442
874.384583,446
874.501831,445
874.618958,442
874.736145,458
874.853333,441
874.970459,442
875.087646,457
875.204834,456
875.32196,452
875.439148,456
875.556274,443
875.673401,461
875.790527,447
875.907715,463
876.024841,463
876.141968,452
876.259094,444
876.376282,435
876.493347,455
876.610474,451
876.7276,448
876.844727,464
876.961853,432
877.078918,461
877.195984,441
877.313171,429
877.430237,473
877.547302,453
877.664368,445
877.781433,465
877.898499,431
878.015625,429
878.13269,453
878.249695,458
878.366821,433
878.483887,448
878.600952,445
878.717957,453
878.834961,462
878.952087,441
879.069092,451
879.186157,433
879.303162,453
879.420227,458
879.537231,441
879.654236,466
879.77124,465
879.888306,442
880.005249,455
880.122314,456
880.239319,466
880.356323,468
880.473328,446
880.590271,461
880.707275,453
880.824341,460
880.941284,456
881.058228,447
881.175232,454
881.292236,456
881.40918,446
881.526123,460
881.643066,435
881.760071,443
881.877014,457
881.993958,466
882.11084,439
882.227783,444
882.344727,428
882.46167,451
882.578613,462
882.695618,453
882.812439,460
882.929382,471
883.046326,455
883.163208,464
883.280151,461
883.397034,437
883.513916,438
883.630798,458
883.747742,446
883.864563,444
883.981506,451
884.098389,458
884.21521,444
884.332153,447
884.448975,462
884.565796,464
884.682678,458
884.7995,472
884.916443,459
885.033264,462
885.150085,455
885.266968,456
885.383789,473
885.500671,459
885.617493,458
885.734314,460
885.851196,450
885.967896,462
886.084717,452
886.201599,472
886.318359,429
886.435181,458
886.552002,471
886.668762,455
886.785645,446
886.902344,436
887.019165,456
887.135925,434
887.252747,442
887.369446,468
887.486267,439
887.603027,472
887.719788,467
887.836548,450
887.953247,452
888.070068,460
888.186829,465
888.303528,475
888.420288,453
888.536987,457
888.653687,434
888.770447,462
888.887146,462
889.003967,474
889.120667,449
889.237305,443
889.354065,446
889.470703,471
889.587463,437
889.704163,449
889.820862,458
889.937561,456
890.054199,436
890.170837,464
890.287598,478
890.404236,470
890.520874,449
890.637634,452
890.754211,457
890.87085,444
890.987549,444
891.104187,463
891.220886,453
891.337463,457
891.454102,456
891.57074,468
891.687378,453
891.804077,462
891.920654,464
892.037231,459
892.15387,453
892.270447,459
892.387085,473
892.503723,454
892.6203,472
892.736877,458
892.853516,460
892.970032,450
893.08667,459
893.203186,457
893.319763,453
893.43634,461
893.552917,452
893.669556,468
893.786011,457
893.902588,462
894.019165,451
894.135681,473
894.252197,448
894.368835,478
894.485291,431
894.601868,471
894.718384,447
894.8349,448
894.951355,447
895.067932,462
895.184448,442
895.300964,468
895.417419,451
895.533936,465
895.650452,461
895.766907,472
895.883423,453
895.999878,445
896.116333,439
896.232849,469
896.349304,461
896.465759,455
896.582214,468
896.698669,455
896.815125,466
896.931641,456
897.048035,454
897.164551,454
897.280884,440
897.397339,469
897.513794,463
897.630249,460
897.746582,451
897.863098,458
897.979431,462
898.095886,472
898.212341,457
898.328674,459
898.445129,456
898.561462,455
898.677795,476
898.794312,462
898.910645,457
899.026978,475
899.143433,453
899.259766,465
899.37616,449
899.492493,460
899.608765,474
899.725159,464
899.841553,463
899.957947,489
900.07428,451
900.190552,454
900.306946,464
900.423157,470
900.53949,464
900.655884,453
900.772156,471
900.888489,458
901.004822,451
901.121033,474
901.237366,448
901.353699,445
901.46991,460
901.586304,457
901.702515,468
901.818787,459
901.93512,478
902.051331,467
902.167603,460
902.283875,451
902.400085,448
902.516418,469
902.632629,458
902.74884,471
902.865112,466
902.981384,459
903.097595,458
903.213867,479
903.330017,486
903.446289,476
903.5625,464
903.67865,465
903.794922,478
903.911072,469
904.027344,468
904.143494,466
904.259705,447
904.375916,473
904.492065,477
904.608215,457
904.724426,477
904.840576,467
904.956726,444
905.072876,464
905.189087,471
905.305176,468
905.421387,473
905.537537,466
905.653687,463
905.769775,449
905.885925,456
906.002014,451
906.118164,466
906.234314,461
906.350403,460
906.466492,459
906.582642,459
906.69873,462
906.814758,492
906.930908,473
907.046936,453
907.163086,468
907.279175,447
907.395264,478
907.511353,455
907.62738,458
907.743408,462
907.859497,472
907.975525,455
908.091553,468
908.207703,461
908.32373,477
908.439758,467
908.555786,457
908.671814,457
908.787842,465
908.90387,478
909.019775,474
909.135864,465
909.251892,481
909.367859,459
909.483826,487
909.599854,455
909.715881,474
909.831848,464
909.947815,470
910.063782,463
910.179749,485
910.295776,440
910.411743,474
910.527649,464
910.643616,471
910.759583,483
910.875488,478
910.991455,461
911.107361,465
911.223267,475
911.339294,462
911.4552,477
911.571106,474
911.687073,463
911.802979,469
911.918823,460
912.034729,475
912.150635,471
912.266602,490
912.382446,468
912.498352,468
912.614197,476
912.730103,470
912.846008,437
792.44574,494
792.56488,532
792.68396,573
792.80304,549
792.92218,493
793.041199,480
793.160339,500
793.279419,509
793.398499,492
793.517578,470
793.636658,493
793.755737,515
793.874817,518
793.993896,531
794.112976,491
794.232056,492
794.351074,500
794.470215,498
794.589233,519
794.708313,480
794.827393,497
794.946411,486
795.065552,513
795.18457,497
795.303589,496
795.422668,492
795.541687,515
795.660767,517
795.779846,499
795.898865,504
796.017883,510
796.136963,483
796.255981,500
796.375061,496
796.49408,492
796.613037,516
796.732117,487
796.851135,494
796.970154,495
797.089233,475
797.208191,489
797.327271,490
797.446228,487
797.565186,485
797.684265,475
797.803223,504
797.922241,485
798.04126,503
798.160278,481
798.279297,497
798.398315,469
798.517273,484
798.636292,490
798.75531,481
798.874268,502
798.993286,476
799.112244,481
799.231323,497
799.350281,489
799.469238,485
799.588257,464
799.707153,497
799.826111,484
799.945129,493
800.064087,499
800.183044,488
800.302063,484
800.421021,491
800.539978,487
800.658936,471
800.777893,474
800.896912,473
801.015747,477
801.134705,494
801.253723,481
801.37262,474
801.491638,492
801.610535,469
801.729492,467
801.84845,481
801.967407,478
802.086243,482
802.205261,488
802.324158,492
802.443115,465
802.562073,472
802.680969,486
802.799927,486
802.918762,481
803.037659,477
803.156677,482
803.275574,474
803.39447,494
803.513428,488
803.632263,477
803.751221,478
803.870117,481
803.989014,475
804.107971,471
804.226746,480
804.345642,477
804.4646,482
804.583496,482
804.702393,482
804.821228,478
804.940125,491
805.059021,464
805.177917,492
805.296814,476
805.415649,480
805.534546,480
805.653442,464
805.772278,491
805.891113,482
806.01001,484
806.128906,466
806.247742,469
806.366577,472
806.485413,488
806.604309,481
806.723145,488
806.84198,469
806.960876,477
807.079712,475
807.198486,482
807.317383,480
807.436218,479
807.554993,503
807.673889,481
807.792725,483
807.91156,474
808.030396,485
808.14917,481
808.268005,483
808.386841,478
808.505676,476
808.624451,506
808.743286,485
808.862122,488
808.980896,494
809.099731,482
809.218506,475
809.337341,489
809.456116,485
809.57489,487
809.693726,476
809.8125,479
809.931274,476
810.050049,499
810.168884,477
810.287659,477
810.406372,485
810.525269,492
810.643982,492
810.762756,478
810.881531,485
811.000305,485
811.11908,490
811.237854,462
811.356567,490
811.475403,479
811.594116,486
811.71283,475
811.831604,497
811.950378,467
812.069153,501
812.187927,473
812.30658,498
812.425415,475
812.544128,476
812.662781,470
812.781616,475
812.900269,489
813.019043,473
813.137756,469
813.256531,484
813.375244,481
813.493896,492
813.612671,482
813.731384,475
813.850037,502
813.96875,477
814.087524,483
814.206238,490
814.324951,477
814.443604,483
814.562256,471
814.68103,480
814.799683,499
814.918335,481
815.037109,468
815.155762,481
815.274475,509
815.393188,484
815.511841,487
815.630554,451
815.749146,484
815.867859,475
815.986572,481
816.105164,481
816.223877,467
816.342529,470
816.461182,477
816.579895,474
816.698486,471
816.817139,471
816.935791,500
817.054504,471
817.173096,497
817.291748,465
817.4104,469
817.529053,458
817.647644,496
817.766235,466
817.884949,475
818.00354,453
818.122192,472
818.240845,440
818.359436,473
818.478088,474
818.59668,456
818.715271,467
818.833923,465
818.952515,476
819.071106,472
819.189758,478
819.30835,455
819.426941,462
819.545532,453
819.664124,466
819.782715,462
819.901306,452
820.019897,463
820.138489,469
820.25708,439
820.375671,462
820.494202,450
820.612732,466
820.731384,461
820.849915,459
820.968506,480
821.087097,457
821.205627,462
821.324158,469
821.442749,451
821.561279,450
821.679871,462
821.798401,474
821.916931,455
822.035461,468
822.154053,463
822.272583,443
822.391174,455
822.509583,446
822.628174,464
822.746704,451
822.865234,432
822.983765,468
823.102295,449
823.220825,461
823.339294,482
823.457825,453
823.576355,437
823.694824,452
823.813354,447
823.931885,440
824.050354,490
824.168884,459
824.287354,439
824.405823,451
824.524353,465
824.642822,458
824.761353,468
824.879822,443
824.998291,462
825.116699,463
825.235291,447
825.353699,451
825.472168,445
825.590637,451
825.709106,472
825.827576,476
825.946045,470
826.064453,455
826.182983,472
826.301392,460
826.4198,458
826.53833,448
826.656738,473
826.775208,469
826.893677,466
827.012024,455
827.130493,429
827.248962,437
827.36731,453
827.485779,459
827.604248,449
827.722595,453
827.841064,453
827.959412,444
828.077942,472
828.196289,448
828.314636,470
828.433105,457
828.551514,465
828.669861,471
828.78833,454
828.906677,435
829.025085,459
829.143433,472
829.261841,448
829.38031,454
829.498657,434
829.617004,448
829.735413,445
829.85376,437
829.972107,426
830.090515,471
830.208862,442
830.327209,449
830.445557,453
830.563904,455
830.682312,466
830.800659,441
830.919006,454
831.037354,449
831.155701,464
831.274048,443
831.392395,452
831.51062,434
831.629028,455
831.747314,455
831.865662,460
831.984009,445
832.102356,436
832.220642,448
832.338928,456
832.457275,447
832.575623,459
832.693909,426
832.812134,446
832.930481,478
833.048828,434
833.167114,467
833.2854,452
833.403687,467
833.521973,447
833.640259,464
833.758545,434
833.876831,457
833.995056,445
834.113281,438
834.231628,440
834.349915,458
834.468201,434
834.586426,443
834.704651,445
834.822998,451
834.941162,441
835.059448,442
835.177673,443
835.295959,458
835.414246,438
835.53241,446
835.650635,429
835.768921,431
835.887146,443
836.005371,456
836.123596,450
836.241821,459
836.360046,450
836.478271,432
836.596497,445
836.714722,461
836.832886,445
836.95105,448
837.069336,455
837.1875,461
837.305725,479
837.423889,448
837.542053,445
837.660339,466
837.778503,440
837.896667,444
838.014832,455
838.132996,435
838.25116,441
838.369385,466
838.487488,465
838.605713,448
838.723877,436
838.84198,452
838.960205,474
839.078308,449
839.196472,432
839.314636,462
839.4328,447
839.550964,448
839.669067,442
839.787231,448
839.905396,458
840.023499,443
840.141602,455
840.259766,450
840.377869,455
840.495972,458
840.614136,446
840.732239,444
840.850342,449
840.968445,449
841.086548,449
841.204651,449
841.322754,453
841.440918,434
841.55896,455
841.677002,452
841.795166,457
841.913208,458
842.031311,456
842.149353,435
842.267456,458
842.385498,456
842.503601,439
842.621643,467
842.739746,460
842.857788,447
842.97583,453
843.093933,448
843.211975,456
843.330017,459
843.44812,451
843.566101,451
843.684204,449
843.802246,452
843.920227,450
844.038269,435
844.156311,453
844.274292,448
844.392395,447
844.510376,448
844.628357,434
844.74646,449
844.864441,454
844.982422,446
845.100403,439
845.218384,453
845.336426,445
845.454468,435
845.572449,456
845.69043,456
845.808411,442
845.926453,462
846.044373,430
846.162354,466
846.280396,449
846.398315,441
846.516296,440
846.634216,449
846.752197,459
846.870178,439
846.988098,471
847.106079,449
847.22406,449
847.34198,433
847.4599,440
847.577881,456
847.695801,447
847.813782,450
847.931641,445
848.049561,460
848.167603,428
848.285461,439
848.403381,439
848.521362,444
848.639221,439
848.75708,447
848.875,440
848.99292,428
849.110901,458
849.22876,436
849.34668,452
849.464539,454
849.582458,445
849.700317,451
849.818176,470
849.936096,464
850.053955,441
850.171875,465
850.289673,451
850.407593,449
850.525452,452
850.643311,453
850.761169,438
850.878967,432
850.996887,440
851.114746,451
851.232544,459
851.350403,444
851.468262,444
851.58606,455
851.703979,468
851.821777,449
851.939636,439
852.057434,432
852.175232,438
852.293091,452
852.410889,446
852.528687,477
852.646545,468
852.764343,449
852.88208,463
852.999939,449
853.117676,446
853.235535,439
853.353271,453
853.471069,442
853.588928,439
853.706604,455
853.824402,452
853.9422,443
854.059998,438
854.177734,468
854.295532,436
854.413269,451
854.531006,434
854.648804,462
854.766541,456
854.884277,454
855.002014,455
855.119751,447
855.237549,445
855.355225,426
855.473022,433
855.590698,438
855.708435,451
855.826172,451
855.943848,450
856.061646,446
856.179321,445
856.296997,450
856.414795,433
856.53241,443
856.650085,457
856.767822,453
856.885559,452
857.003174,450
857.120911,433
857.238586,454
857.356201,455
857.473938,452
857.591614,449
857.709351,433
857.826965,445
857.944641,448
858.062317,442
858.179993,455
858.297668,438
858.415283,453
858.532959,441
858.650574,442
858.768188,448
858.885803,457
859.003479,440
859.121094,440
859.23877,432
859.356384,459
859.473999,459
859.591675,458
859.709229,448
859.826843,444
859.944458,445
860.062012,449
860.179626,461
860.297302,441
860.414856,453
860.532471,445
860.650024,452
860.767639,439
860.885193,446
861.002808,442
861.120361,430
861.237976,450
861.35553,446
861.473022,452
861.590698,451
861.708191,441
861.825745,448
861.943298,450
862.060852,452
862.178406,463
862.295959,435
862.413513,448
862.531006,466
862.64856,459
862.766113,446
862.883667,441
863.00116,427
863.118713,448
863.236206,439
863.353699,441
863.471252,462
863.588745,442
863.706177,455
863.82373,446
863.941162,455
864.058716,443
864.176208,445
864.29364,456
864.411194,458
864.528687,443
864.646118,445
864.763611,451
864.881042,455
864.998535,473
865.116028,457
865.233459,461
865.350891,446
865.468384,456
865.585754,437
865.703308,457
865.820679,451
865.938171,433
866.055542,441
866.173035,435
866.290466,441
866.407837,460
866.52533,448
866.6427,447
866.760071,455
866.877563,465
866.994934,443
867.112305,454
867.229736,458
867.347107,453
867.464539,445
867.58197,438
867.699341,444
867.81665,466
867.934082,468
868.051453,457
868.168823,474
868.286194,454
868.403564,449
868.520935,463
868.638306,456
868.755676,457
868.872986,453
868.990295,470
869.107727,452
869.225037,433
869.342346,458
869.459717,465
869.577026,463
869.694336,445
869.811707,465
869.929016,441
870.046326,442
870.163635,459
870.280945,436
870.398254,431
870.515564,436
870.632812,453
870.750183,465
870.867432,449
870.984741,435
871.102051,445
871.219299,451
871.336609,460
871.453918,458
871.571106,460
871.688416,460
871.805664,455
871.922852,449
872.040222,458
872.157471,453
872.274719,443
872.391968,442
872.509155,440
872.626465,445
872.743652,436
872.860962,467
872.978149,460
873.095337,457
873.212646,470
873.329834,443
873.44696,445
873.564209,469
873.681396,452
873.798645,475
873.915894,451
874.03302,440
874.150208,447
874.267456,456
874.384583,449
874.501831,450
874.618958,465
874.736145,460
874.853333,439
874.970459,447
875.087646,444
875.204834,455
875.32196,453
875.439148,451
875.556274,442
875.673401,444
875.790527,446
875.907715,432
876.024841,454
876.141968,441
876.259094,453
876.376282,452
876.493347,462
876.610474,455
876.7276,441
876.844727,451
876.961853,465
877.078918,447
877.195984,467
877.313171,465
877.430237,466
877.547302,450
877.664368,457
877.781433,457
877.898499,455
878.015625,445
878.13269,456
878.249695,442
878.366821,454
878.483887,434
878.600952,450
878.717957,441
878.834961,456
878.952087,449
879.069092,445
879.186157,452
879.303162,454
879.420227,474
879.537231,468
879.654236,452
879.77124,443
879.888306,476
880.005249,451
880.122314,466
880.239319,446
880.356323,445
880.473328,456
880.590271,460
880.707275,454
880.824341,463
880.941284,454
881.058228,464
881.175232,450
881.292236,439
881.40918,440
881.526123,426
881.643066,458
881.760071,463
881.877014,443
881.993958,442
882.11084,476
882.227783,444
882.344727,435
882.46167,445
882.578613,464
882.695618,446
882.812439,468
882.929382,452
883.046326,454
883.163208,455
883.280151,452
883.397034,439
883.513916,458
883.630798,464
883.747742,471
883.864563,436
883.981506,454
884.098389,460
884.21521,473
884.332153,461
884.448975,445
884.565796,457
884.682678,459
884.7995,452
884.916443,448
885.033264,453
885.150085,453
885.266968,463
885.383789,482
885.500671,462
885.617493,457
885.734314,454
885.851196,475
885.967896,459
886.084717,462
886.201599,459
886.318359,461
886.435181,473
886.552002,436
886.668762,459
886.785645,473
886.902344,457
887.019165,475
887.135925,453
887.252747,450
887.369446,442
887.486267,475
887.603027,459
887.719788,467
887.836548,433
887.953247,446
888.070068,462
888.186829,475
888.303528,461
888.420288,476
888.536987,452
888.653687,450
888.770447,449
888.887146,458
889.003967,464
889.120667,475
889.237305,444
889.354065,463
889.470703,469
889.587463,456
889.704163,460
889.820862,460
889.937561,453
890.054199,462
890.170837,447
890.287598,457
890.404236,473
890.520874,465
890.637634,457
890.754211,464
890.87085,462
890.987549,465
891.104187,479
891.220886,468
891.337463,450
891.454102,458
891.57074,456
891.687378,468
891.804077,444
891.920654,441
892.037231,442
892.15387,475
892.270447,458
892.387085,458
892.503723,463
892.6203,447
892.736877,460
892.853516,486
892.970032,454
893.08667,471
893.203186,457
893.319763,451
893.43634,470
893.552917,479
893.669556,457
893.786011,461
893.902588,452
894.019165,445
894.135681,457
894.252197,465
894.368835,451
894.485291,454
894.601868,473
894.718384,451
894.8349,464
894.951355,447
895.067932,445
895.184448,456
895.300964,484
895.417419,453
895.533936,481
895.650452,461
895.766907,472
895.883423,458
895.999878,470
896.116333,463
896.232849,450
896.349304,466
896.465759,472
896.582214,444
896.698669,455
896.815125,483
896.931641,463
897.048035,467
897.164551,456
897.280884,469
897.397339,452
897.513794,477
897.630249,469
897.746582,469
897.863098,467
897.979431,468
898.095886,447
898.212341,457
898.328674,455
898.445129,476
898.561462,475
898.677795,477
898.794312,445
898.910645,464
899.026978,456
899.143433,463
899.259766,453
899.37616,479
899.492493,466
899.608765,458
899.725159,468
899.841553,476
899.957947,475
900.07428,480
900.190552,449
900.306946,453
900.423157,473
900.53949,473
900.655884,474
900.772156,469
900.888489,455
901.004822,479
901.121033,466
901.237366,469
901.353699,469
901.46991,467
901.586304,479
901.702515,476
901.818787,461
901.93512,454
902.051331,482
902.167603,481
902.283875,460
902.400085,479
902.516418,469
902.632629,461
902.74884,461
902.865112,475
902.981384,476
903.097595,473
903.213867,466
903.330017,466
903.446289,465
903.5625,460
903.67865,445
903.794922,465
903.911072,478
904.027344,475
904.143494,466
904.259705,476
904.375916,461
904.492065,460
904.608215,467
904.724426,474
904.840576,460
904.956726,452
905.072876,458
905.189087,481
905.305176,474
905.421387,462
905.537537,452
905.653687,486
905.769775,463
905.885925,456
906.002014,484
906.118164,464
906.234314,444
906.350403,469
906.466492,466
906.582642,461
906.69873,444
906.814758,454
906.930908,454
907.046936,479
907.163086,460
907.279175,471
907.395264,470
907.511353,476
907.62738,472
907.743408,454
907.859497,468
907.975525,467
908.091553,460
908.207703,460
908.32373,459
908.439758,465
908.555786,466
908.671814,470
908.787842,477
908.90387,447
909.019775,469
909.135864,468
909.251892,485
909.367859,464
909.483826,452
909.599854,487
909.715881,455
909.831848,469
909.947815,477
910.063782,495
910.179749,455
910.295776,475
910.411743,471
910.527649,466
910.643616,476
910.759583,468
910.875488,467
910.991455,477
911.107361,464
911.223267,485
911.339294,467
911.4552,471
911.571106,474
911.687073,481
911.802979,483
911.918823,491
912.034729,457
912.150635,485
912.266602,462
912.382446,476
912.498352,463
912.614197,481
912.730103,453
912.846008,466
792.44574,494
792.56488,530
792.68396,561
792.80304,535
792.92218,516
793.041199,490
793.160339,501
793.279419,503
793.398499,505
793.517578,492
793.636658,498
793.755737,512
793.874817,517
793.993896,490
794.112976,497
794.232056,482
794.351074,518
794.470215,509
794.589233,509
794.708313,486
794.827393,485
794.946411,495
795.065552,516
795.18457,499
795.303589,505
795.422668,501
795.541687,465
795.660767,496
795.779846,504
795.898865,474
796.017883,510
796.136963,481
796.255981,491
796.375061,488
796.49408,478
796.613037,498
796.732117,489
796.851135,484
796.970154,502
797.089233,479
797.208191,481
797.327271,497
797.446228,489
797.565186,462
797.684265,464
797.803223,500
797.922241,499
798.04126,486
798.160278,480
798.279297,481
798.398315,486
798.517273,491
798.636292,480
798.75531,487
798.874268,487
798.993286,475
799.112244,513
799.231323,494
799.350281,490
799.469238,481
799.588257,489
799.707153,476
799.826111,500
799.945129,482
800.064087,480
800.183044,483
800.302063,492
800.421021,496
800.539978,489
800.658936,488
800.777893,494
800.896912,478
801.015747,481
801.134705,471
801.253723,484
801.37262,496
801.491638,490
801.610535,480
801.729492,505
801.84845,482
801.967407,485
802.086243,487
802.205261,494
802.324158,464
802.443115,501
802.562073,469
802.680969,496
802.799927,483
802.918762,489
803.037659,484
803.156677,500
803.275574,476
803.39447,478
803.513428,488
803.632263,489
803.751221,483
803.870117,482
803.989014,462
804.107971,502
804.226746,500
804.345642,507
804.4646,476
804.583496,489
804.702393,495
804.821228,489
804.940125,469
805.059021,476
805.177917,488
805.296814,485
805.415649,483
805.534546,479
805.653442,493
805.772278,470
805.891113,480
806.01001,504
806.128906,492
806.247742,500
806.366577,477
806.485413,498
806.604309,483
806.723145,486
806.84198,473
806.960876,505
807.079712,478
807.198486,481
807.317383,479
807.436218,476
807.554993,491
807.673889,509
807.792725,487
807.91156,482
808.030396,477
808.14917,480
808.268005,479
808.386841,493
808.505676,488
808.624451,494
808.743286,492
808.862122,471
808.980896,478
809.099731,466
809.218506,503
809.337341,480
809.456116,495
809.57489,480
809.693726,478
809.8125,474
809.931274,460
810.050049,487
810.168884,472
810.287659,503
810.406372,472
810.525269,470
810.643982,492
810.762756,501
810.881531,500
811.000305,480
811.11908,476
811.237854,490
811.356567,483
811.475403,487
811.594116,486
811.71283,477
811.831604,473
811.950378,492
812.069153,456
812.187927,489
812.30658,465
812.425415,476
812.544128,495
812.662781,472
812.781616,487
812.900269,464
813.019043,481
813.137756,466
813.256531,469
813.375244,485
813.493896,448
813.612671,505
813.731384,474
813.850037,480
813.96875,480
814.087524,481
814.206238,480
814.324951,494
814.443604,486
814.562256,471
814.68103,489
814.799683,481
814.918335,470
815.037109,480
815.155762,472
815.274475,470
815.393188,481
815.511841,479
815.630554,479
815.749146,469
815.867859,477
815.986572,511
816.105164,473
816.223877,493
816.342529,476
816.461182,473
816.579895,488
816.698486,474
816.817139,484
816.935791,498
817.054504,469
817.173096,479
817.291748,480
817.4104,456
817.529053,469
817.647644,490
817.766235,459
817.884949,491
818.00354,464
818.122192,469
818.240845,467
818.359436,469
818.478088,449
818.59668,486
818.715271,468
818.833923,470
818.952515,453
819.071106,450
819.189758,453
819.30835,475
819.426941,456
819.545532,456
819.664124,473
819.782715,470
819.901306,472
820.019897,460
820.138489,471
820.25708,450
820.375671,461
820.494202,475
820.612732,457
820.731384,436
820.849915,466
820.968506,448
821.087097,461
821.205627,443
821.324158,466
821.442749,457
821.561279,476
821.679871,470
821.798401,447
821.916931,464
822.035461,463
822.154053,460
822.272583,436
822.391174,451
822.509583,447
822.628174,453
822.746704,447
822.865234,454
822.983765,459
823.102295,459
823.220825,460
823.339294,444
823.457825,445
823.576355,455
823.694824,443
823.813354,466
823.931885,449
824.050354,472
824.168884,448
824.287354,459
824.405823,458
824.524353,456
824.642822,451
824.761353,467
824.879822,475
824.998291,460
825.116699,444
825.235291,477
825.353699,461
825.472168,451
825.590637,437
825.709106,457
825.827576,443
825.946045,451
826.064453,452
826.182983,455
826.301392,439
826.4198,452
826.53833,470
826.656738,455
826.775208,439
826.893677,471
827.012024,447
827.130493,441
827.248962,445
827.36731,437
827.485779,459
827.604248,441
827.722595,442
827.841064,454
827.959412,455
828.077942,451
828.196289,452
828.314636,457
828.433105,474
828.551514,445
828.669861,455
828.78833,460
828.906677,458
829.025085,472
829.143433,465
829.261841,459
829.38031,463
829.498657,470
829.617004,465
829.735413,442
829.85376,446
829.972107,461
830.090515,464
830.208862,438
830.327209,453
830.445557,457
830.563904,444
830.682312,464
830.800659,462
830.919006,461
831.037354,432
831.155701,459
831.274048,455
831.392395,459
831.51062,453
831.629028,449
831.747314,463
831.865662,454
831.984009,443
832.102356,454
832.220642,470
832.338928,457
832.457275,445
832.575623,454
832.693909,435
832.812134,457
832.930481,443
833.048828,453
833.167114,439
833.2854,464
833.403687,440
833.521973,448
833.640259,449
833.758545,431
833.876831,453
833.995056,473
834.113281,436
834.231628,454
834.349915,469
834.468201,461
834.586426,465
834.704651,456
834.822998,454
834.941162,457
835.059448,453
835.177673,463
835.295959,454
835.414246,420
835.53241,444
835.650635,440
835.768921,438
835.887146,453
836.005371,431
836.123596,437
836.241821,462
836.360046,451
836.478271,458
836.596497,440
836.714722,454
836.832886,456
836.95105,459
837.069336,437
837.1875,455
837.305725,459
837.423889,468
837.542053,450
837.660339,444
837.778503,452
837.896667,465
838.014832,465
838.132996,460
838.25116,449
838.369385,447
838.487488,461
838.605713,433
838.723877,453
838.84198,441
838.960205,445
839.078308,454
839.196472,445
839.314636,452
839.4328,443
839.550964,457
839.669067,446
839.787231,448
839.905396,465
840.023499,443
840.141602,453
840.259766,455
840.377869,443
840.495972,457
840.614136,449
840.732239,450
840.850342,458
840.968445,435
841.086548,451
841.204651,459
841.322754,431
841.440918,460
841.55896,444
841.677002,437
841.795166,468
841.913208,450
842.031311,465
842.149353,440
842.267456,439
842.385498,449
842.503601,450
842.621643,444
842.739746,442
842.857788,447
842.97583,447
843.093933,464
843.211975,465
843.330017,436
843.44812,413
843.566101,448
843.684204,446
843.802246,438
843.920227,444
844.038269,460
844.156311,457
844.274292,453
844.392395,446
844.510376,427
844.628357,427
844.74646,447
844.864441,457
844.982422,455
845.100403,452
845.218384,448
845.336426,449
845.454468,456
845.572449,455
845.69043,454
845.808411,431
845.926453,426
846.044373,423
846.162354,444
846.280396,446
846.398315,447
846.516296,461
846.634216,455
846.752197,443
846.870178,454
846.988098,453
847.106079,441
847.22406,452
847.34198,439
847.4599,458
847.577881,448
847.695801,431
847.813782,450
847.931641,469
848.049561,446
848.167603,447
848.285461,451
848.403381,452
848.521362,445
848.639221,441
848.75708,454
848.875,437
848.99292,437
849.110901,445
849.22876,459
849.34668,444
849.464539,432
849.582458,437
849.700317,459
849.818176,436
849.936096,451
850.053955,449
850.171875,438
850.289673,447
850.407593,451
850.525452,458
850.643311,458
850.761169,443
850.878967,446
850.996887,467
851.114746,445
851.232544,425
851.350403,452
851.468262,440
851.58606,460
851.703979,457
851.821777,438
851.939636,441
852.057434,450
852.175232,431
852.293091,445
852.410889,457
852.528687,451
852.646545,464
852.764343,447
852.88208,456
852.999939,451
853.117676,443
853.235535,448
853.353271,451
853.471069,455
853.588928,451
853.706604,432
853.824402,462
853.9422,442
854.059998,447
854.177734,444
854.295532,472
854.413269,435
854.531006,445
854.648804,448
854.766541,448
854.884277,466
855.002014,457
855.119751,430
855.237549,478
855.355225,460
855.473022,455
855.590698,457
855.708435,465
855.826172,457
855.943848,463
856.061646,431
856.179321,479
856.296997,446
856.414795,445
856.53241,449
856.650085,452
856.767822,446
856.885559,452
857.003174,428
857.120911,471
857.238586,445
857.356201,460
857.473938,445
857.591614,444
857.709351,443
857.826965,454
857.944641,435
858.062317,438
858.179993,459
858.297668,459
858.415283,452
858.532959,446
858.650574,442
858.768188,463
858.885803,437
859.003479,449
859.121094,429
859.23877,460
859.356384,446
859.473999,473
859.591675,460
859.709229,451
859.826843,443
859.944458,461
860.062012,458
860.179626,436
860.297302,441
860.414856,462
860.532471,449
860.650024,472
860.767639,446
860.885193,446
861.002808,456
861.120361,445
861.237976,451
861.35553,439
861.473022,439
861.590698,440
861.708191,448
861.825745,427
861.943298,446
862.060852,451
862.178406,444
862.295959,441
862.413513,447
862.531006,472
862.64856,451
862.766113,446
862.883667,453
863.00116,447
863.118713,437
863.236206,451
863.353699,444
863.471252,469
863.588745,444
863.706177,454
863.82373,443
863.941162,458
864.058716,442
864.176208,465
864.29364,457
864.411194,453
864.528687,439
864.646118,461
864.763611,455
864.881042,449
864.998535,454
865.116028,460
865.233459,464
865.350891,435
865.468384,459
865.585754,468
865.703308,470
865.820679,453
865.938171,452
866.055542,443
866.173035,454
866.290466,459
866.407837,466
866.52533,445
866.6427,454
866.760071,475
866.877563,451
866.994934,449
867.112305,454
867.229736,462
867.347107,461
867.464539,447
867.58197,452
867.699341,450
867.81665,447
867.934082,453
868.051453,449
868.168823,439
868.286194,465
868.403564,463
868.520935,454
868.638306,446
868.755676,467
868.872986,446
868.990295,465
869.107727,451
869.225037,459
869.342346,438
869.459717,440
869.577026,457
869.694336,438
869.811707,447
869.929016,467
870.046326,446
870.163635,465
870.280945,443
870.398254,444
870.515564,439
870.632812,443
870.750183,441
870.867432,464
870.984741,438
871.102051,472
871.219299,466
871.336609,444
871.453918,467
871.571106,437
871.688416,456
871.805664,443
871.922852,455
872.040222,456
872.157471,456
872.274719,443
872.391968,466
872.509155,453
872.626465,458
872.743652,450
872.860962,451
872.978149,427
873.095337,459
873.212646,456
873.329834,446
873.44696,455
873.564209,455
873.681396,458
873.798645,454
873.915894,434
874.03302,457
874.150208,455
874.267456,455
874.384583,450
874.501831,461
874.618958,457
874.736145,448
874.853333,443
874.970459,438
875.087646,456
875.204834,458
875.32196,450
875.439148,445
875.556274,456
875.673401,454
875.790527,440
875.907715,463
876.024841,447
876.141968,455
876.259094,469
876.376282,459
876.493347,443
876.610474,451
876.7276,437
876.844727,442
876.961853,437
877.078918,475
877.195984,443
877.313171,442
877.430237,469
877.547302,472
877.664368,465
877.781433,460
877.898499,459
878.015625,450
878.13269,472
878.249695,465
878.366821,445
878.483887,450
878.600952,431
878.717957,461
878.834961,452
878.952087,463
879.069092,444
879.186157,468
879.303162,456
879.420227,459
879.537231,455
879.654236,446
879.77124,452
879.888306,455
880.005249,458
880.122314,457
880.239319,439
880.356323,467
880.473328,473
880.590271,455
880.707275,451
880.824341,450
880.941284,447
881.058228,465
881.175232,465
881.292236,467
881.40918,463
881.526123,467
881.643066,470
881.760071,462
881.877014,454
881.993958,448
882.11084,456
882.227783,456
882.344727,449
882.46167,453
882.578613,446
882.695618,450
882.812439,457
882.929382,482
883.046326,456
883.163208,455
883.280151,436
883.397034,464
883.513916,434
883.630798,460
883.747742,445
883.864563,480
883.981506,472
884.098389,476
884.21521,452
884.332153,471
884.448975,461
884.565796,468
884.682678,472
884.7995,454
884.916443,444
885.033264,446
885.150085,460
885.266968,452
885.383789,444
885.500671,458
885.617493,454
885.734314,464
885.851196,446
885.967896,436
886.084717,446
886.201599,447
886.318359,430
886.435181,453
886.552002,466
886.668762,443
886.785645,454
886.902344,461
887.019165,463
887.135925,450
887.252747,461
887.369446,453
887.486267,447
887.603027,472
887.719788,447
887.836548,446
887.953247,480
888.070068,455
888.186829,442
888.303528,459
888.420288,437
888.536987,465
888.653687,473
888.770447,467
888.887146,444
889.003967,451
889.120667,454
889.237305,451
889.354065,463
889.470703,466
889.587463,457
889.704163,465
889.820862,453
889.937561,466
890.054199,444
890.170837,461
890.287598,470
890.404236,473
890.520874,464
890.637634,470
890.754211,464
890.87085,463
890.987549,452
891.104187,447
891.220886,462
891.337463,479
891.454102,463
891.57074,467
891.687378,472
891.804077,465
891.920654,462
892.037231,465
892.15387,463
892.270447,449
892.387085,423
892.503723,475
892.6203,447
892.736877,463
892.853516,463
892.970032,461
893.08667,479
893.203186,459
893.319763,473
893.43634,473
893.552917,459
893.669556,462
893.786011,459
893.902588,464
894.019165,460
894.135681,467
894.252197,458
894.368835,471
894.485291,480
894.601868,450
894.718384,460
894.8349,463
894.951355,471
895.067932,458
895.184448,448
895.300964,467
895.417419,456
895.533936,480
895.650452,450
895.766907,469
895.883423,459
895.999878,489
896.116333,455
896.232849,444
896.349304,463
896.465759,475
896.582214,445
896.698669,451
896.815125,470
896.931641,484
897.048035,437
897.164551,470
897.280884,447
897.397339,490
897.513794,464
897.630249,461
897.746582,451
897.863098,463
897.979431,451
898.095886,472
898.212341,463
898.328674,474
898.445129,454
898.561462,480
898.677795,466
898.794312,472
898.910645,462
899.026978,471
899.143433,462
899.259766,457
899.37616,477
899.492493,466
899.608765,460
899.725159,477
899.841553,452
899.957947,457
900.07428,469
900.190552,468
900.306946,468
900.423157,465
900.53949,462
900.655884,464
900.772156,463
900.888489,471
901.004822,476
901.121033,460
901.237366,459
901.353699,465
901.46991,476
901.586304,468
901.702515,447
901.818787,483
901.93512,447
902.051331,462
902.167603,472
902.283875,453
902.400085,471
902.516418,482
902.632629,446
902.74884,469
902.865112,465
902.981384,470
903.097595,462
903.213867,487
903.330017,477
903.446289,470
903.5625,462
903.67865,453
903.794922,465
903.911072,473
904.027344,472
904.143494,466
904.259705,456
904.375916,475
904.492065,455
904.608215,474
904.724426,457
904.840576,472
904.956726,466
905.072876,463
905.189087,474
905.305176,485
905.421387,470
905.537537,477
905.653687,474
905.769775,465
905.885925,457
906.002014,480
906.118164,463
906.234314,463
906.350403,459
906.466492,482
906.582642,475
906.69873,475
906.814758,463
906.930908,478
907.046936,460
907.163086,481
907.279175,465
907.395264,467
907.511353,482
907.62738,482
907.743408,459
907.859497,471
907.975525,467
908.091553,464
908.207703,476
908.32373,476
908.439758,475
908.555786,472
908.671814,458
908.787842,478
908.90387,449
909.019775,479
909.135864,469
909.251892,484
909.367859,474
909.483826,491
909.599854,456
909.715881,486
909.831848,481
909.947815,479
910.063782,490
910.179749,492
910.295776,468
910.411743,467
910.527649,484
910.643616,469
910.759583,476
910.875488,469
910.991455,494
911.107361,471
911.223267,447
911.339294,494
911.4552,484
911.571106,472
911.687073,468
911.802979,475
911.918823,487
912.034729,477
912.150635,454
912.266602,463
912.382446,473
912.498352,470
912.614197,454
912.730103,472
912.846008,470
