792.44574,644
792.56488,680
792.68396,692
792.80304,660
792.92218,620
793.041199,588
793.160339,612
793.279419,624
793.398499,600
793.517578,568
793.636658,553
793.755737,587
793.874817,601
793.993896,587
794.112976,573
794.232056,565
794.351074,552
794.470215,548
794.589233,558
794.708313,540
794.827393,554
794.946411,537
795.065552,567
795.18457,539
795.303589,567
795.422668,556
795.541687,535
795.660767,562
795.779846,532
795.898865,525
796.017883,532
796.136963,557
796.255981,536
796.375061,526
796.49408,529
796.613037,527
796.732117,510
796.851135,517
796.970154,522
797.089233,510
797.208191,519
797.327271,535
797.446228,539
797.565186,520
797.684265,534
797.803223,514
797.922241,516
798.04126,537
798.160278,520
798.279297,502
798.398315,494
798.517273,520
798.636292,506
798.75531,486
798.874268,503
798.993286,501
799.112244,514
799.231323,517
799.350281,504
799.469238,505
799.588257,525
799.707153,516
799.826111,499
799.945129,513
800.064087,518
800.183044,507
800.302063,530
800.421021,514
800.539978,513
800.658936,507
800.777893,518
800.896912,499
801.015747,509
801.134705,495
801.253723,488
801.37262,513
801.491638,516
801.610535,504
801.729492,507
801.84845,496
801.967407,500
802.086243,511
802.205261,491
802.324158,520
802.443115,495
802.562073,516
802.680969,501
802.799927,493
802.918762,521
803.037659,491
803.156677,511
803.275574,509
803.39447,502
803.513428,498
803.632263,492
803.751221,497
803.870117,506
803.989014,494
804.107971,506
804.226746,477
804.345642,504
804.4646,511
804.583496,505
804.702393,507
804.821228,498
804.940125,509
805.059021,489
805.177917,508
805.296814,494
805.415649,490
805.534546,507
805.653442,478
805.772278,493
805.891113,508
806.01001,507
806.128906,490
806.247742,504
806.366577,493
806.485413,496
806.604309,496
806.723145,484
806.84198,498
806.960876,511
807.079712,480
807.198486,502
807.317383,503
807.436218,492
807.554993,499
807.673889,500
807.792725,483
807.91156,501
808.030396,491
808.14917,482
808.268005,487
808.386841,493
808.505676,478
808.624451,493
808.743286,489
808.862122,511
808.980896,477
809.099731,489
809.218506,468
809.337341,500
809.456116,494
809.57489,489
809.693726,483
809.8125,502
809.931274,494
810.050049,503
810.168884,493
810.287659,498
810.406372,498
810.525269,485
810.643982,478
810.762756,483
810.881531,489
811.000305,489
811.11908,480
811.237854,494
811.356567,504
811.475403,492
811.594116,499
811.71283,501
811.831604,493
811.950378,505
812.069153,496
812.187927,487
812.30658,507
812.425415,491
812.544128,491
812.662781,493
812.781616,473
812.900269,503
813.019043,469
813.137756,502
813.256531,480
813.375244,505
813.493896,492
813.612671,505
813.731384,474
813.850037,487
813.96875,506
814.087524,492
814.206238,475
814.324951,473
814.443604,489
814.562256,485
814.68103,485
814.799683,487
814.918335,485
815.037109,503
815.155762,472
815.274475,485
815.393188,493
815.511841,494
815.630554,486
815.749146,489
815.867859,475
815.986572,475
816.105164,475
816.223877,469
816.342529,494
816.461182,481
816.579895,495
816.698486,459
816.817139,493
816.935791,484
817.054504,485
817.173096,486
817.291748,492
817.4104,493
817.529053,486
817.647644,489
817.766235,475
817.884949,483
818.00354,471
818.122192,484
818.240845,483
818.359436,460
818.478088,490
818.59668,463
818.715271,461
818.833923,481
818.952515,470
819.071106,466
819.189758,475
819.30835,487
819.426941,471
819.545532,469
819.664124,445
819.782715,472
819.901306,459
820.019897,464
820.138489,482
820.25708,475
820.375671,477
820.494202,498
820.612732,466
820.731384,450
820.849915,474
820.968506,456
821.087097,456
821.205627,455
821.324158,468
821.442749,455
821.561279,477
821.679871,467
821.798401,450
821.916931,466
822.035461,464
822.154053,457
822.272583,439
822.391174,485
822.509583,460
822.628174,473
822.746704,458
822.865234,463
822.983765,456
823.102295,466
823.220825,458
823.339294,453
823.457825,467
823.576355,456
823.694824,483
823.813354,460
823.931885,462
824.050354,461
824.168884,456
824.287354,459
824.405823,444
824.524353,464
824.642822,465
824.761353,450
824.879822,460
824.998291,468
825.116699,425
825.235291,462
825.353699,442
825.472168,469
825.590637,452
825.709106,456
825.827576,462
825.946045,454
826.064453,454
826.182983,456
826.301392,447
826.4198,475
826.53833,445
826.656738,467
826.775208,455
826.893677,454
827.012024,446
827.130493,453
827.248962,443
827.36731,444
827.485779,464
827.604248,451
827.722595,456
827.841064,460
827.959412,443
828.077942,457
828.196289,461
828.314636,448
828.433105,457
828.551514,448
828.669861,441
828.78833,433
828.906677,457
829.025085,444
829.143433,440
829.261841,449
829.38031,472
829.498657,451
829.617004,460
829.735413,443
829.85376,441
829.972107,425
830.090515,447
830.208862,464
830.327209,469
830.445557,446
830.563904,444
830.682312,457
830.800659,440
830.919006,453
831.037354,442
831.155701,439
831.274048,448
831.392395,477
831.51062,463
831.629028,444
831.747314,451
831.865662,452
831.984009,446
832.102356,461
832.220642,455
832.338928,455
832.457275,454
832.575623,451
832.693909,460
832.812134,446
832.930481,445
833.048828,461
833.167114,444
833.2854,459
833.403687,451
833.521973,445
833.640259,449
833.758545,459
833.876831,447
833.995056,448
834.113281,445
834.231628,449
834.349915,468
834.468201,465
834.586426,454
834.704651,441
834.822998,460
834.941162,453
835.059448,458
835.177673,444
835.295959,459
835.414246,453
835.53241,456
835.650635,479
835.768921,430
835.887146,454
836.005371,458
836.123596,449
836.241821,454
836.360046,458
836.478271,444
836.596497,469
836.714722,456
836.832886,458
836.95105,436
837.069336,450
837.1875,441
837.305725,469
837.423889,457
837.542053,450
837.660339,467
837.778503,452
837.896667,450
838.014832,454
838.132996,462
838.25116,453
838.369385,445
838.487488,456
838.605713,432
838.723877,456
838.84198,433
838.960205,451
839.078308,454
839.196472,470
839.314636,451
839.4328,441
839.550964,472
839.669067,460
839.787231,461
839.905396,468
840.023499,455
840.141602,463
840.259766,465
840.377869,464
840.495972,463
840.614136,468
840.732239,474
840.850342,444
840.968445,460
841.086548,452
841.204651,446
841.322754,449
841.440918,429
841.55896,479
841.677002,453
841.795166,461
841.913208,462
842.031311,451
842.149353,478
842.267456,461
842.385498,451
842.503601,487
842.621643,460
842.739746,454
842.857788,438
842.97583,442
843.093933,462
843.211975,475
843.330017,471
843.44812,462
843.566101,459
843.684204,463
843.802246,446
843.920227,467
844.038269,448
844.156311,455
844.274292,443
844.392395,465
844.510376,450
844.628357,463
844.74646,452
844.864441,455
844.982422,446
845.100403,457
845.218384,451
845.336426,445
845.454468,446
845.572449,461
845.69043,459
845.808411,456
845.926453,455
846.044373,446
846.162354,449
846.280396,464
846.398315,445
846.516296,454
846.634216,445
846.752197,456
846.870178,455
846.988098,456
847.106079,452
847.22406,448
847.34198,473
847.4599,454
847.577881,458
847.695801,451
847.813782,450
847.931641,462
848.049561,454
848.167603,450
848.285461,443
848.403381,450
848.521362,466
848.639221,455
848.75708,447
848.875,452
848.99292,454
849.110901,470
849.22876,444
849.34668,459
849.464539,451
849.582458,448
849.700317,447
849.818176,466
849.936096,448
850.053955,443
850.171875,436
850.289673,471
850.407593,460
850.525452,459
850.643311,452
850.761169,434
850.878967,454
850.996887,468
851.114746,440
851.232544,451
851.350403,446
851.468262,470
851.58606,457
851.703979,457
851.821777,464
851.939636,464
852.057434,447
852.175232,460
852.293091,451
852.410889,471
852.528687,472
852.646545,462
852.764343,467
852.88208,458
852.999939,457
853.117676,460
853.235535,449
853.353271,452
853.471069,449
853.588928,458
853.706604,460
853.824402,453
853.9422,466
854.059998,441
854.177734,467
854.295532,458
854.413269,462
854.531006,473
854.648804,457
854.766541,445
854.884277,440
855.002014,451
855.119751,436
855.237549,468
855.355225,457
855.473022,454
855.590698,449
855.708435,461
855.826172,448
855.943848,457
856.061646,455
856.179321,464
856.296997,444
856.414795,457
856.53241,460
856.650085,458
856.767822,452
856.885559,471
857.003174,449
857.120911,472
857.238586,453
857.356201,452
857.473938,442
857.591614,463
857.709351,465
857.826965,460
857.944641,470
858.062317,448
858.179993,457
858.297668,460
858.415283,476
858.532959,467
858.650574,472
858.768188,466
858.885803,456
859.003479,475
859.121094,457
859.23877,463
859.356384,451
859.473999,444
859.591675,436
859.709229,468
859.826843,456
859.944458,459
860.062012,455
860.179626,474
860.297302,469
860.414856,457
860.532471,463
860.650024,443
860.767639,457
860.885193,460
861.002808,446
861.120361,466
861.237976,462
861.35553,464
861.473022,453
861.590698,456
861.708191,452
861.825745,459
861.943298,467
862.060852,453
862.178406,459
862.295959,457
862.413513,448
862.531006,451
862.64856,445
862.766113,451
862.883667,439
863.00116,481
863.118713,470
863.236206,454
863.353699,448
863.471252,461
863.588745,455
863.706177,477
863.82373,452
863.941162,461
864.058716,477
864.176208,462
864.29364,455
864.411194,459
864.528687,473
864.646118,452
864.763611,456
864.881042,448
864.998535,464
865.116028,445
865.233459,431
865.350891,447
865.468384,475
865.585754,466
865.703308,453
865.820679,449
865.938171,451
866.055542,452
866.173035,455
866.290466,456
866.407837,458
866.52533,440
866.6427,462
866.760071,462
866.877563,467
866.994934,466
867.112305,471
867.229736,475
867.347107,457
867.464539,455
867.58197,450
867.699341,466
867.81665,450
867.934082,442
868.051453,480
868.168823,448
868.286194,457
868.403564,455
868.520935,445
868.638306,449
868.755676,472
868.872986,450
868.990295,442
869.107727,448
869.225037,462
869.342346,453
869.459717,450
869.577026,474
869.694336,461
869.811707,469
869.929016,461
870.046326,430
870.163635,461
870.280945,452
870.398254,456
870.515564,482
870.632812,465
870.750183,464
870.867432,444
870.984741,461
871.102051,461
871.219299,475
871.336609,460
871.453918,469
871.571106,447
871.688416,455
871.805664,466
871.922852,477
872.040222,467
872.157471,458
872.274719,452
872.391968,474
872.509155,471
872.626465,465
872.743652,482
872.860962,472
872.978149,452
873.095337,458
873.212646,469
873.329834,464
873.44696,452
873.564209,460
873.681396,474
873.798645,472
873.915894,454
874.03302,464
874.150208,463
874.267456,477
874.384583,468
874.501831,475
874.618958,460
874.736145,456
874.853333,473
874.970459,480
875.087646,464
875.204834,453
875.32196,471
875.439148,466
875.556274,462
875.673401,470
875.790527,465
875.907715,456
876.024841,454
876.141968,463
876.259094,454
876.376282,456
876.493347,464
876.610474,466
876.7276,462
876.844727,455
876.961853,479
877.078918,474
877.195984,442
877.313171,466
877.430237,450
877.547302,465
877.664368,448
877.781433,463
877.898499,449
878.015625,455
878.13269,452
878.249695,455
878.366821,458
878.483887,435
878.600952,447
878.717957,468
878.834961,450
878.952087,465
879.069092,458
879.186157,453
879.303162,439
879.420227,462
879.537231,449
879.654236,459
879.77124,461
879.888306,468
880.005249,449
880.122314,458
880.239319,451
880.356323,468
880.473328,456
880.590271,447
880.707275,455
880.824341,454
880.941284,454
881.058228,471
881.175232,460
881.292236,463
881.40918,445
881.526123,461
881.643066,466
881.760071,454
881.877014,451
881.993958,464
882.11084,466
882.227783,461
882.344727,471
882.46167,450
882.578613,458
882.695618,455
882.812439,460
882.929382,453
883.046326,439
883.163208,470
883.280151,454
883.397034,475
883.513916,454
883.630798,447
883.747742,469
883.864563,455
883.981506,439
884.098389,456
884.21521,461
884.332153,458
884.448975,453
884.565796,483
884.682678,479
884.7995,480
884.916443,443
885.033264,481
885.150085,477
885.266968,458
885.383789,457
885.500671,482
885.617493,492
885.734314,477
885.851196,474
885.967896,482
886.084717,465
886.201599,480
886.318359,465
886.435181,473
886.552002,483
886.668762,465
886.785645,480
886.902344,473
887.019165,474
887.135925,495
887.252747,479
887.369446,473
887.486267,467
887.603027,437
887.719788,447
887.836548,464
887.953247,475
888.070068,477
888.186829,467
888.303528,455
888.420288,442
888.536987,454
888.653687,447
888.770447,485
888.887146,468
889.003967,462
889.120667,469
889.237305,442
889.354065,463
889.470703,456
889.587463,445
889.704163,452
889.820862,460
889.937561,443
890.054199,454
890.170837,458
890.287598,449
890.404236,465
890.520874,450
890.637634,473
890.754211,465
890.87085,457
890.987549,460
891.104187,462
891.220886,469
891.337463,458
891.454102,471
891.57074,469
891.687378,473
891.804077,473
891.920654,457
892.037231,458
892.15387,473
892.270447,453
892.387085,473
892.503723,462
892.6203,460
892.736877,477
892.853516,443
892.970032,463
893.08667,468
893.203186,455
893.319763,456
893.43634,453
893.552917,453
893.669556,460
893.786011,462
893.902588,467
894.019165,454
894.135681,480
894.252197,455
894.368835,469
894.485291,450
894.601868,464
894.718384,454
894.8349,451
894.951355,450
895.067932,459
895.184448,445
895.300964,458
895.417419,449
895.533936,460
895.650452,447
895.766907,469
895.883423,469
895.999878,454
896.116333,467
896.232849,468
896.349304,450
896.465759,470
896.582214,459
896.698669,468
896.815125,439
896.931641,458
897.048035,461
897.164551,455
897.280884,450
897.397339,456
897.513794,456
897.630249,467
897.746582,455
897.863098,464
897.979431,472
898.095886,469
898.212341,462
898.328674,463
898.445129,450
898.561462,480
898.677795,473
898.794312,457
898.910645,454
899.026978,468
899.143433,447
899.259766,469
899.37616,470
899.492493,472
899.608765,455
899.725159,467
899.841553,441
899.957947,464
900.07428,456
900.190552,460
900.306946,469
900.423157,465
900.53949,440
900.655884,470
900.772156,440
900.888489,484
901.004822,470
901.121033,454
901.237366,456
901.353699,467
901.46991,462
901.586304,464
901.702515,461
901.818787,477
901.93512,463
902.051331,463
902.167603,458
902.283875,486
902.400085,466
902.516418,467
902.632629,471
902.74884,478
902.865112,476
902.981384,472
903.097595,475
903.213867,490
903.330017,476
903.446289,491
903.5625,456
903.67865,478
903.794922,472
903.911072,455
904.027344,484
904.143494,475
904.259705,456
904.375916,483
904.492065,457
904.608215,476
904.724426,443
904.840576,469
904.956726,473
905.072876,461
905.189087,470
905.305176,484
905.421387,470
905.537537,463
905.653687,484
905.769775,486
905.885925,469
906.002014,475
906.118164,458
906.234314,454
906.350403,461
906.466492,451
906.582642,473
906.69873,464
906.814758,471
906.930908,479
907.046936,466
907.163086,449
907.279175,462
907.395264,480
907.511353,450
907.62738,448
907.743408,459
907.859497,452
907.975525,451
908.091553,456
908.207703,455
908.32373,451
908.439758,465
908.555786,454
908.671814,467
908.787842,472
908.90387,460
909.019775,457
909.135864,462
909.251892,469
909.367859,465
909.483826,461
909.599854,467
909.715881,462
909.831848,461
909.947815,456
910.063782,468
910.179749,458
910.295776,466
910.411743,458
910.527649,451
910.643616,450
910.759583,481
910.875488,468
910.991455,462
911.107361,457
911.223267,459
911.339294,471
911.4552,466
911.571106,490
911.687073,454
911.802979,449
911.918823,482
912.034729,459
912.150635,463
912.266602,452
912.382446,461
912.498352,477
912.614197,463
912.730103,455
912.846008,459
792.44574,635
792.56488,627
792.68396,669
792.80304,647
792.92218,601
793.041199,618
793.160339,578
793.279419,598
793.398499,600
793.517578,588
793.636658,572
793.755737,587
793.874817,594
793.993896,591
794.112976,600
794.232056,561
794.351074,565
794.470215,567
794.589233,577
794.708313,536
794.827393,551
794.946411,557
795.065552,568
795.18457,543
795.303589,539
795.422668,540
795.541687,537
795.660767,542
795.779846,527
795.898865,533
796.017883,536
796.136963,525
796.255981,539
796.375061,530
796.49408,554
796.613037,534
796.732117,528
796.851135,509
796.970154,546
797.089233,513
797.208191,536
797.327271,528
797.446228,542
797.565186,522
797.684265,506
797.803223,531
797.922241,514
798.04126,542
798.160278,502
798.279297,509
798.398315,499
798.517273,511
798.636292,526
798.75531,514
798.874268,524
798.993286,511
799.112244,506
799.231323,499
799.350281,527
799.469238,527
799.588257,519
799.707153,516
799.826111,512
799.945129,514
800.064087,533
800.183044,529
800.302063,487
800.421021,493
800.539978,514
800.658936,521
800.777893,538
800.896912,527
801.015747,506
801.134705,500
801.253723,496
801.37262,517
801.491638,512
801.610535,495
801.729492,510
801.84845,513
801.967407,506
802.086243,501
802.205261,504
802.324158,503
802.443115,521
802.562073,491
802.680969,513
802.799927,510
802.918762,503
803.037659,502
803.156677,510
803.275574,492
803.39447,509
803.513428,500
803.632263,501
803.751221,505
803.870117,502
803.989014,504
804.107971,524
804.226746,515
804.345642,506
804.4646,492
804.583496,489
804.702393,508
804.821228,493
804.940125,489
805.059021,508
805.177917,508
805.296814,479
805.415649,517
805.534546,507
805.653442,509
805.772278,505
805.891113,500
806.01001,520
806.128906,497
806.247742,486
806.366577,504
806.485413,492
806.604309,514
806.723145,483
806.84198,500
806.960876,500
807.079712,512
807.198486,483
807.317383,503
807.436218,498
807.554993,509
807.673889,508
807.792725,506
807.91156,498
808.030396,492
808.14917,498
808.268005,493
808.386841,501
808.505676,517
808.624451,506
808.743286,484
808.862122,492
808.980896,485
809.099731,504
809.218506,495
809.337341,506
809.456116,492
809.57489,487
809.693726,496
809.8125,521
809.931274,505
810.050049,476
810.168884,487
810.287659,503
810.406372,517
810.525269,489
810.643982,489
810.762756,498
810.881531,487
811.000305,509
811.11908,495
811.237854,487
811.356567,506
811.475403,487
811.594116,519
811.71283,501
811.831604,520
811.950378,505
812.069153,486
812.187927,493
812.30658,508
812.425415,501
812.544128,511
812.662781,502
812.781616,475
812.900269,493
813.019043,501
813.137756,471
813.256531,506
813.375244,506
813.493896,498
813.612671,513
813.731384,497
813.850037,499
813.96875,489
814.087524,483
814.206238,502
814.324951,478
814.443604,503
814.562256,499
814.68103,497
814.799683,497
814.918335,472
815.037109,518
815.155762,492
815.274475,495
815.393188,505
815.511841,463
815.630554,472
815.749146,502
815.867859,491
815.986572,479
816.105164,518
816.223877,495
816.342529,479
816.461182,460
816.579895,494
816.698486,501
816.817139,493
816.935791,490
817.054504,495
817.173096,496
817.291748,477
817.4104,492
817.529053,498
817.647644,482
817.766235,491
817.884949,486
818.00354,485
818.122192,476
818.240845,500
818.359436,471
818.478088,481
818.59668,483
818.715271,467
818.833923,473
818.952515,491
819.071106,497
819.189758,466
819.30835,470
819.426941,465
819.545532,472
819.664124,461
819.782715,462
819.901306,479
820.019897,471
820.138489,459
820.25708,482
820.375671,465
820.494202,472
820.612732,487
820.731384,462
820.849915,467
820.968506,465
821.087097,475
821.205627,482
821.324158,471
821.442749,463
821.561279,455
821.679871,456
821.798401,478
821.916931,465
822.035461,479
822.154053,478
822.272583,468
822.391174,466
822.509583,445
822.628174,464
822.746704,454
822.865234,463
822.983765,467
823.102295,473
823.220825,457
823.339294,466
823.457825,464
823.576355,461
823.694824,466
823.813354,459
823.931885,452
824.050354,469
824.168884,472
824.287354,482
824.405823,460
824.524353,473
824.642822,463
824.761353,456
824.879822,461
824.998291,469
825.116699,458
825.235291,461
825.353699,454
825.472168,460
825.590637,453
825.709106,463
825.827576,478
825.946045,468
826.064453,457
826.182983,436
826.301392,450
826.4198,463
826.53833,477
826.656738,455
826.775208,442
826.893677,451
827.012024,467
827.130493,457
827.248962,465
827.36731,462
827.485779,467
827.604248,469
827.722595,432
827.841064,460
827.959412,453
828.077942,465
828.196289,462
828.314636,450
828.433105,455
828.551514,451
828.669861,476
828.78833,458
828.906677,441
829.025085,452
829.143433,449
829.261841,479
829.38031,465
829.498657,443
829.617004,465
829.735413,447
829.85376,469
829.972107,453
830.090515,456
830.208862,450
830.327209,456
830.445557,463
830.563904,462
830.682312,460
830.800659,456
830.919006,465
831.037354,472
831.155701,446
831.274048,465
831.392395,462
831.51062,479
831.629028,464
831.747314,424
831.865662,447
831.984009,465
832.102356,459
832.220642,466
832.338928,479
832.457275,467
832.575623,452
832.693909,472
832.812134,458
832.930481,462
833.048828,465
833.167114,461
833.2854,455
833.403687,452
833.521973,450
833.640259,456
833.758545,439
833.876831,465
833.995056,454
834.113281,457
834.231628,462
834.349915,469
834.468201,435
834.586426,467
834.704651,453
834.822998,451
834.941162,443
835.059448,451
835.177673,463
835.295959,449
835.414246,447
835.53241,452
835.650635,455
835.768921,450
835.887146,445
836.005371,463
836.123596,447
836.241821,475
836.360046,462
836.478271,447
836.596497,446
836.714722,457
836.832886,439
836.95105,462
837.069336,445
837.1875,452
837.305725,450
837.423889,455
837.542053,459
837.660339,448
837.778503,455
837.896667,465
838.014832,456
838.132996,435
838.25116,456
838.369385,448
838.487488,454
838.605713,461
838.723877,448
838.84198,466
838.960205,469
839.078308,457
839.196472,450
839.314636,457
839.4328,466
839.550964,453
839.669067,460
839.787231,463
839.905396,464
840.023499,466
840.141602,460
840.259766,451
840.377869,452
840.495972,456
840.614136,449
840.732239,464
840.850342,440
840.968445,458
841.086548,463
841.204651,450
841.322754,443
841.440918,471
841.55896,461
841.677002,444
841.795166,454
841.913208,446
842.031311,461
842.149353,462
842.267456,456
842.385498,464
842.503601,444
842.621643,451
842.739746,445
842.857788,446
842.97583,460
843.093933,478
843.211975,475
843.330017,463
843.44812,451
843.566101,461
843.684204,466
843.802246,435
843.920227,455
844.038269,457
844.156311,470
844.274292,441
844.392395,465
844.510376,455
844.628357,465
844.74646,469
844.864441,440
844.982422,461
845.100403,456
845.218384,479
845.336426,451
845.454468,447
845.572449,468
845.69043,449
845.808411,460
845.926453,460
846.044373,457
846.162354,456
846.280396,452
846.398315,454
846.516296,468
846.634216,468
846.752197,446
846.870178,461
846.988098,443
847.106079,435
847.22406,459
847.34198,454
847.4599,439
847.577881,463
847.695801,445
847.813782,462
847.931641,441
848.049561,440
848.167603,458
848.285461,444
848.403381,447
848.521362,464
848.639221,456
848.75708,469
848.875,464
848.99292,448
849.110901,466
849.22876,429
849.34668,452
849.464539,467
849.582458,476
849.700317,458
849.818176,464
849.936096,469
850.053955,436
850.171875,441
850.289673,445
850.407593,485
850.525452,455
850.643311,452
850.761169,457
850.878967,465
850.996887,426
851.114746,456
851.232544,457
851.350403,457
851.468262,464
851.58606,456
851.703979,453
851.821777,455
851.939636,442
852.057434,458
852.175232,452
852.293091,465
852.410889,465
852.528687,479
852.646545,453
852.764343,480
852.88208,449
852.999939,465
853.117676,456
853.235535,485
853.353271,457
853.471069,457
853.588928,448
853.706604,443
853.824402,461
853.9422,467
854.059998,444
854.177734,467
854.295532,454
854.413269,482
854.531006,451
854.648804,476
854.766541,466
854.884277,448
855.002014,451
855.119751,459
855.237549,464
855.355225,462
855.473022,424
855.590698,455
855.708435,477
855.826172,453
855.943848,476
856.061646,466
856.179321,434
856.296997,463
856.414795,447
856.53241,461
856.650085,461
856.767822,453
856.885559,481
857.003174,479
857.120911,476
857.238586,481
857.356201,451
857.473938,493
857.591614,451
857.709351,444
857.826965,454
857.944641,462
858.062317,460
858.179993,460
858.297668,468
858.415283,466
858.532959,480
858.650574,474
858.768188,479
858.885803,442
859.003479,455
859.121094,454
859.23877,450
859.356384,460
859.473999,460
859.591675,459
859.709229,466
859.826843,453
859.944458,466
860.062012,464
860.179626,459
860.297302,463
860.414856,438
860.532471,450
860.650024,443
860.767639,450
860.885193,460
861.002808,465
861.120361,463
861.237976,473
861.35553,461
861.473022,452
861.590698,461
861.708191,475
861.825745,465
861.943298,460
862.060852,437
862.178406,457
862.295959,457
862.413513,470
862.531006,454
862.64856,456
862.766113,464
862.883667,455
863.00116,447
863.118713,443
863.236206,458
863.353699,462
863.471252,464
863.588745,446
863.706177,460
863.82373,454
863.941162,461
864.058716,447
864.176208,459
864.29364,450
864.411194,465
864.528687,474
864.646118,450
864.763611,439
864.881042,455
864.998535,461
865.116028,456
865.233459,462
865.350891,443
865.468384,455
865.585754,473
865.703308,448
865.820679,460
865.938171,452
866.055542,469
866.173035,466
866.290466,453
866.407837,457
866.52533,452
866.6427,470
866.760071,446
866.877563,467
866.994934,459
867.112305,442
867.229736,469
867.347107,453
867.464539,458
867.58197,443
867.699341,456
867.81665,464
867.934082,464
868.051453,460
868.168823,446
868.286194,471
868.403564,454
868.520935,462
868.638306,487
868.755676,469
868.872986,464
868.990295,457
869.107727,479
869.225037,436
869.342346,466
869.459717,466
869.577026,449
869.694336,466
869.811707,458
869.929016,467
870.046326,457
870.163635,456
870.280945,448
870.398254,461
870.515564,473
870.632812,468
870.750183,495
870.867432,460
870.984741,465
871.102051,470
871.219299,463
871.336609,448
871.453918,472
871.571106,457
871.688416,471
871.805664,455
871.922852,448
872.040222,471
872.157471,437
872.274719,483
872.391968,458
872.509155,472
872.626465,465
872.743652,449
872.860962,482
872.978149,466
873.095337,472
873.212646,479
873.329834,468
873.44696,463
873.564209,456
873.681396,471
873.798645,460
873.915894,464
874.03302,461
874.150208,467
874.267456,456
874.384583,460
874.501831,476
874.618958,466
874.736145,463
874.853333,486
874.970459,475
875.087646,476
875.204834,457
875.32196,468
875.439148,454
875.556274,447
875.673401,485
875.790527,453
875.907715,468
876.024841,468
876.141968,475
876.259094,474
876.376282,457
876.493347,450
876.610474,447
876.7276,455
876.844727,448
876.961853,469
877.078918,444
877.195984,485
877.313171,478
877.430237,449
877.547302,473
877.664368,473
877.781433,462
877.898499,469
878.015625,455
878.13269,477
878.249695,472
878.366821,461
878.483887,472
878.600952,463
878.717957,477
878.834961,461
878.952087,465
879.069092,463
879.186157,449
879.303162,466
879.420227,468
879.537231,466
879.654236,451
879.77124,469
879.888306,441
880.005249,475
880.122314,455
880.239319,454
880.356323,456
880.473328,453
880.590271,453
880.707275,471
880.824341,464
880.941284,466
881.058228,462
881.175232,457
881.292236,455
881.40918,473
881.526123,470
881.643066,448
881.760071,445
881.877014,465
881.993958,470
882.11084,464
882.227783,458
882.344727,461
882.46167,464
882.578613,466
882.695618,471
882.812439,463
882.929382,454
883.046326,463
883.163208,462
883.280151,453
883.397034,456
883.513916,476
883.630798,459
883.747742,450
883.864563,443
883.981506,468
884.098389,464
884.21521,462
884.332153,471
884.448975,467
884.565796,461
884.682678,461
884.7995,468
884.916443,488
885.033264,463
885.150085,468
885.266968,485
885.383789,494
885.500671,477
885.617493,486
885.734314,488
885.851196,489
885.967896,499
886.084717,488
886.201599,486
886.318359,453
886.435181,467
886.552002,466
886.668762,474
886.785645,486
886.902344,481
887.019165,487
887.135925,479
887.252747,466
887.369446,487
887.486267,480
887.603027,462
887.719788,468
887.836548,465
887.953247,476
888.070068,469
888.186829,494
888.303528,483
888.420288,479
888.536987,452
888.653687,462
888.770447,454
888.887146,456
889.003967,442
889.120667,441
889.237305,451
889.354065,470
889.470703,460
889.587463,466
889.704163,462
889.820862,468
889.937561,448
890.054199,459
890.170837,446
890.287598,449
890.404236,472
890.520874,470
890.637634,468
890.754211,468
890.87085,449
890.987549,483
891.104187,462
891.220886,463
891.337463,457
891.454102,468
891.57074,462
891.687378,462
891.804077,476
891.920654,468
892.037231,470
892.15387,445
892.270447,456
892.387085,464
892.503723,470
892.6203,470
892.736877,458
892.853516,469
892.970032,461
893.08667,466
893.203186,468
893.319763,451
893.43634,446
893.552917,446
893.669556,449
893.786011,455
893.902588,465
894.019165,440
894.135681,476
894.252197,464
894.368835,469
894.485291,466
894.601868,465
894.718384,466
894.8349,477
894.951355,476
895.067932,448
895.184448,453
895.300964,461
895.417419,462
895.533936,445
895.650452,448
895.766907,455
895.883423,452
895.999878,470
896.116333,472
896.232849,477
896.349304,476
896.465759,472
896.582214,462
896.698669,459
896.815125,476
896.931641,453
897.048035,467
897.164551,449
897.280884,452
897.397339,476
897.513794,473
897.630249,472
897.746582,456
897.863098,451
897.979431,483
898.095886,469
898.212341,470
898.328674,463
898.445129,449
898.561462,476
898.677795,450
898.794312,446
898.910645,459
899.026978,455
899.143433,478
899.259766,471
899.37616,463
899.492493,466
899.608765,478
899.725159,455
899.841553,448
899.957947,468
900.07428,465
900.190552,473
900.306946,493
900.423157,476
900.53949,458
900.655884,465
900.772156,473
900.888489,460
901.004822,460
901.121033,488
901.237366,479
901.353699,449
901.46991,477
901.586304,479
901.702515,468
901.818787,453
901.93512,480
902.051331,477
902.167603,486
902.283875,474
902.400085,485
902.516418,469
902.632629,476
902.74884,466
902.865112,489
902.981384,484
903.097595,477
903.213867,458
903.330017,471
903.446289,477
903.5625,498
903.67865,455
903.794922,468
903.911072,471
904.027344,477
904.143494,473
904.259705,485
904.375916,479
904.492065,468
904.608215,476
904.724426,461
904.840576,460
904.956726,460
905.072876,474
905.189087,452
905.305176,464
905.421387,471
905.537537,476
905.653687,482
905.769775,475
905.885925,469
906.002014,473
906.118164,472
906.234314,455
906.350403,474
906.466492,486
906.582642,445
906.69873,454
906.814758,459
906.930908,460
907.046936,491
907.163086,491
907.279175,481
907.395264,463
907.511353,474
907.62738,473
907.743408,457
907.859497,456
907.975525,473
908.091553,476
908.207703,476
908.32373,465
908.439758,480
908.555786,455
908.671814,480
908.787842,478
908.90387,468
909.019775,467
909.135864,462
909.251892,468
909.367859,465
909.483826,471
909.599854,478
909.715881,473
909.831848,455
909.947815,486
910.063782,457
910.179749,478
910.295776,470
910.411743,464
910.527649,471
910.643616,475
910.759583,453
910.875488,478
910.991455,468
911.107361,474
911.223267,475
911.339294,466
911.4552,469
911.571106,456
911.687073,487
911.802979,444
911.918823,477
912.034729,481
912.150635,458
912.266602,471
912.382446,470
912.498352,469
912.614197,457
912.730103,473
912.846008,467
792.44574,609
792.56488,652
792.68396,687
792.80304,668
792.92218,601
793.041199,623
793.160339,596
793.279419,604
793.398499,590
793.517578,587
793.636658,572
793.755737,595
793.874817,610
793.993896,573
794.112976,567
794.232056,540
794.351074,581
794.470215,581
794.589233,557
794.708313,558
794.827393,572
794.946411,550
795.065552,546
795.18457,547
795.303589,551
795.422668,565
795.541687,554
795.660767,573
795.779846,533
795.898865,554
796.017883,550
796.136963,530
796.255981,535
796.375061,538
796.49408,518
796.613037,551
796.732117,513
796.851135,546
796.970154,535
797.089233,535
797.208191,543
797.327271,539
797.446228,543
797.565186,522
797.684265,539
797.803223,529
797.922241,535
798.04126,515
798.160278,504
798.279297,520
798.398315,521
798.517273,498
798.636292,515
798.75531,509
798.874268,500
798.993286,509
799.112244,518
799.231323,515
799.350281,536
799.469238,539
799.588257,521
799.707153,516
799.826111,503
799.945129,526
800.064087,512
800.183044,514
800.302063,517
800.421021,519
800.539978,514
800.658936,519
800.777893,497
800.896912,505
801.015747,524
801.134705,495
801.253723,504
801.37262,519
801.491638,528
801.610535,504
801.729492,512
801.84845,510
801.967407,512
802.086243,512
802.205261,497
802.324158,513
802.443115,498
802.562073,511
802.680969,505
802.799927,501
802.918762,524
803.037659,502
803.156677,492
803.275574,486
803.39447,503
803.513428,496
803.632263,500
803.751221,484
803.870117,518
803.989014,499
804.107971,523
804.226746,490
804.345642,497
804.4646,486
804.583496,506
804.702393,512
804.821228,503
804.940125,501
805.059021,490
805.177917,485
805.296814,494
805.415649,494
805.534546,507
805.653442,489
805.772278,517
805.891113,504
806.01001,495
806.128906,498
806.247742,502
806.366577,488
806.485413,508
806.604309,500
806.723145,502
806.84198,509
806.960876,487
807.079712,506
807.198486,538
807.317383,494
807.436218,490
807.554993,504
807.673889,522
807.792725,484
807.91156,491
808.030396,502
808.14917,503
808.268005,512
808.386841,496
808.505676,488
808.624451,491
808.743286,504
808.862122,495
808.980896,494
809.099731,496
809.218506,506
809.337341,506
809.456116,504
809.57489,492
809.693726,492
809.8125,507
809.931274,501
810.050049,502
810.168884,482
810.287659,503
810.406372,489
810.525269,496
810.643982,495
810.762756,492
810.881531,511
811.000305,485
811.11908,496
811.237854,479
811.356567,486
811.475403,511
811.594116,504
811.71283,502
811.831604,506
811.950378,507
812.069153,499
812.187927,479
812.30658,521
812.425415,486
812.544128,491
812.662781,510
812.781616,496
812.900269,510
813.019043,504
813.137756,503
813.256531,480
813.375244,494
813.493896,504
813.612671,512
813.731384,505
813.850037,520
813.96875,498
814.087524,488
814.206238,512
814.324951,507
814.443604,493
814.562256,485
814.68103,491
814.799683,499
814.918335,487
815.037109,504
815.155762,482
815.274475,495
815.393188,496
815.511841,494
815.630554,489
815.749146,481
815.867859,475
815.986572,499
816.105164,492
816.223877,475
816.342529,485
816.461182,504
816.579895,487
816.698486,499
816.817139,500
816.935791,509
817.054504,499
817.173096,487
817.291748,477
817.4104,520
817.529053,489
817.647644,493
817.766235,465
817.884949,482
818.00354,511
818.122192,487
818.240845,482
818.359436,494
818.478088,492
818.59668,464
818.715271,483
818.833923,492
818.952515,467
819.071106,485
819.189758,469
819.30835,465
819.426941,469
819.545532,463
819.664124,471
819.782715,472
819.901306,460
820.019897,475
820.138489,466
820.25708,469
820.375671,470
820.494202,460
820.612732,467
820.731384,477
820.849915,464
820.968506,498
821.087097,471
821.205627,479
821.324158,480
821.442749,485
821.561279,490
821.679871,453
821.798401,470
821.916931,468
822.035461,479
822.154053,469
822.272583,459
822.391174,482
822.509583,465
822.628174,469
822.746704,458
822.865234,479
822.983765,466
823.102295,480
823.220825,460
823.339294,464
823.457825,468
823.576355,477
823.694824,459
823.813354,469
823.931885,458
824.050354,480
824.168884,437
824.287354,490
824.405823,467
824.524353,475
824.642822,453
824.761353,477
824.879822,463
824.998291,468
825.116699,466
825.235291,470
825.353699,474
825.472168,447
825.590637,459
825.709106,458
825.827576,463
825.946045,490
826.064453,451
826.182983,451
826.301392,463
826.4198,463
826.53833,462
826.656738,459
826.775208,456
826.893677,476
827.012024,452
827.130493,454
827.248962,463
827.36731,458
827.485779,456
827.604248,471
827.722595,465
827.841064,472
827.959412,460
828.077942,462
828.196289,460
828.314636,463
828.433105,449
828.551514,470
828.669861,460
828.78833,464
828.906677,472
829.025085,476
829.143433,448
829.261841,441
829.38031,438
829.498657,480
829.617004,455
829.735413,445
829.85376,460
829.972107,472
830.090515,446
830.208862,469
830.327209,460
830.445557,475
830.563904,452
830.682312,464
830.800659,447
830.919006,457
831.037354,440
831.155701,447
831.274048,468
831.392395,462
831.51062,431
831.629028,467
831.747314,466
831.865662,472
831.984009,455
832.102356,449
832.220642,480
832.338928,447
832.457275,473
832.575623,447
832.693909,448
832.812134,440
832.930481,466
833.048828,459
833.167114,446
833.2854,464
833.403687,449
833.521973,454
833.640259,430
833.758545,445
833.876831,457
833.995056,466
834.113281,466
834.231628,458
834.349915,450
834.468201,452
834.586426,448
834.704651,481
834.822998,443
834.941162,470
835.059448,448
835.177673,451
835.295959,439
835.414246,455
835.53241,448
835.650635,454
835.768921,458
835.887146,478
836.005371,471
836.123596,470
836.241821,460
836.360046,476
836.478271,461
836.596497,458
836.714722,445
836.832886,438
836.95105,453
837.069336,471
837.1875,465
837.305725,456
837.423889,475
837.542053,453
837.660339,482
837.778503,422
837.896667,444
838.014832,439
838.132996,456
838.25116,471
838.369385,447
838.487488,464
838.605713,468
838.723877,454
838.84198,439
838.960205,466
839.078308,462
839.196472,448
839.314636,465
839.4328,446
839.550964,465
839.669067,480
839.787231,459
839.905396,471
840.023499,475
840.141602,462
840.259766,448
840.377869,450
840.495972,448
840.614136,442
840.732239,444
840.850342,471
840.968445,443
841.086548,451
841.204651,461
841.322754,458
841.440918,435
841.55896,462
841.677002,461
841.795166,467
841.913208,487
842.031311,465
842.149353,468
842.267456,457
842.385498,453
842.503601,458
842.621643,458
842.739746,455
842.857788,442
842.97583,468
843.093933,454
843.211975,471
843.330017,447
843.44812,461
843.566101,453
843.684204,450
843.802246,428
843.920227,460
844.038269,449
844.156311,462
844.274292,461
844.392395,479
844.510376,457
844.628357,460
844.74646,451
844.864441,474
844.982422,450
845.100403,465
845.218384,466
845.336426,451
845.454468,474
845.572449,476
845.69043,463
845.808411,446
845.926453,452
846.044373,460
846.162354,445
846.280396,445
846.398315,472
846.516296,463
846.634216,459
846.752197,471
846.870178,458
846.988098,444
847.106079,464
847.22406,469
847.34198,461
847.4599,465
847.577881,478
847.695801,448
847.813782,443
847.931641,465
848.049561,453
848.167603,474
848.285461,456
848.403381,464
848.521362,459
848.639221,466
848.75708,448
848.875,459
848.99292,467
849.110901,463
849.22876,454
849.34668,465
849.464539,434
849.582458,465
849.700317,481
849.818176,474
849.936096,468
850.053955,469
850.171875,469
850.289673,480
850.407593,465
850.525452,466
850.643311,431
850.761169,459
850.878967,450
850.996887,454
851.114746,459
851.232544,472
851.350403,455
851.468262,479
851.58606,468
851.703979,479
851.821777,460
851.939636,462
852.057434,461
852.175232,455
852.293091,467
852.410889,464
852.528687,477
852.646545,475
852.764343,461
852.88208,463
852.999939,474
853.117676,468
853.235535,450
853.353271,455
853.471069,468
853.588928,451
853.706604,470
853.824402,458
853.9422,451
854.059998,466
854.177734,460
854.295532,477
854.413269,457
854.531006,473
854.648804,457
854.766541,466
854.884277,450
855.002014,471
855.119751,448
855.237549,465
855.355225,456
855.473022,463
855.590698,450
855.708435,456
855.826172,460
855.943848,464
856.061646,462
856.179321,461
856.296997,446
856.414795,455
856.53241,459
856.650085,461
856.767822,457
856.885559,489
857.003174,468
857.120911,465
857.238586,461
857.356201,481
857.473938,448
857.591614,458
857.709351,467
857.826965,458
857.944641,457
858.062317,437
858.179993,470
858.297668,464
858.415283,462
858.532959,467
858.650574,464
858.768188,473
858.885803,453
859.003479,480
859.121094,440
859.23877,475
859.356384,465
859.473999,471
859.591675,450
859.709229,445
859.826843,454
859.944458,463
860.062012,456
860.179626,481
860.297302,465
860.414856,446
860.532471,447
860.650024,455
860.767639,454
860.885193,460
861.002808,459
861.120361,455
861.237976,452
861.35553,471
861.473022,476
861.590698,447
861.708191,469
861.825745,480
861.943298,472
862.060852,464
862.178406,445
862.295959,451
862.413513,435
862.531006,465
862.64856,451
862.766113,453
862.883667,446
863.00116,469
863.118713,481
863.236206,473
863.353699,458
863.471252,479
863.588745,459
863.706177,459
863.82373,453
863.941162,459
864.058716,450
864.176208,468
864.29364,465
864.411194,474
864.528687,449
864.646118,483
864.763611,453
864.881042,458
864.998535,458
865.116028,463
865.233459,437
865.350891,465
865.468384,458
865.585754,474
865.703308,465
865.820679,451
865.938171,442
866.055542,459
866.173035,436
866.290466,464
866.407837,446
866.52533,456
866.6427,467
866.760071,477
866.877563,471
866.994934,456
867.112305,440
867.229736,467
867.347107,451
867.464539,458
867.58197,463
867.699341,452
867.81665,459
867.934082,451
868.051453,430
868.168823,440
868.286194,449
868.403564,461
868.520935,449
868.638306,450
868.755676,449
868.872986,458
868.990295,477
869.107727,473
869.225037,473
869.342346,457
869.459717,452
869.577026,472
869.694336,469
869.811707,449
869.929016,466
870.046326,484
870.163635,463
870.280945,473
870.398254,461
870.515564,463
870.632812,464
870.750183,445
870.867432,458
870.984741,458
871.102051,474
871.219299,475
871.336609,467
871.453918,470
871.571106,474
871.688416,481
871.805664,466
871.922852,473
872.040222,467
872.157471,503
872.274719,471
872.391968,471
872.509155,458
872.626465,468
872.743652,453
872.860962,470
872.978149,449
873.095337,462
873.212646,443
873.329834,445
873.44696,471
873.564209,472
873.681396,473
873.798645,473
873.915894,464
874.03302,473
874.150208,468
874.267456,482
874.384583,464
874.501831,472
874.618958,467
874.736145,482
874.853333,454
874.970459,451
875.087646,480
875.204834,467
875.32196,463
875.439148,482
875.556274,484
875.673401,476
875.790527,454
875.907715,460
876.024841,451
876.141968,466
876.259094,464
876.376282,462
876.493347,470
876.610474,469
876.7276,456
876.844727,460
876.961853,455
877.078918,477
877.195984,457
877.313171,465
877.430237,483
877.547302,471
877.664368,463
877.781433,458
877.898499,473
878.015625,456
878.13269,469
878.249695,472
878.366821,461
878.483887,467
878.600952,439
878.717957,481
878.834961,460
878.952087,472
879.069092,461
879.186157,465
879.303162,468
879.420227,473
879.537231,462
879.654236,460
879.77124,464
879.888306,467
880.005249,458
880.122314,456
880.239319,458
880.356323,458
880.473328,449
880.590271,464
880.707275,433
880.824341,443
880.941284,464
881.058228,470
881.175232,460
881.292236,462
881.40918,465
881.526123,456
881.643066,451
881.760071,476
881.877014,451
881.993958,469
882.11084,458
882.227783,452
882.344727,463
882.46167,468
882.578613,458
882.695618,460
882.812439,455
882.929382,455
883.046326,463
883.163208,456
883.280151,448
883.397034,458
883.513916,470
883.630798,479
883.747742,462
883.864563,471
883.981506,477
884.098389,472
884.21521,453
884.332153,473
884.448975,474
884.565796,465
884.682678,483
884.7995,479
884.916443,453
885.033264,468
885.150085,479
885.266968,481
885.383789,476
885.500671,494
885.617493,474
885.734314,483
885.851196,485
885.967896,467
886.084717,486
886.201599,483
886.318359,481
886.435181,482
886.552002,484
886.668762,483
886.785645,476
886.902344,484
887.019165,466
887.135925,473
887.252747,467
887.369446,478
887.486267,468
887.603027,465
887.719788,466
887.836548,459
887.953247,492
888.070068,459
888.186829,463
888.303528,455
888.420288,443
888.536987,461
888.653687,460
888.770447,464
888.887146,477
889.003967,482
889.120667,458
889.237305,477
889.354065,445
889.470703,475
889.587463,470
889.704163,472
889.820862,451
889.937561,445
890.054199,462
890.170837,479
890.287598,432
890.404236,475
890.520874,451
890.637634,458
890.754211,471
890.87085,455
890.987549,457
891.104187,483
891.220886,458
891.337463,455
891.454102,466
891.57074,477
891.687378,464
891.804077,481
891.920654,460
892.037231,454
892.15387,471
892.270447,453
892.387085,431
892.503723,471
892.6203,452
892.736877,471
892.853516,469
892.970032,469
893.08667,450
893.203186,478
893.319763,473
893.43634,468
893.552917,454
893.669556,460
893.786011,427
893.902588,464
894.019165,474
894.135681,467
894.252197,495
894.368835,464
894.485291,471
894.601868,484
894.718384,451
894.8349,462
894.951355,476
895.067932,471
895.184448,448
895.300964,472
895.417419,457
895.533936,467
895.650452,458
895.766907,461
895.883423,451
895.999878,462
896.116333,453
896.232849,465
896.349304,468
896.465759,468
896.582214,471
896.698669,466
896.815125,475
896.931641,460
897.048035,469
897.164551,485
897.280884,469
897.397339,456
897.513794,485
897.630249,452
897.746582,486
897.863098,492
897.979431,474
898.095886,453
898.212341,485
898.328674,472
898.445129,461
898.561462,464
898.677795,463
898.794312,481
898.910645,467
899.026978,471
899.143433,466
899.259766,474
899.37616,455
899.492493,490
899.608765,475
899.725159,478
899.841553,467
899.957947,462
900.07428,467
900.190552,472
900.306946,467
900.423157,469
900.53949,462
900.655884,466
900.772156,481
900.888489,475
901.004822,442
901.121033,487
901.237366,458
901.353699,477
901.46991,477
901.586304,485
901.702515,464
901.818787,490
901.93512,474
902.051331,470
902.167603,450
902.283875,488
902.400085,475
902.516418,464
902.632629,472
902.74884,475
902.865112,479
902.981384,469
903.097595,456
903.213867,483
903.330017,470
903.446289,487
903.5625,477
903.67865,491
903.794922,461
903.911072,482
904.027344,474
904.143494,480
904.259705,477
904.375916,480
904.492065,456
904.608215,474
904.724426,474
904.840576,477
904.956726,468
905.072876,464
905.189087,449
905.305176,485
905.421387,473
905.537537,470
905.653687,461
905.769775,467
905.885925,457
906.002014,476
906.118164,474
906.234314,480
906.350403,476
906.466492,480
906.582642,454
906.69873,458
906.814758,456
906.930908,478
907.046936,483
907.163086,470
907.279175,472
907.395264,471
907.511353,485
907.62738,469
907.743408,491
907.859497,473
907.975525,458
908.091553,483
908.207703,460
908.32373,451
908.439758,466
908.555786,485
908.671814,486
908.787842,483
908.90387,461
909.019775,496
909.135864,473
909.251892,466
909.367859,495
909.483826,465
909.599854,487
909.715881,458
909.831848,486
909.947815,491
910.063782,476
910.179749,473
910.295776,463
910.411743,476
910.527649,480
910.643616,466
910.759583,460
910.875488,462
910.991455,472
911.107361,468
911.223267,479
911.339294,469
911.4552,454
911.571106,475
911.687073,470
911.802979,472
911.918823,455
912.034729,473
912.150635,483
912.266602,484
912.382446,450
912.498352,462
912.614197,464
912.730103,454
912.846008,475
