792.44574,821
792.56488,841
792.68396,834
792.80304,811
792.92218,733
793.041199,723
793.160339,729
793.279419,745
793.398499,717
793.517578,701
793.636658,685
793.755737,702
793.874817,715
793.993896,667
794.112976,651
794.232056,656
794.351074,676
794.470215,646
794.589233,651
794.708313,652
794.827393,650
794.946411,624
795.065552,638
795.18457,638
795.303589,607
795.422668,620
795.541687,635
795.660767,636
795.779846,582
795.898865,623
796.017883,606
796.136963,583
796.255981,603
796.375061,606
796.49408,590
796.613037,588
796.732117,621
796.851135,574
796.970154,592
797.089233,578
797.208191,556
797.327271,587
797.446228,588
797.565186,574
797.684265,564
797.803223,578
797.922241,595
798.04126,563
798.160278,597
798.279297,582
798.398315,559
798.517273,573
798.636292,572
798.75531,571
798.874268,556
798.993286,571
799.112244,569
799.231323,533
799.350281,573
799.469238,537
799.588257,565
799.707153,557
799.826111,571
799.945129,553
800.064087,558
800.183044,547
800.302063,565
800.421021,549
800.539978,544
800.658936,553
800.777893,579
800.896912,552
801.015747,534
801.134705,555
801.253723,535
801.37262,560
801.491638,539
801.610535,541
801.729492,554
801.84845,526
801.967407,563
802.086243,541
802.205261,542
802.324158,527
802.443115,542
802.562073,533
802.680969,560
802.799927,517
802.918762,529
803.037659,528
803.156677,530
803.275574,534
803.39447,553
803.513428,522
803.632263,544
803.751221,524
803.870117,550
803.989014,514
804.107971,518
804.226746,521
804.345642,538
804.4646,531
804.583496,545
804.702393,556
804.821228,542
804.940125,550
805.059021,532
805.177917,532
805.296814,540
805.415649,511
805.534546,507
805.653442,543
805.772278,508
805.891113,509
806.01001,523
806.128906,523
806.247742,536
806.366577,513
806.485413,545
806.604309,510
806.723145,544
806.84198,531
806.960876,511
807.079712,513
807.198486,521
807.317383,506
807.436218,524
807.554993,516
807.673889,533
807.792725,513
807.91156,532
808.030396,531
808.14917,522
808.268005,516
808.386841,524
808.505676,494
808.624451,528
808.743286,516
808.862122,518
808.980896,534
809.099731,518
809.218506,534
809.337341,508
809.456116,514
809.57489,515
809.693726,517
809.8125,516
809.931274,530
810.050049,519
810.168884,507
810.287659,522
810.406372,512
810.525269,506
810.643982,518
810.762756,524
810.881531,527
811.000305,523
811.11908,519
811.237854,515
811.356567,488
811.475403,530
811.594116,505
811.71283,530
811.831604,515
811.950378,525
812.069153,534
812.187927,526
812.30658,520
812.425415,521
812.544128,520
812.662781,528
812.781616,509
812.900269,506
813.019043,538
813.137756,511
813.256531,529
813.375244,525
813.493896,519
813.612671,541
813.731384,514
813.850037,529
813.96875,502
814.087524,497
814.206238,492
814.324951,531
814.443604,506
814.562256,527
814.68103,518
814.799683,495
814.918335,510
815.037109,519
815.155762,509
815.274475,516
815.393188,518
815.511841,518
815.630554,516
815.749146,508
815.867859,505
815.986572,516
816.105164,514
816.223877,487
816.342529,501
816.461182,507
816.579895,500
816.698486,517
816.817139,505
816.935791,506
817.054504,498
817.173096,529
817.291748,526
817.4104,511
817.529053,497
817.647644,496
817.766235,512
817.884949,496
818.00354,526
818.122192,504
818.240845,483
818.359436,516
818.478088,487
818.59668,489
818.715271,499
818.833923,486
818.952515,487
819.071106,494
819.189758,482
819.30835,485
819.426941,472
819.545532,467
819.664124,485
819.782715,508
819.901306,485
820.019897,485
820.138489,485
820.25708,516
820.375671,485
820.494202,510
820.612732,475
820.731384,473
820.849915,475
820.968506,476
821.087097,468
821.205627,484
821.324158,499
821.442749,462
821.561279,476
821.679871,501
821.798401,484
821.916931,487
822.035461,463
822.154053,476
822.272583,468
822.391174,495
822.509583,464
822.628174,467
822.746704,477
822.865234,476
822.983765,473
823.102295,485
823.220825,465
823.339294,459
823.457825,483
823.576355,494
823.694824,467
823.813354,473
823.931885,495
824.050354,480
824.168884,469
824.287354,499
824.405823,472
824.524353,469
824.642822,456
824.761353,488
824.879822,470
824.998291,484
825.116699,480
825.235291,476
825.353699,487
825.472168,481
825.590637,445
825.709106,478
825.827576,473
825.946045,470
826.064453,477
826.182983,453
826.301392,467
826.4198,464
826.53833,476
826.656738,487
826.775208,442
826.893677,455
827.012024,476
827.130493,451
827.248962,461
827.36731,486
827.485779,483
827.604248,474
827.722595,460
827.841064,472
827.959412,462
828.077942,457
828.196289,448
828.314636,477
828.433105,461
828.551514,464
828.669861,468
828.78833,470
828.906677,476
829.025085,463
829.143433,463
829.261841,456
829.38031,454
829.498657,468
829.617004,468
829.735413,473
829.85376,452
829.972107,447
830.090515,456
830.208862,468
830.327209,458
830.445557,468
830.563904,450
830.682312,478
830.800659,463
830.919006,459
831.037354,483
831.155701,464
831.274048,452
831.392395,463
831.51062,449
831.629028,469
831.747314,473
831.865662,472
831.984009,486
832.102356,468
832.220642,465
832.338928,460
832.457275,454
832.575623,464
832.693909,446
832.812134,475
832.930481,474
833.048828,475
833.167114,469
833.2854,476
833.403687,476
833.521973,462
833.640259,459
833.758545,467
833.876831,455
833.995056,473
834.113281,448
834.231628,457
834.349915,468
834.468201,457
834.586426,481
834.704651,471
834.822998,473
834.941162,465
835.059448,458
835.177673,491
835.295959,448
835.414246,467
835.53241,471
835.650635,466
835.768921,459
835.887146,453
836.005371,463
836.123596,450
836.241821,459
836.360046,478
836.478271,448
836.596497,477
836.714722,475
836.832886,457
836.95105,456
837.069336,481
837.1875,446
837.305725,475
837.423889,469
837.542053,485
837.660339,459
837.778503,464
837.896667,475
838.014832,474
838.132996,477
838.25116,464
838.369385,467
838.487488,465
838.605713,473
838.723877,476
838.84198,463
838.960205,474
839.078308,458
839.196472,465
839.314636,462
839.4328,489
839.550964,458
839.669067,481
839.787231,468
839.905396,476
840.023499,467
840.141602,488
840.259766,479
840.377869,486
840.495972,475
840.614136,494
840.732239,458
840.850342,487
840.968445,468
841.086548,473
841.204651,475
841.322754,486
841.440918,455
841.55896,496
841.677002,473
841.795166,493
841.913208,480
842.031311,485
842.149353,474
842.267456,490
842.385498,486
842.503601,464
842.621643,498
842.739746,480
842.857788,468
842.97583,474
843.093933,485
843.211975,479
843.330017,481
843.44812,486
843.566101,489
843.684204,468
843.802246,484
843.920227,452
844.038269,479
844.156311,485
844.274292,473
844.392395,466
844.510376,477
844.628357,487
844.74646,488
844.864441,485
844.982422,474
845.100403,479
845.218384,476
845.336426,479
845.454468,458
845.572449,482
845.69043,469
845.808411,464
845.926453,471
846.044373,478
846.162354,471
846.280396,492
846.398315,479
846.516296,471
846.634216,483
846.752197,482
846.870178,470
846.988098,486
847.106079,474
847.22406,469
847.34198,477
847.4599,460
847.577881,475
847.695801,480
847.813782,475
847.931641,484
848.049561,470
848.167603,469
848.285461,479
848.403381,482
848.521362,503
848.639221,494
848.75708,466
848.875,482
848.99292,493
849.110901,493
849.22876,496
849.34668,483
849.464539,469
849.582458,506
849.700317,481
849.818176,485
849.936096,471
850.053955,474
850.171875,475
850.289673,472
850.407593,482
850.525452,495
850.643311,474
850.761169,455
850.878967,464
850.996887,479
851.114746,471
851.232544,491
851.350403,462
851.468262,477
851.58606,454
851.703979,481
851.821777,486
851.939636,466
852.057434,465
852.175232,461
852.293091,478
852.410889,491
852.528687,493
852.646545,497
852.764343,481
852.88208,500
852.999939,484
853.117676,473
853.235535,486
853.353271,481
853.471069,479
853.588928,487
853.706604,471
853.824402,487
853.9422,462
854.059998,465
854.177734,483
854.295532,481
854.413269,466
854.531006,490
854.648804,453
854.766541,479
854.884277,465
855.002014,454
855.119751,474
855.237549,463
855.355225,483
855.473022,496
855.590698,490
855.708435,467
855.826172,454
855.943848,489
856.061646,465
856.179321,486
856.296997,465
856.414795,475
856.53241,484
856.650085,507
856.767822,472
856.885559,489
857.003174,487
857.120911,500
857.238586,472
857.356201,502
857.473938,477
857.591614,480
857.709351,468
857.826965,484
857.944641,477
858.062317,494
858.179993,494
858.297668,483
858.415283,492
858.532959,489
858.650574,471
858.768188,484
858.885803,503
859.003479,493
859.121094,476
859.23877,480
859.356384,496
859.473999,492
859.591675,481
859.709229,483
859.826843,459
859.944458,484
860.062012,477
860.179626,482
860.297302,472
860.414856,485
860.532471,471
860.650024,462
860.767639,479
860.885193,470
861.002808,476
861.120361,484
861.237976,498
861.35553,470
861.473022,472
861.590698,493
861.708191,469
861.825745,478
861.943298,468
862.060852,460
862.178406,482
862.295959,468
862.413513,465
862.531006,459
862.64856,450
862.766113,469
862.883667,468
863.00116,471
863.118713,475
863.236206,486
863.353699,482
863.471252,466
863.588745,445
863.706177,482
863.82373,469
863.941162,484
864.058716,494
864.176208,461
864.29364,479
864.411194,459
864.528687,460
864.646118,477
864.763611,469
864.881042,488
864.998535,467
865.116028,472
865.233459,484
865.350891,468
865.468384,472
865.585754,469
865.703308,481
865.820679,465
865.938171,460
866.055542,473
866.173035,470
866.290466,450
866.407837,451
866.52533,475
866.6427,467
866.760071,474
866.877563,487
866.994934,491
867.112305,470
867.229736,484
867.347107,476
867.464539,475
867.58197,479
867.699341,481
867.81665,470
867.934082,480
868.051453,459
868.168823,471
868.286194,451
868.403564,487
868.520935,470
868.638306,487
868.755676,481
868.872986,474
868.990295,486
869.107727,481
869.225037,445
869.342346,473
869.459717,471
869.577026,486
869.694336,491
869.811707,473
869.929016,467
870.046326,488
870.163635,469
870.280945,485
870.398254,498
870.515564,493
870.632812,472
870.750183,477
870.867432,481
870.984741,477
871.102051,481
871.219299,482
871.336609,503
871.453918,479
871.571106,481
871.688416,497
871.805664,493
871.922852,491
872.040222,494
872.157471,489
872.274719,504
872.391968,502
872.509155,501
872.626465,485
872.743652,483
872.860962,497
872.978149,502
873.095337,473
873.212646,469
873.329834,501
873.44696,483
873.564209,486
873.681396,486
873.798645,487
873.915894,505
874.03302,491
874.150208,493
874.267456,497
874.384583,490
874.501831,491
874.618958,501
874.736145,501
874.853333,507
874.970459,505
875.087646,504
875.204834,492
875.32196,504
875.439148,487
875.556274,475
875.673401,480
875.790527,479
875.907715,482
876.024841,483
876.141968,476
876.259094,481
876.376282,473
876.493347,467
876.610474,480
876.7276,484
876.844727,479
876.961853,501
877.078918,484
877.195984,480
877.313171,495
877.430237,486
877.547302,470
877.664368,487
877.781433,502
877.898499,468
878.015625,479
878.13269,475
878.249695,478
878.366821,468
878.483887,480
878.600952,469
878.717957,462
878.834961,471
878.952087,485
879.069092,489
879.186157,480
879.303162,478
879.420227,456
879.537231,464
879.654236,451
879.77124,485
879.888306,466
880.005249,465
880.122314,461
880.239319,473
880.356323,476
880.473328,467
880.590271,470
880.707275,462
880.824341,479
880.941284,476
881.058228,494
881.175232,446
881.292236,480
881.40918,464
881.526123,475
881.643066,474
881.760071,474
881.877014,467
881.993958,454
882.11084,452
882.227783,473
882.344727,482
882.46167,492
882.578613,456
882.695618,480
882.812439,481
882.929382,453
883.046326,487
883.163208,494
883.280151,467
883.397034,477
883.513916,481
883.630798,482
883.747742,469
883.864563,498
883.981506,482
884.098389,494
884.21521,476
884.332153,469
884.448975,482
884.565796,504
884.682678,490
884.7995,496
884.916443,518
885.033264,504
885.150085,518
885.266968,493
885.383789,509
885.500671,540
885.617493,517
885.734314,517
885.851196,520
885.967896,532
886.084717,524
886.201599,527
886.318359,513
886.435181,520
886.552002,503
886.668762,520
886.785645,512
886.902344,510
887.019165,510
887.135925,534
887.252747,495
887.369446,497
887.486267,505
887.603027,494
887.719788,477
887.836548,496
887.953247,487
888.070068,496
888.186829,478
888.303528,498
888.420288,469
888.536987,468
888.653687,454
888.770447,462
888.887146,465
889.003967,457
889.120667,456
889.237305,479
889.354065,490
889.470703,479
889.587463,470
889.704163,466
889.820862,479
889.937561,475
890.054199,468
890.170837,474
890.287598,458
890.404236,467
890.520874,461
890.637634,469
890.754211,456
890.87085,451
890.987549,478
891.104187,462
891.220886,486
891.337463,494
891.454102,467
891.57074,464
891.687378,468
891.804077,497
891.920654,476
892.037231,457
892.15387,481
892.270447,471
892.387085,491
892.503723,452
892.6203,462
892.736877,462
892.853516,450
892.970032,474
893.08667,462
893.203186,478
893.319763,469
893.43634,481
893.552917,464
893.669556,481
893.786011,461
893.902588,469
894.019165,470
894.135681,471
894.252197,464
894.368835,472
894.485291,447
894.601868,473
894.718384,453
894.8349,482
894.951355,473
895.067932,488
895.184448,462
895.300964,478
895.417419,445
895.533936,457
895.650452,465
895.766907,468
895.883423,458
895.999878,458
896.116333,446
896.232849,476
896.349304,470
896.465759,438
896.582214,469
896.698669,482
896.815125,471
896.931641,476
897.048035,457
897.164551,470
897.280884,462
897.397339,482
897.513794,447
897.630249,474
897.746582,458
897.863098,471
897.979431,464
898.095886,465
898.212341,463
898.328674,476
898.445129,473
898.561462,471
898.677795,479
898.794312,462
898.910645,470
899.026978,454
899.143433,469
899.259766,472
899.37616,478
899.492493,470
899.608765,458
899.725159,446
899.841553,482
899.957947,477
900.07428,465
900.190552,490
900.306946,459
900.423157,464
900.53949,476
900.655884,474
900.772156,467
900.888489,465
901.004822,469
901.121033,470
901.237366,468
901.353699,476
901.46991,479
901.586304,484
901.702515,475
901.818787,503
901.93512,470
902.051331,463
902.167603,481
902.283875,509
902.400085,485
902.516418,488
902.632629,485
902.74884,505
902.865112,508
902.981384,524
903.097595,490
903.213867,524
903.330017,478
903.446289,481
903.5625,502
903.67865,496
903.794922,524
903.911072,507
904.027344,517
904.143494,495
904.259705,491
904.375916,476
904.492065,479
904.608215,473
904.724426,491
904.840576,477
904.956726,461
905.072876,482
905.189087,476
905.305176,483
905.421387,474
905.537537,490
905.653687,482
905.769775,472
905.885925,471
906.002014,473
906.118164,472
906.234314,460
906.350403,470
906.466492,464
906.582642,467
906.69873,458
906.814758,491
906.930908,483
907.046936,463
907.163086,500
907.279175,466
907.395264,455
907.511353,457
907.62738,465
907.743408,460
907.859497,494
907.975525,444
908.091553,461
908.207703,463
908.32373,483
908.439758,464
908.555786,461
908.671814,486
908.787842,470
908.90387,485
909.019775,466
909.135864,470
909.251892,468
909.367859,450
909.483826,454
909.599854,470
909.715881,468
909.831848,435
909.947815,486
910.063782,454
910.179749,488
910.295776,460
910.411743,481
910.527649,476
910.643616,480
910.759583,456
910.875488,472
910.991455,448
911.107361,464
911.223267,458
911.339294,473
911.4552,466
911.571106,458
911.687073,478
911.802979,492
911.918823,459
912.034729,475
912.150635,473
912.266602,484
912.382446,475
912.498352,474
912.614197,477
912.730103,474
912.846008,471
792.44574,820
792.56488,839
792.68396,838
792.80304,829
792.92218,779
793.041199,722
793.160339,731
793.279419,759
793.398499,719
793.517578,690
793.636658,696
793.755737,711
793.874817,710
793.993896,695
794.112976,678
794.232056,681
794.351074,676
794.470215,653
794.589233,670
794.708313,653
794.827393,660
794.946411,617
795.065552,658
795.18457,625
795.303589,639
795.422668,618
795.541687,625
795.660767,613
795.779846,616
795.898865,612
796.017883,624
796.136963,620
796.255981,607
796.375061,591
796.49408,597
796.613037,593
796.732117,584
796.851135,585
796.970154,582
797.089233,590
797.208191,579
797.327271,580
797.446228,574
797.565186,589
797.684265,559
797.803223,575
797.922241,593
798.04126,568
798.160278,568
798.279297,578
798.398315,558
798.517273,568
798.636292,579
798.75531,556
798.874268,562
798.993286,578
799.112244,544
799.231323,556
799.350281,571
799.469238,555
799.588257,566
799.707153,548
799.826111,561
799.945129,549
800.064087,554
800.183044,567
800.302063,557
800.421021,533
800.539978,553
800.658936,556
800.777893,543
800.896912,543
801.015747,544
801.134705,542
801.253723,584
801.37262,533
801.491638,549
801.610535,531
801.729492,550
801.84845,543
801.967407,543
802.086243,539
802.205261,530
802.324158,531
802.443115,564
802.562073,543
802.680969,524
802.799927,547
802.918762,560
803.037659,523
803.156677,550
803.275574,556
803.39447,550
803.513428,543
803.632263,542
803.751221,547
803.870117,538
803.989014,513
804.107971,530
804.226746,520
804.345642,529
804.4646,541
804.583496,551
804.702393,534
804.821228,514
804.940125,533
805.059021,528
805.177917,531
805.296814,526
805.415649,531
805.534546,526
805.653442,526
805.772278,556
805.891113,527
806.01001,528
806.128906,529
806.247742,497
806.366577,534
806.485413,516
806.604309,518
806.723145,526
806.84198,534
806.960876,532
807.079712,516
807.198486,518
807.317383,533
807.436218,511
807.554993,522
807.673889,524
807.792725,521
807.91156,515
808.030396,522
808.14917,526
808.268005,518
808.386841,527
808.505676,518
808.624451,526
808.743286,523
808.862122,535
808.980896,513
809.099731,506
809.218506,515
809.337341,534
809.456116,531
809.57489,515
809.693726,516
809.8125,522
809.931274,511
810.050049,543
810.168884,498
810.287659,522
810.406372,503
810.525269,501
810.643982,518
810.762756,528
810.881531,514
811.000305,521
811.11908,512
811.237854,534
811.356567,508
811.475403,513
811.594116,530
811.71283,535
811.831604,519
811.950378,533
812.069153,530
812.187927,526
812.30658,514
812.425415,538
812.544128,519
812.662781,507
812.781616,530
812.900269,520
813.019043,492
813.137756,538
813.256531,513
813.375244,522
813.493896,514
813.612671,520
813.731384,496
813.850037,498
813.96875,522
814.087524,507
814.206238,507
814.324951,517
814.443604,523
814.562256,505
814.68103,499
814.799683,512
814.918335,522
815.037109,513
815.155762,507
815.274475,516
815.393188,537
815.511841,504
815.630554,506
815.749146,506
815.867859,482
815.986572,529
816.105164,504
816.223877,529
816.342529,511
816.461182,517
816.579895,520
816.698486,499
816.817139,531
816.935791,512
817.054504,505
817.173096,508
817.291748,508
817.4104,505
817.529053,489
817.647644,532
817.766235,510
817.884949,510
818.00354,507
818.122192,506
818.240845,475
818.359436,518
818.478088,513
818.59668,511
818.715271,491
818.833923,515
818.952515,483
819.071106,484
819.189758,477
819.30835,485
819.426941,471
819.545532,473
819.664124,472
819.782715,465
819.901306,478
820.019897,480
820.138489,475
820.25708,493
820.375671,469
820.494202,481
820.612732,495
820.731384,498
820.849915,482
820.968506,493
821.087097,484
821.205627,482
821.324158,460
821.442749,486
821.561279,457
821.679871,474
821.798401,478
821.916931,474
822.035461,493
822.154053,483
822.272583,467
822.391174,451
822.509583,489
822.628174,467
822.746704,485
822.865234,476
822.983765,493
823.102295,497
823.220825,483
823.339294,461
823.457825,476
823.576355,448
823.694824,474
823.813354,462
823.931885,469
824.050354,471
824.168884,475
824.287354,479
824.405823,490
824.524353,459
824.642822,490
824.761353,470
824.879822,455
824.998291,483
825.116699,485
825.235291,470
825.353699,489
825.472168,469
825.590637,478
825.709106,487
825.827576,471
825.946045,463
826.064453,471
826.182983,470
826.301392,478
826.4198,458
826.53833,457
826.656738,461
826.775208,449
826.893677,471
827.012024,456
827.130493,460
827.248962,469
827.36731,470
827.485779,468
827.604248,493
827.722595,470
827.841064,463
827.959412,465
828.077942,453
828.196289,471
828.314636,457
828.433105,473
828.551514,468
828.669861,467
828.78833,464
828.906677,480
829.025085,466
829.143433,436
829.261841,460
829.38031,470
829.498657,468
829.617004,461
829.735413,475
829.85376,468
829.972107,486
830.090515,461
830.208862,480
830.327209,472
830.445557,468
830.563904,469
830.682312,468
830.800659,469
830.919006,484
831.037354,453
831.155701,451
831.274048,482
831.392395,474
831.51062,473
831.629028,469
831.747314,444
831.865662,450
831.984009,487
832.102356,463
832.220642,477
832.338928,465
832.457275,482
832.575623,488
832.693909,467
832.812134,478
832.930481,462
833.048828,490
833.167114,473
833.2854,479
833.403687,459
833.521973,461
833.640259,476
833.758545,476
833.876831,468
833.995056,476
834.113281,482
834.231628,487
834.349915,474
834.468201,469
834.586426,456
834.704651,485
834.822998,464
834.941162,456
835.059448,468
835.177673,459
835.295959,481
835.414246,481
835.53241,459
835.650635,481
835.768921,467
835.887146,483
836.005371,483
836.123596,459
836.241821,452
836.360046,455
836.478271,456
836.596497,465
836.714722,490
836.832886,454
836.95105,467
837.069336,467
837.1875,491
837.305725,471
837.423889,480
837.542053,485
837.660339,474
837.778503,481
837.896667,459
838.014832,470
838.132996,473
838.25116,477
838.369385,459
838.487488,455
838.605713,476
838.723877,466
838.84198,458
838.960205,465
839.078308,480
839.196472,469
839.314636,476
839.4328,460
839.550964,467
839.669067,471
839.787231,474
839.905396,467
840.023499,500
840.141602,477
840.259766,486
840.377869,491
840.495972,482
840.614136,468
840.732239,490
840.850342,467
840.968445,473
841.086548,498
841.204651,493
841.322754,473
841.440918,500
841.55896,470
841.677002,479
841.795166,474
841.913208,472
842.031311,487
842.149353,480
842.267456,492
842.385498,456
842.503601,491
842.621643,481
842.739746,484
842.857788,473
842.97583,499
843.093933,488
843.211975,476
843.330017,477
843.44812,479
843.566101,473
843.684204,485
843.802246,482
843.920227,487
844.038269,480
844.156311,487
844.274292,474
844.392395,477
844.510376,486
844.628357,471
844.74646,480
844.864441,492
844.982422,470
845.100403,482
845.218384,467
845.336426,466
845.454468,492
845.572449,479
845.69043,476
845.808411,455
845.926453,458
846.044373,471
846.162354,490
846.280396,485
846.398315,474
846.516296,478
846.634216,465
846.752197,486
846.870178,507
846.988098,469
847.106079,494
847.22406,484
847.34198,478
847.4599,475
847.577881,474
847.695801,467
847.813782,492
847.931641,488
848.049561,483
848.167603,487
848.285461,501
848.403381,459
848.521362,481
848.639221,490
848.75708,490
848.875,473
848.99292,505
849.110901,486
849.22876,472
849.34668,466
849.464539,508
849.582458,485
849.700317,463
849.818176,471
849.936096,487
850.053955,476
850.171875,482
850.289673,455
850.407593,483
850.525452,482
850.643311,467
850.761169,488
850.878967,469
850.996887,489
851.114746,471
851.232544,474
851.350403,481
851.468262,472
851.58606,511
851.703979,477
851.821777,485
851.939636,474
852.057434,497
852.175232,470
852.293091,482
852.410889,480
852.528687,500
852.646545,483
852.764343,506
852.88208,489
852.999939,479
853.117676,515
853.235535,472
853.353271,480
853.471069,488
853.588928,481
853.706604,471
853.824402,490
853.9422,489
854.059998,461
854.177734,478
854.295532,484
854.413269,480
854.531006,477
854.648804,475
854.766541,492
854.884277,480
855.002014,472
855.119751,480
855.237549,469
855.355225,490
855.473022,473
855.590698,497
855.708435,496
855.826172,479
855.943848,491
856.061646,468
856.179321,470
856.296997,472
856.414795,493
856.53241,476
856.650085,490
856.767822,489
856.885559,501
857.003174,494
857.120911,482
857.238586,473
857.356201,510
857.473938,514
857.591614,480
857.709351,504
857.826965,476
857.944641,499
858.062317,480
858.179993,461
858.297668,498
858.415283,476
858.532959,485
858.650574,493
858.768188,483
858.885803,499
859.003479,509
859.121094,505
859.23877,484
859.356384,487
859.473999,471
859.591675,478
859.709229,509
859.826843,484
859.944458,482
860.062012,482
860.179626,468
860.297302,488
860.414856,467
860.532471,473
860.650024,458
860.767639,470
860.885193,483
861.002808,489
861.120361,475
861.237976,463
861.35553,474
861.473022,468
861.590698,466
861.708191,480
861.825745,482
861.943298,474
862.060852,492
862.178406,471
862.295959,451
862.413513,470
862.531006,466
862.64856,2213
862.766113,537
862.883667,458
863.00116,459
863.118713,491
863.236206,460
863.353699,478
863.471252,480
863.588745,459
863.706177,472
863.82373,471
863.941162,495
864.058716,489
864.176208,472
864.29364,475
864.411194,478
864.528687,472
864.646118,459
864.763611,475
864.881042,463
864.998535,464
865.116028,464
865.233459,495
865.350891,468
865.468384,455
865.585754,475
865.703308,481
865.820679,460
865.938171,478
866.055542,473
866.173035,466
866.290466,459
866.407837,473
866.52533,474
866.6427,478
866.760071,484
866.877563,465
866.994934,459
867.112305,466
867.229736,477
867.347107,485
867.464539,474
867.58197,483
867.699341,469
867.81665,460
867.934082,474
868.051453,469
868.168823,479
868.286194,508
868.403564,455
868.520935,491
868.638306,484
868.755676,448
868.872986,479
868.990295,480
869.107727,471
869.225037,495
869.342346,471
869.459717,483
869.577026,492
869.694336,497
869.811707,495
869.929016,491
870.046326,494
870.163635,492
870.280945,486
870.398254,486
870.515564,492
870.632812,500
870.750183,468
870.867432,479
870.984741,489
871.102051,493
871.219299,493
871.336609,493
871.453918,497
871.571106,496
871.688416,499
871.805664,489
871.922852,502
872.040222,502
872.157471,493
872.274719,488
872.391968,487
872.509155,487
872.626465,505
872.743652,502
872.860962,477
872.978149,489
873.095337,474
873.212646,518
873.329834,490
873.44696,478
873.564209,473
873.681396,487
873.798645,494
873.915894,502
874.03302,473
874.150208,491
874.267456,514
874.384583,509
874.501831,504
874.618958,513
874.736145,488
874.853333,516
874.970459,506
875.087646,480
875.204834,503
875.32196,505
875.439148,480
875.556274,496
875.673401,494
875.790527,484
875.907715,496
876.024841,488
876.141968,478
876.259094,475
876.376282,483
876.493347,490
876.610474,487
876.7276,511
876.844727,474
876.961853,475
877.078918,488
877.195984,459
877.313171,488
877.430237,468
877.547302,478
877.664368,476
877.781433,488
877.898499,492
878.015625,472
878.13269,462
878.249695,475
878.366821,457
878.483887,468
878.600952,482
878.717957,461
878.834961,493
878.952087,455
879.069092,464
879.186157,455
879.303162,480
879.420227,474
879.537231,464
879.654236,471
879.77124,489
879.888306,486
880.005249,478
880.122314,461
880.239319,479
880.356323,473
880.473328,471
880.590271,464
880.707275,473
880.824341,461
880.941284,484
881.058228,466
881.175232,470
881.292236,466
881.40918,472
881.526123,467
881.643066,469
881.760071,474
881.877014,490
881.993958,462
882.11084,456
882.227783,471
882.344727,459
882.46167,455
882.578613,457
882.695618,464
882.812439,472
882.929382,454
883.046326,481
883.163208,483
883.280151,475
883.397034,468
883.513916,468
883.630798,488
883.747742,479
883.864563,481
883.981506,471
884.098389,466
884.21521,484
884.332153,483
884.448975,485
884.565796,467
884.682678,479
884.7995,484
884.916443,496
885.033264,525
885.150085,525
885.266968,512
885.383789,508
885.500671,529
885.617493,517
885.734314,499
885.851196,515
885.967896,539
886.084717,512
886.201599,529
886.318359,530
886.435181,518
886.552002,514
886.668762,517
886.785645,529
886.902344,512
887.019165,530
887.135925,504
887.252747,508
887.369446,495
887.486267,492
887.603027,503
887.719788,500
887.836548,479
887.953247,507
888.070068,485
888.186829,476
888.303528,479
888.420288,480
888.536987,475
888.653687,475
888.770447,481
888.887146,477
889.003967,473
889.120667,445
889.237305,432
889.354065,450
889.470703,475
889.587463,476
889.704163,469
889.820862,479
889.937561,469
890.054199,465
890.170837,466
890.287598,482
890.404236,450
890.520874,455
890.637634,466
890.754211,467
890.87085,474
890.987549,484
891.104187,467
891.220886,459
891.337463,489
891.454102,472
891.57074,458
891.687378,484
891.804077,470
891.920654,447
892.037231,462
892.15387,477
892.270447,455
892.387085,475
892.503723,464
892.6203,474
892.736877,478
892.853516,464
892.970032,467
893.08667,463
893.203186,474
893.319763,470
893.43634,470
893.552917,479
893.669556,463
893.786011,475
893.902588,493
894.019165,481
894.135681,449
894.252197,468
894.368835,469
894.485291,470
894.601868,466
894.718384,470
894.8349,480
894.951355,471
895.067932,468
895.184448,468
895.300964,457
895.417419,454
895.533936,477
895.650452,482
895.766907,456
895.883423,461
895.999878,452
896.116333,486
896.232849,457
896.349304,444
896.465759,466
896.582214,470
896.698669,461
896.815125,474
896.931641,466
897.048035,465
897.164551,480
897.280884,468
897.397339,481
897.513794,470
897.630249,460
897.746582,487
897.863098,462
897.979431,474
898.095886,474
898.212341,465
898.328674,487
898.445129,459
898.561462,469
898.677795,495
898.794312,453
898.910645,478
899.026978,467
899.143433,454
899.259766,471
899.37616,479
899.492493,474
899.608765,455
899.725159,484
899.841553,475
899.957947,480
900.07428,485
900.190552,486
900.306946,462
900.423157,472
900.53949,477
900.655884,473
900.772156,481
900.888489,477
901.004822,471
901.121033,466
901.237366,473
901.353699,481
901.46991,485
901.586304,486
901.702515,461
901.818787,486
901.93512,484
902.051331,498
902.167603,483
902.283875,492
902.400085,487
902.516418,488
902.632629,483
902.74884,522
902.865112,521
902.981384,497
903.097595,508
903.213867,501
903.330017,500
903.446289,496
903.5625,495
903.67865,506
903.794922,503
903.911072,474
904.027344,481
904.143494,495
904.259705,488
904.375916,469
904.492065,477
904.608215,483
904.724426,498
904.840576,476
904.956726,483
905.072876,491
905.189087,489
905.305176,487
905.421387,480
905.537537,480
905.653687,481
905.769775,493
905.885925,503
906.002014,493
906.118164,477
906.234314,484
906.350403,477
906.466492,484
906.582642,469
906.69873,488
906.814758,501
906.930908,469
907.046936,491
907.163086,463
907.279175,467
907.395264,473
907.511353,458
907.62738,481
907.743408,473
907.859497,483
907.975525,472
908.091553,473
908.207703,473
908.32373,481
908.439758,486
908.555786,463
908.671814,472
908.787842,464
908.90387,489
909.019775,456
909.135864,472
909.251892,474
909.367859,471
909.483826,459
909.599854,495
909.715881,468
909.831848,491
909.947815,488
910.063782,477
910.179749,473
910.295776,477
910.411743,463
910.527649,489
910.643616,483
910.759583,472
910.875488,482
910.991455,477
911.107361,474
911.223267,478
911.339294,482
911.4552,486
911.571106,490
911.687073,474
911.802979,464
911.918823,447
912.034729,478
912.150635,470
912.266602,490
912.382446,470
912.498352,468
912.614197,470
912.730103,460
912.846008,481
792.44574,787
792.56488,831
792.68396,878
792.80304,806
792.92218,784
793.041199,702
793.160339,725
793.279419,738
793.398499,714
793.517578,682
793.636658,697
793.755737,699
793.874817,712
793.993896,688
794.112976,697
794.232056,648
794.351074,653
794.470215,679
794.589233,658
794.708313,653
794.827393,630
794.946411,648
795.065552,632
795.18457,627
795.303589,629
795.422668,635
795.541687,625
795.660767,601
795.779846,625
795.898865,601
796.017883,615
796.136963,602
796.255981,616
796.375061,623
796.49408,599
796.613037,619
796.732117,582
796.851135,574
796.970154,605
797.089233,588
797.208191,575
797.327271,560
797.446228,568
797.565186,582
797.684265,545
797.803223,545
797.922241,571
798.04126,544
798.160278,559
798.279297,556
798.398315,557
798.517273,542
798.636292,570
798.75531,556
798.874268,557
798.993286,554
799.112244,560
799.231323,566
799.350281,563
799.469238,568
799.588257,580
799.707153,561
799.826111,552
799.945129,562
800.064087,552
800.183044,532
800.302063,533
800.421021,546
800.539978,555
800.658936,532
800.777893,574
800.896912,553
801.015747,547
801.134705,562
801.253723,566
801.37262,542
801.491638,569
801.610535,530
801.729492,537
801.84845,538
801.967407,549
802.086243,524
802.205261,547
802.324158,532
802.443115,550
802.562073,539
802.680969,547
802.799927,533
802.918762,528
803.037659,536
803.156677,548
803.275574,541
803.39447,517
803.513428,531
803.632263,542
803.751221,533
803.870117,536
803.989014,543
804.107971,531
804.226746,541
804.345642,529
804.4646,526
804.583496,555
804.702393,540
804.821228,537
804.940125,522
805.059021,528
805.177917,532
805.296814,523
805.415649,527
805.534546,528
805.653442,527
805.772278,512
805.891113,522
806.01001,544
806.128906,518
806.247742,535
806.366577,516
806.485413,533
806.604309,516
806.723145,537
806.84198,529
806.960876,525
807.079712,533
807.198486,534
807.317383,513
807.436218,520
807.554993,516
807.673889,510
807.792725,522
807.91156,519
808.030396,534
808.14917,497
808.268005,539
808.386841,527
808.505676,536
808.624451,515
808.743286,522
808.862122,552
808.980896,501
809.099731,516
809.218506,522
809.337341,528
809.456116,510
809.57489,527
809.693726,502
809.8125,524
809.931274,529
810.050049,509
810.168884,527
810.287659,526
810.406372,532
810.525269,506
810.643982,530
810.762756,531
810.881531,530
811.000305,550
811.11908,506
811.237854,512
811.356567,516
811.475403,504
811.594116,519
811.71283,532
811.831604,514
811.950378,514
812.069153,537
812.187927,521
812.30658,520
812.425415,516
812.544128,505
812.662781,518
812.781616,495
812.900269,533
813.019043,510
813.137756,535
813.256531,505
813.375244,532
813.493896,528
813.612671,519
813.731384,527
813.850037,515
813.96875,508
814.087524,523
814.206238,505
814.324951,514
814.443604,510
814.562256,512
814.68103,484
814.799683,491
814.918335,523
815.037109,517
815.155762,509
815.274475,511
815.393188,501
815.511841,512
815.630554,535
815.749146,513
815.867859,507
815.986572,513
816.105164,488
816.223877,516
816.342529,534
816.461182,513
816.579895,497
816.698486,514
816.817139,515
816.935791,511
817.054504,521
817.173096,507
817.291748,500
817.4104,521
817.529053,501
817.647644,518
817.766235,493
817.884949,525
818.00354,488
818.122192,508
818.240845,502
818.359436,488
818.478088,489
818.59668,479
818.715271,506
818.833923,476
818.952515,506
819.071106,492
819.189758,475
819.30835,469
819.426941,470
819.545532,502
819.664124,497
819.782715,487
819.901306,468
820.019897,502
820.138489,487
820.25708,478
820.375671,491
820.494202,483
820.612732,493
820.731384,489
820.849915,487
820.968506,470
821.087097,480
821.205627,488
821.324158,485
821.442749,484
821.561279,479
821.679871,484
821.798401,482
821.916931,471
822.035461,482
822.154053,485
822.272583,477
822.391174,466
822.509583,481
822.628174,483
822.746704,475
822.865234,472
822.983765,470
823.102295,489
823.220825,468
823.339294,474
823.457825,477
823.576355,492
823.694824,467
823.813354,494
823.931885,482
824.050354,467
824.168884,482
824.287354,491
824.405823,483
824.524353,472
824.642822,481
824.761353,462
824.879822,461
824.998291,481
825.116699,482
825.235291,482
825.353699,470
825.472168,487
825.590637,471
825.709106,460
825.827576,462
825.946045,481
826.064453,470
826.182983,471
826.301392,449
826.4198,456
826.53833,467
826.656738,459
826.775208,475
826.893677,466
827.012024,482
827.130493,449
827.248962,464
827.36731,459
827.485779,478
827.604248,480
827.722595,472
827.841064,461
827.959412,442
828.077942,471
828.196289,466
828.314636,470
828.433105,460
828.551514,464
828.669861,467
828.78833,489
828.906677,456
829.025085,460
829.143433,477
829.261841,464
829.38031,452
829.498657,453
829.617004,450
829.735413,476
829.85376,475
829.972107,473
830.090515,448
830.208862,446
830.327209,462
830.445557,482
830.563904,448
830.682312,454
830.800659,472
830.919006,466
831.037354,465
831.155701,466
831.274048,453
831.392395,492
831.51062,464
831.629028,471
831.747314,470
831.865662,472
831.984009,471
832.102356,474
832.220642,490
832.338928,474
832.457275,476
832.575623,469
832.693909,459
832.812134,484
832.930481,466
833.048828,479
833.167114,464
833.2854,468
833.403687,469
833.521973,494
833.640259,468
833.758545,471
833.876831,472
833.995056,483
834.113281,470
834.231628,469
834.349915,472
834.468201,460
834.586426,459
834.704651,466
834.822998,486
834.941162,468
835.059448,462
835.177673,487
835.295959,468
835.414246,482
835.53241,472
835.650635,456
835.768921,474
835.887146,475
836.005371,472
836.123596,479
836.241821,458
836.360046,474
836.478271,468
836.596497,472
836.714722,475
836.832886,472
836.95105,462
837.069336,456
837.1875,487
837.305725,467
837.423889,462
837.542053,462
837.660339,469
837.778503,466
837.896667,465
838.014832,453
838.132996,462
838.25116,484
838.369385,461
838.487488,476
838.605713,465
838.723877,473
838.84198,473
838.960205,458
839.078308,474
839.196472,482
839.314636,475
839.4328,454
839.550964,470
839.669067,485
839.787231,479
839.905396,491
840.023499,469
840.141602,470
840.259766,465
840.377869,477
840.495972,476
840.614136,503
840.732239,480
840.850342,491
840.968445,485
841.086548,483
841.204651,475
841.322754,476
841.440918,503
841.55896,470
841.677002,490
841.795166,500
841.913208,483
842.031311,487
842.149353,474
842.267456,504
842.385498,481
842.503601,479
842.621643,469
842.739746,487
842.857788,488
842.97583,459
843.093933,512
843.211975,498
843.330017,480
843.44812,485
843.566101,477
843.684204,497
843.802246,473
843.920227,477
844.038269,492
844.156311,489
844.274292,473
844.392395,509
844.510376,499
844.628357,487
844.74646,456
844.864441,472
844.982422,488
845.100403,473
845.218384,489
845.336426,484
845.454468,488
845.572449,484
845.69043,492
845.808411,477
845.926453,481
846.044373,482
846.162354,465
846.280396,474
846.398315,473
846.516296,467
846.634216,464
846.752197,473
846.870178,463
846.988098,475
847.106079,470
847.22406,482
847.34198,495
847.4599,495
847.577881,472
847.695801,470
847.813782,467
847.931641,484
848.049561,485
848.167603,500
848.285461,468
848.403381,493
848.521362,481
848.639221,480
848.75708,472
848.875,488
848.99292,507
849.110901,474
849.22876,500
849.34668,484
849.464539,461
849.582458,495
849.700317,488
849.818176,479
849.936096,478
850.053955,480
850.171875,483
850.289673,485
850.407593,485
850.525452,502
850.643311,487
850.761169,482
850.878967,492
850.996887,480
851.114746,463
851.232544,496
851.350403,468
851.468262,484
851.58606,478
851.703979,472
851.821777,485
851.939636,488
852.057434,480
852.175232,497
852.293091,465
852.410889,498
852.528687,502
852.646545,496
852.764343,479
852.88208,477
852.999939,492
853.117676,473
853.235535,492
853.353271,462
853.471069,494
853.588928,476
853.706604,485
853.824402,465
853.9422,479
854.059998,496
854.177734,480
854.295532,471
854.413269,469
854.531006,480
854.648804,459
854.766541,508
854.884277,483
855.002014,489
855.119751,495
855.237549,465
855.355225,470
855.473022,478
855.590698,474
855.708435,484
855.826172,485
855.943848,485
856.061646,473
856.179321,457
856.296997,466
856.414795,496
856.53241,481
856.650085,482
856.767822,497
856.885559,487
857.003174,500
857.120911,500
857.238586,461
857.356201,497
857.473938,493
857.591614,503
857.709351,488
857.826965,500
857.944641,480
858.062317,492
858.179993,493
858.297668,483
858.415283,488
858.532959,480
858.650574,464
858.768188,493
858.885803,480
859.003479,467
859.121094,477
859.23877,493
859.356384,511
859.473999,500
859.591675,460
859.709229,477
859.826843,460
859.944458,476
860.062012,464
860.179626,467
860.297302,481
860.414856,458
860.532471,472
860.650024,483
860.767639,466
860.885193,481
861.002808,469
861.120361,465
861.237976,464
861.35553,494
861.473022,474
861.590698,496
861.708191,490
861.825745,466
861.943298,480
862.060852,474
862.178406,493
862.295959,481
862.413513,450
862.531006,462
862.64856,484
862.766113,488
862.883667,460
863.00116,479
863.118713,478
863.236206,470
863.353699,461
863.471252,480
863.588745,478
863.706177,474
863.82373,487
863.941162,474
864.058716,472
864.176208,462
864.29364,494
864.411194,488
864.528687,468
864.646118,466
864.763611,452
864.881042,471
864.998535,472
865.116028,485
865.233459,478
865.350891,459
865.468384,482
865.585754,468
865.703308,470
865.820679,462
865.938171,476
866.055542,488
866.173035,471
866.290466,479
866.407837,462
866.52533,485
866.6427,478
866.760071,473
866.877563,475
866.994934,493
867.112305,471
867.229736,476
867.347107,485
867.464539,492
867.58197,481
867.699341,489
867.81665,473
867.934082,475
868.051453,476
868.168823,467
868.286194,473
868.403564,494
868.520935,484
868.638306,461
868.755676,487
868.872986,476
868.990295,496
869.107727,472
869.225037,467
869.342346,490
869.459717,480
869.577026,493
869.694336,489
869.811707,469
869.929016,480
870.046326,484
870.163635,495
870.280945,472
870.398254,491
870.515564,478
870.632812,485
870.750183,511
870.867432,485
870.984741,502
871.102051,476
871.219299,505
871.336609,513
871.453918,498
871.571106,496
871.688416,492
871.805664,495
871.922852,483
872.040222,505
872.157471,505
872.274719,511
872.391968,480
872.509155,494
872.626465,500
872.743652,491
872.860962,521
872.978149,489
873.095337,492
873.212646,464
873.329834,498
873.44696,481
873.564209,492
873.681396,489
873.798645,495
873.915894,466
874.03302,481
874.150208,485
874.267456,484
874.384583,473
874.501831,490
874.618958,491
874.736145,503
874.853333,499
874.970459,502
875.087646,501
875.204834,495
875.32196,491
875.439148,502
875.556274,491
875.673401,503
875.790527,476
875.907715,503
876.024841,494
876.141968,489
876.259094,482
876.376282,492
876.493347,491
876.610474,476
876.7276,479
876.844727,482
876.961853,483
877.078918,489
877.195984,496
877.313171,496
877.430237,478
877.547302,504
877.664368,478
877.781433,464
877.898499,482
878.015625,485
878.13269,476
878.249695,492
878.366821,465
878.483887,475
878.600952,492
878.717957,486
878.834961,488
878.952087,475
879.069092,475
879.186157,483
879.303162,473
879.420227,479
879.537231,456
879.654236,475
879.77124,482
879.888306,487
880.005249,472
880.122314,482
880.239319,467
880.356323,475
880.473328,468
880.590271,466
880.707275,464
880.824341,482
880.941284,469
881.058228,473
881.175232,478
881.292236,486
881.40918,482
881.526123,458
881.643066,479
881.760071,463
881.877014,463
881.993958,466
882.11084,476
882.227783,478
882.344727,462
882.46167,488
882.578613,460
882.695618,466
882.812439,462
882.929382,475
883.046326,461
883.163208,468
883.280151,452
883.397034,456
883.513916,497
883.630798,483
883.747742,485
883.864563,479
883.981506,476
884.098389,478
884.21521,469
884.332153,480
884.448975,488
884.565796,514
884.682678,492
884.7995,491
884.916443,509
885.033264,502
885.150085,505
885.266968,519
885.383789,539
885.500671,538
885.617493,516
885.734314,536
885.851196,533
885.967896,522
886.084717,508
886.201599,499
886.318359,539
886.435181,516
886.552002,524
886.668762,522
886.785645,497
886.902344,495
887.019165,502
887.135925,506
887.252747,510
887.369446,495
887.486267,502
887.603027,506
887.719788,478
887.836548,494
887.953247,489
888.070068,480
888.186829,478
888.303528,495
888.420288,493
888.536987,484
888.653687,468
888.770447,484
888.887146,473
889.003967,475
889.120667,456
889.237305,485
889.354065,483
889.470703,460
889.587463,459
889.704163,484
889.820862,468
889.937561,482
890.054199,454
890.170837,473
890.287598,456
890.404236,470
890.520874,2541
890.637634,440
890.754211,463
890.87085,451
890.987549,486
891.104187,455
891.220886,462
891.337463,486
891.454102,465
891.57074,482
891.687378,467
891.804077,475
891.920654,461
892.037231,483
892.15387,475
892.270447,463
892.387085,462
892.503723,480
892.6203,478
892.736877,477
892.853516,475
892.970032,469
893.08667,484
893.203186,486
893.319763,448
893.43634,474
893.552917,454
893.669556,471
893.786011,461
893.902588,458
894.019165,480
894.135681,496
894.252197,492
894.368835,477
894.485291,479
894.601868,490
894.718384,466
894.8349,459
894.951355,466
895.067932,483
895.184448,452
895.300964,478
895.417419,470
895.533936,472
895.650452,467
895.766907,471
895.883423,468
895.999878,480
896.116333,482
896.232849,480
896.349304,468
896.465759,449
896.582214,471
896.698669,477
896.815125,476
896.931641,480
897.048035,459
897.164551,465
897.280884,489
897.397339,493
897.513794,468
897.630249,465
897.746582,463
897.863098,463
897.979431,470
898.095886,482
898.212341,470
898.328674,481
898.445129,465
898.561462,482
898.677795,481
898.794312,475
898.910645,480
899.026978,480
899.143433,462
899.259766,468
899.37616,457
899.492493,470
899.608765,463
899.725159,495
899.841553,480
899.957947,462
900.07428,489
900.190552,491
900.306946,481
900.423157,478
900.53949,453
900.655884,483
900.772156,465
900.888489,470
901.004822,459
901.121033,473
901.237366,459
901.353699,473
901.46991,488
901.586304,488
901.702515,473
901.818787,487
901.93512,493
902.051331,487
902.167603,506
902.283875,487
902.400085,484
902.516418,513
902.632629,478
902.74884,504
902.865112,515
902.981384,507
903.097595,490
903.213867,494
903.330017,498
903.446289,495
903.5625,499
903.67865,503
903.794922,488
903.911072,499
904.027344,490
904.143494,476
904.259705,483
904.375916,479
904.492065,486
904.608215,490
904.724426,469
904.840576,485
904.956726,504
905.072876,499
905.189087,467
905.305176,488
905.421387,493
905.537537,489
905.653687,464
905.769775,494
905.885925,479
906.002014,500
906.118164,466
906.234314,491
906.350403,482
906.466492,488
906.582642,476
906.69873,488
906.814758,471
906.930908,479
907.046936,472
907.163086,489
907.279175,474
907.395264,468
907.511353,469
907.62738,455
907.743408,480
907.859497,482
907.975525,471
908.091553,463
908.207703,482
908.32373,485
908.439758,473
908.555786,483
908.671814,454
908.787842,455
908.90387,450
909.019775,486
909.135864,462
909.251892,472
909.367859,462
909.483826,489
909.599854,478
909.715881,473
909.831848,474
909.947815,468
910.063782,472
910.179749,472
910.295776,479
910.411743,482
910.527649,480
910.643616,482
910.759583,484
910.875488,467
910.991455,476
911.107361,482
911.223267,475
911.339294,479
911.4552,491
911.571106,475
911.687073,471
911.802979,470
911.918823,458
912.034729,466
912.150635,468
912.266602,494
912.382446,448
912.498352,463
912.614197,483
912.730103,480
912.846008,458
