792.44574,541
792.56488,536
792.68396,587
792.80304,581
792.92218,542
793.041199,514
793.160339,518
793.279419,527
793.398499,511
793.517578,503
793.636658,504
793.755737,538
793.874817,538
793.993896,521
794.112976,507
794.232056,495
794.351074,514
794.470215,522
794.589233,509
794.708313,508
794.827393,502
794.946411,519
795.065552,517
795.18457,533
795.303589,511
795.422668,509
795.541687,495
795.660767,516
795.779846,488
795.898865,505
796.017883,493
796.136963,511
796.255981,513
796.375061,509
796.49408,496
796.613037,506
796.732117,511
796.851135,520
796.970154,477
797.089233,486
797.208191,483
797.327271,497
797.446228,514
797.565186,523
797.684265,490
797.803223,501
797.922241,505
798.04126,492
798.160278,495
798.279297,476
798.398315,490
798.517273,472
798.636292,485
798.75531,483
798.874268,477
798.993286,497
799.112244,497
799.231323,467
799.350281,486
799.469238,477
799.588257,473
799.707153,486
799.826111,488
799.945129,499
800.064087,491
800.183044,486
800.302063,503
800.421021,483
800.539978,489
800.658936,476
800.777893,485
800.896912,488
801.015747,481
801.134705,479
801.253723,488
801.37262,500
801.491638,474
801.610535,500
801.729492,478
801.84845,484
801.967407,477
802.086243,480
802.205261,497
802.324158,473
802.443115,484
802.562073,484
802.680969,473
802.799927,488
802.918762,492
803.037659,479
803.156677,479
803.275574,480
803.39447,478
803.513428,468
803.632263,485
803.751221,479
803.870117,477
803.989014,490
804.107971,476
804.226746,490
804.345642,481
804.4646,484
804.583496,491
804.702393,506
804.821228,471
804.940125,499
805.059021,481
805.177917,476
805.296814,487
805.415649,491
805.534546,491
805.653442,492
805.772278,487
805.891113,487
806.01001,475
806.128906,500
806.247742,485
806.366577,462
806.485413,490
806.604309,482
806.723145,481
806.84198,487
806.960876,479
807.079712,503
807.198486,488
807.317383,492
807.436218,484
807.554993,494
807.673889,477
807.792725,478
807.91156,479
808.030396,492
808.14917,489
808.268005,482
808.386841,470
808.505676,486
808.624451,488
808.743286,492
808.862122,481
808.980896,467
809.099731,482
809.218506,495
809.337341,476
809.456116,490
809.57489,486
809.693726,482
809.8125,483
809.931274,475
810.050049,466
810.168884,471
810.287659,480
810.406372,495
810.525269,473
810.643982,479
810.762756,477
810.881531,485
811.000305,485
811.11908,471
811.237854,471
811.356567,487
811.475403,486
811.594116,481
811.71283,501
811.831604,466
811.950378,486
812.069153,470
812.187927,485
812.30658,492
812.425415,475
812.544128,477
812.662781,492
812.781616,489
812.900269,473
813.019043,483
813.137756,470
813.256531,490
813.375244,463
813.493896,479
813.612671,496
813.731384,484
813.850037,476
813.96875,497
814.087524,491
814.206238,485
814.324951,486
814.443604,475
814.562256,473
814.68103,485
814.799683,496
814.918335,469
815.037109,468
815.155762,475
815.274475,482
815.393188,471
815.511841,463
815.630554,473
815.749146,482
815.867859,498
815.986572,474
816.105164,464
816.223877,475
816.342529,476
816.461182,472
816.579895,479
816.698486,473
816.817139,481
816.935791,473
817.054504,481
817.173096,480
817.291748,475
817.4104,477
817.529053,474
817.647644,476
817.766235,477
817.884949,463
818.00354,474
818.122192,480
818.240845,490
818.359436,447
818.478088,466
818.59668,470
818.715271,482
818.833923,482
818.952515,448
819.071106,478
819.189758,457
819.30835,457
819.426941,458
819.545532,454
819.664124,471
819.782715,457
819.901306,490
820.019897,448
820.138489,451
820.25708,458
820.375671,439
820.494202,456
820.612732,459
820.731384,463
820.849915,449
820.968506,461
821.087097,467
821.205627,447
821.324158,462
821.442749,464
821.561279,458
821.679871,456
821.798401,462
821.916931,440
822.035461,455
822.154053,466
822.272583,450
822.391174,464
822.509583,460
822.628174,455
822.746704,466
822.865234,463
822.983765,461
823.102295,470
823.220825,448
823.339294,458
823.457825,455
823.576355,458
823.694824,456
823.813354,464
823.931885,457
824.050354,449
824.168884,484
824.287354,448
824.405823,477
824.524353,448
824.642822,451
824.761353,434
824.879822,450
824.998291,430
825.116699,456
825.235291,440
825.353699,470
825.472168,457
825.590637,448
825.709106,476
825.827576,457
825.946045,445
826.064453,465
826.182983,443
826.301392,460
826.4198,469
826.53833,465
826.656738,455
826.775208,435
826.893677,441
827.012024,435
827.130493,467
827.248962,435
827.36731,477
827.485779,449
827.604248,461
827.722595,471
827.841064,456
827.959412,453
828.077942,460
828.196289,449
828.314636,445
828.433105,436
828.551514,464
828.669861,455
828.78833,419
828.906677,452
829.025085,462
829.143433,443
829.261841,462
829.38031,454
829.498657,454
829.617004,434
829.735413,440
829.85376,444
829.972107,442
830.090515,454
830.208862,446
830.327209,456
830.445557,441
830.563904,460
830.682312,471
830.800659,467
830.919006,449
831.037354,439
831.155701,426
831.274048,467
831.392395,452
831.51062,458
831.629028,436
831.747314,450
831.865662,454
831.984009,465
832.102356,448
832.220642,447
832.338928,440
832.457275,462
832.575623,439
832.693909,450
832.812134,443
832.930481,451
833.048828,456
833.167114,444
833.2854,448
833.403687,464
833.521973,455
833.640259,463
833.758545,457
833.876831,458
833.995056,451
834.113281,477
834.231628,449
834.349915,469
834.468201,442
834.586426,452
834.704651,450
834.822998,446
834.941162,460
835.059448,456
835.177673,454
835.295959,427
835.414246,451
835.53241,444
835.650635,444
835.768921,458
835.887146,465
836.005371,462
836.123596,439
836.241821,454
836.360046,451
836.478271,434
836.596497,469
836.714722,458
836.832886,466
836.95105,437
837.069336,457
837.1875,453
837.305725,456
837.423889,439
837.542053,446
837.660339,461
837.778503,448
837.896667,456
838.014832,455
838.132996,456
838.25116,442
838.369385,443
838.487488,448
838.605713,470
838.723877,452
838.84198,462
838.960205,432
839.078308,463
839.196472,441
839.314636,450
839.4328,424
839.550964,460
839.669067,467
839.787231,425
839.905396,453
840.023499,447
840.141602,452
840.259766,455
840.377869,441
840.495972,442
840.614136,437
840.732239,452
840.850342,454
840.968445,452
841.086548,444
841.204651,456
841.322754,455
841.440918,455
841.55896,427
841.677002,447
841.795166,447
841.913208,451
842.031311,453
842.149353,449
842.267456,450
842.385498,456
842.503601,447
842.621643,446
842.739746,439
842.857788,454
842.97583,458
843.093933,447
843.211975,442
843.330017,454
843.44812,448
843.566101,459
843.684204,437
843.802246,455
843.920227,440
844.038269,455
844.156311,441
844.274292,449
844.392395,469
844.510376,442
844.628357,449
844.74646,434
844.864441,451
844.982422,438
845.100403,430
845.218384,456
845.336426,441
845.454468,443
845.572449,447
845.69043,455
845.808411,446
845.926453,468
846.044373,443
846.162354,442
846.280396,429
846.398315,452
846.516296,433
846.634216,457
846.752197,445
846.870178,455
846.988098,443
847.106079,458
847.22406,451
847.34198,438
847.4599,458
847.577881,446
847.695801,454
847.813782,444
847.931641,446
848.049561,462
848.167603,449
848.285461,467
848.403381,455
848.521362,451
848.639221,428
848.75708,441
848.875,446
848.99292,428
849.110901,449
849.22876,441
849.34668,448
849.464539,442
849.582458,442
849.700317,441
849.818176,425
849.936096,439
850.053955,454
850.171875,440
850.289673,444
850.407593,459
850.525452,451
850.643311,442
850.761169,473
850.878967,447
850.996887,430
851.114746,443
851.232544,441
851.350403,470
851.468262,461
851.58606,455
851.703979,468
851.821777,436
851.939636,445
852.057434,439
852.175232,455
852.293091,465
852.410889,432
852.528687,467
852.646545,438
852.764343,446
852.88208,458
852.999939,449
853.117676,456
853.235535,430
853.353271,435
853.471069,437
853.588928,453
853.706604,457
853.824402,476
853.9422,437
854.059998,446
854.177734,454
854.295532,449
854.413269,436
854.531006,461
854.648804,462
854.766541,443
854.884277,468
855.002014,438
855.119751,435
855.237549,439
855.355225,440
855.473022,449
855.590698,453
855.708435,445
855.826172,456
855.943848,455
856.061646,451
856.179321,430
856.296997,462
856.414795,455
856.53241,442
856.650085,436
856.767822,444
856.885559,460
857.003174,470
857.120911,458
857.238586,446
857.356201,452
857.473938,437
857.591614,452
857.709351,455
857.826965,450
857.944641,454
858.062317,438
858.179993,465
858.297668,483
858.415283,448
858.532959,458
858.650574,450
858.768188,445
858.885803,459
859.003479,451
859.121094,470
859.23877,449
859.356384,449
859.473999,443
859.591675,463
859.709229,462
859.826843,451
859.944458,446
860.062012,457
860.179626,469
860.297302,457
860.414856,447
860.532471,453
860.650024,436
860.767639,453
860.885193,448
861.002808,433
861.120361,459
861.237976,439
861.35553,453
861.473022,444
861.590698,451
861.708191,459
861.825745,435
861.943298,470
862.060852,449
862.178406,452
862.295959,448
862.413513,447
862.531006,430
862.64856,454
862.766113,452
862.883667,458
863.00116,452
863.118713,442
863.236206,456
863.353699,444
863.471252,440
863.588745,458
863.706177,440
863.82373,449
863.941162,439
864.058716,433
864.176208,449
864.29364,450
864.411194,454
864.528687,449
864.646118,470
864.763611,454
864.881042,445
864.998535,438
865.116028,429
865.233459,439
865.350891,436
865.468384,459
865.585754,442
865.703308,455
865.820679,451
865.938171,445
866.055542,451
866.173035,445
866.290466,442
866.407837,471
866.52533,444
866.6427,458
866.760071,452
866.877563,455
866.994934,445
867.112305,465
867.229736,453
867.347107,467
867.464539,439
867.58197,444
867.699341,441
867.81665,437
867.934082,456
868.051453,461
868.168823,441
868.286194,449
868.403564,446
868.520935,450
868.638306,459
868.755676,471
868.872986,438
868.990295,455
869.107727,451
869.225037,452
869.342346,445
869.459717,456
869.577026,450
869.694336,459
869.811707,466
869.929016,453
870.046326,448
870.163635,469
870.280945,456
870.398254,438
870.515564,444
870.632812,457
870.750183,465
870.867432,427
870.984741,452
871.102051,468
871.219299,447
871.336609,443
871.453918,452
871.571106,468
871.688416,450
871.805664,463
871.922852,438
872.040222,456
872.157471,455
872.274719,458
872.391968,451
872.509155,470
872.626465,456
872.743652,451
872.860962,438
872.978149,439
873.095337,437
873.212646,457
873.329834,438
873.44696,463
873.564209,459
873.681396,454
873.798645,454
873.915894,454
874.03302,455
874.150208,447
874.267456,442
874.384583,454
874.501831,459
874.618958,432
874.736145,449
874.853333,438
874.970459,463
875.087646,464
875.204834,446
875.32196,442
875.439148,446
875.556274,465
875.673401,452
875.790527,446
875.907715,435
876.024841,456
876.141968,457
876.259094,454
876.376282,438
876.493347,455
876.610474,454
876.7276,451
876.844727,442
876.961853,471
877.078918,446
877.195984,437
877.313171,441
877.430237,446
877.547302,451
877.664368,457
877.781433,451
877.898499,454
878.015625,458
878.13269,449
878.249695,453
878.366821,469
878.483887,435
878.600952,462
878.717957,456
878.834961,449
878.952087,458
879.069092,432
879.186157,453
879.303162,478
879.420227,462
879.537231,456
879.654236,434
879.77124,470
879.888306,445
880.005249,450
880.122314,443
880.239319,455
880.356323,440
880.473328,469
880.590271,437
880.707275,471
880.824341,443
880.941284,464
881.058228,466
881.175232,447
881.292236,458
881.40918,450
881.526123,460
881.643066,465
881.760071,448
881.877014,478
881.993958,459
882.11084,437
882.227783,464
882.344727,456
882.46167,452
882.578613,455
882.695618,446
882.812439,459
882.929382,456
883.046326,443
883.163208,451
883.280151,460
883.397034,448
883.513916,443
883.630798,471
883.747742,453
883.864563,447
883.981506,453
884.098389,441
884.21521,459
884.332153,467
884.448975,459
884.565796,457
884.682678,455
884.7995,457
884.916443,473
885.033264,445
885.150085,462
885.266968,452
885.383789,456
885.500671,446
885.617493,463
885.734314,473
885.851196,464
885.967896,458
886.084717,466
886.201599,456
886.318359,445
886.435181,455
886.552002,464
886.668762,481
886.785645,461
886.902344,474
887.019165,465
887.135925,452
887.252747,455
887.369446,435
887.486267,472
887.603027,442
887.719788,458
887.836548,462
887.953247,460
888.070068,463
888.186829,453
888.303528,437
888.420288,484
888.536987,450
888.653687,463
888.770447,469
888.887146,453
889.003967,464
889.120667,465
889.237305,438
889.354065,448
889.470703,459
889.587463,450
889.704163,473
889.820862,461
889.937561,449
890.054199,448
890.170837,462
890.287598,441
890.404236,444
890.520874,468
890.637634,466
890.754211,461
890.87085,461
890.987549,466
891.104187,448
891.220886,486
891.337463,448
891.454102,455
891.57074,466
891.687378,445
891.804077,470
891.920654,460
892.037231,453
892.15387,460
892.270447,431
892.387085,439
892.503723,438
892.6203,462
892.736877,450
892.853516,473
892.970032,461
893.08667,458
893.203186,447
893.319763,441
893.43634,485
893.552917,447
893.669556,457
893.786011,449
893.902588,465
894.019165,449
894.135681,460
894.252197,455
894.368835,466
894.485291,466
894.601868,439
894.718384,476
894.8349,457
894.951355,444
895.067932,481
895.184448,460
895.300964,445
895.417419,449
895.533936,453
895.650452,460
895.766907,477
895.883423,455
895.999878,449
896.116333,466
896.232849,450
896.349304,447
896.465759,457
896.582214,466
896.698669,458
896.815125,459
896.931641,452
897.048035,439
897.164551,471
897.280884,459
897.397339,448
897.513794,452
897.630249,472
897.746582,465
897.863098,443
897.979431,467
898.095886,454
898.212341,477
898.328674,471
898.445129,452
898.561462,470
898.677795,450
898.794312,470
898.910645,474
899.026978,461
899.143433,468
899.259766,455
899.37616,449
899.492493,446
899.608765,436
899.725159,454
899.841553,446
899.957947,469
900.07428,463
900.190552,467
900.306946,456
900.423157,466
900.53949,459
900.655884,460
900.772156,451
900.888489,476
901.004822,490
901.121033,438
901.237366,444
901.353699,458
901.46991,455
901.586304,1961
901.702515,444
901.818787,445
901.93512,455
902.051331,456
902.167603,456
902.283875,483
902.400085,452
902.516418,454
902.632629,473
902.74884,476
902.865112,472
902.981384,463
903.097595,467
903.213867,467
903.330017,469
903.446289,465
903.5625,457
903.67865,469
903.794922,468
903.911072,443
904.027344,477
904.143494,483
904.259705,453
904.375916,468
904.492065,466
904.608215,465
904.724426,462
904.840576,460
904.956726,466
905.072876,464
905.189087,456
905.305176,439
905.421387,468
905.537537,455
905.653687,464
905.769775,465
905.885925,479
906.002014,457
906.118164,470
906.234314,457
906.350403,475
906.466492,478
906.582642,433
906.69873,456
906.814758,464
906.930908,481
907.046936,462
907.163086,470
907.279175,451
907.395264,462
907.511353,473
907.62738,464
907.743408,459
907.859497,468
907.975525,480
908.091553,450
908.207703,465
908.32373,461
908.439758,455
908.555786,480
908.671814,465
908.787842,463
908.90387,480
909.019775,460
909.135864,467
909.251892,472
909.367859,487
909.483826,462
909.599854,484
909.715881,455
909.831848,474
909.947815,477
910.063782,466
910.179749,461
910.295776,462
910.411743,470
910.527649,462
910.643616,452
910.759583,472
910.875488,476
910.991455,464
911.107361,452
911.223267,472
911.339294,457
911.4552,457
911.571106,459
911.687073,475
911.802979,450
911.918823,469
912.034729,456
912.150635,451
912.266602,446
912.382446,464
912.498352,457
912.614197,455
912.730103,455
912.846008,474
792.44574,531
792.56488,553
792.68396,605
792.80304,578
792.92218,548
793.041199,508
793.160339,521
793.279419,532
793.398499,526
793.517578,518
793.636658,508
793.755737,536
793.874817,537
793.993896,527
794.112976,514
794.232056,526
794.351074,504
794.470215,516
794.589233,505
794.708313,504
794.827393,509
794.946411,495
795.065552,520
795.18457,531
795.303589,492
795.422668,513
795.541687,490
795.660767,497
795.779846,506
795.898865,503
796.017883,500
796.136963,490
796.255981,503
796.375061,493
796.49408,509
796.613037,499
796.732117,493
796.851135,498
796.970154,492
797.089233,495
797.208191,508
797.327271,495
797.446228,489
797.565186,506
797.684265,502
797.803223,506
797.922241,491
798.04126,486
798.160278,489
798.279297,487
798.398315,503
798.517273,520
798.636292,499
798.75531,482
798.874268,477
798.993286,486
799.112244,497
799.231323,491
799.350281,486
799.469238,498
799.588257,506
799.707153,485
799.826111,477
799.945129,490
800.064087,486
800.183044,476
800.302063,483
800.421021,488
800.539978,517
800.658936,505
800.777893,483
800.896912,486
801.015747,507
801.134705,487
801.253723,502
801.37262,492
801.491638,465
801.610535,484
801.729492,491
801.84845,490
801.967407,486
802.086243,498
802.205261,463
802.324158,494
802.443115,486
802.562073,489
802.680969,481
802.799927,497
802.918762,480
803.037659,488
803.156677,475
803.275574,479
803.39447,492
803.513428,492
803.632263,485
803.751221,489
803.870117,475
803.989014,495
804.107971,462
804.226746,490
804.345642,505
804.4646,487
804.583496,488
804.702393,511
804.821228,486
804.940125,504
805.059021,467
805.177917,473
805.296814,482
805.415649,505
805.534546,486
805.653442,489
805.772278,482
805.891113,477
806.01001,489
806.128906,476
806.247742,455
806.366577,481
806.485413,469
806.604309,507
806.723145,492
806.84198,476
806.960876,456
807.079712,476
807.198486,480
807.317383,499
807.436218,489
807.554993,492
807.673889,486
807.792725,473
807.91156,486
808.030396,470
808.14917,490
808.268005,486
808.386841,476
808.505676,499
808.624451,457
808.743286,485
808.862122,481
808.980896,474
809.099731,488
809.218506,481
809.337341,495
809.456116,484
809.57489,480
809.693726,488
809.8125,469
809.931274,481
810.050049,479
810.168884,465
810.287659,500
810.406372,482
810.525269,475
810.643982,505
810.762756,471
810.881531,490
811.000305,499
811.11908,502
811.237854,479
811.356567,483
811.475403,475
811.594116,464
811.71283,498
811.831604,501
811.950378,478
812.069153,477
812.187927,493
812.30658,487
812.425415,480
812.544128,487
812.662781,463
812.781616,490
812.900269,483
813.019043,485
813.137756,502
813.256531,476
813.375244,466
813.493896,487
813.612671,488
813.731384,491
813.850037,467
813.96875,462
814.087524,481
814.206238,477
814.324951,475
814.443604,477
814.562256,458
814.68103,473
814.799683,463
814.918335,475
815.037109,466
815.155762,468
815.274475,485
815.393188,481
815.511841,463
815.630554,479
815.749146,471
815.867859,475
815.986572,491
816.105164,476
816.223877,466
816.342529,484
816.461182,480
816.579895,491
816.698486,451
816.817139,484
816.935791,480
817.054504,492
817.173096,480
817.291748,474
817.4104,468
817.529053,459
817.647644,472
817.766235,474
817.884949,496
818.00354,483
818.122192,472
818.240845,490
818.359436,459
818.478088,460
818.59668,477
818.715271,470
818.833923,442
818.952515,475
819.071106,449
819.189758,473
819.30835,464
819.426941,456
819.545532,454
819.664124,455
819.782715,454
819.901306,455
820.019897,457
820.138489,457
820.25708,463
820.375671,459
820.494202,464
820.612732,468
820.731384,451
820.849915,449
820.968506,474
821.087097,466
821.205627,465
821.324158,466
821.442749,462
821.561279,455
821.679871,457
821.798401,452
821.916931,442
822.035461,462
822.154053,458
822.272583,460
822.391174,447
822.509583,477
822.628174,458
822.746704,445
822.865234,452
822.983765,484
823.102295,457
823.220825,468
823.339294,440
823.457825,469
823.576355,458
823.694824,460
823.813354,470
823.931885,447
824.050354,443
824.168884,447
824.287354,449
824.405823,461
824.524353,465
824.642822,457
824.761353,469
824.879822,473
824.998291,452
825.116699,473
825.235291,446
825.353699,450
825.472168,458
825.590637,450
825.709106,470
825.827576,450
825.946045,444
826.064453,457
826.182983,444
826.301392,461
826.4198,455
826.53833,464
826.656738,466
826.775208,449
826.893677,446
827.012024,457
827.130493,453
827.248962,439
827.36731,462
827.485779,464
827.604248,456
827.722595,459
827.841064,466
827.959412,451
828.077942,439
828.196289,457
828.314636,446
828.433105,461
828.551514,468
828.669861,452
828.78833,434
828.906677,460
829.025085,447
829.143433,438
829.261841,462
829.38031,458
829.498657,449
829.617004,449
829.735413,455
829.85376,469
829.972107,447
830.090515,462
830.208862,445
830.327209,439
830.445557,452
830.563904,437
830.682312,445
830.800659,445
830.919006,449
831.037354,455
831.155701,463
831.274048,476
831.392395,448
831.51062,463
831.629028,466
831.747314,463
831.865662,440
831.984009,455
832.102356,470
832.220642,446
832.338928,464
832.457275,463
832.575623,453
832.693909,447
832.812134,445
832.930481,459
833.048828,444
833.167114,451
833.2854,432
833.403687,452
833.521973,449
833.640259,457
833.758545,454
833.876831,438
833.995056,472
834.113281,448
834.231628,463
834.349915,448
834.468201,447
834.586426,457
834.704651,435
834.822998,460
834.941162,447
835.059448,446
835.177673,451
835.295959,445
835.414246,437
835.53241,453
835.650635,447
835.768921,448
835.887146,452
836.005371,456
836.123596,455
836.241821,425
836.360046,469
836.478271,442
836.596497,460
836.714722,451
836.832886,457
836.95105,441
837.069336,457
837.1875,454
837.305725,446
837.423889,468
837.542053,434
837.660339,452
837.778503,445
837.896667,449
838.014832,433
838.132996,436
838.25116,465
838.369385,456
838.487488,461
838.605713,446
838.723877,455
838.84198,439
838.960205,458
839.078308,443
839.196472,424
839.314636,453
839.4328,453
839.550964,447
839.669067,471
839.787231,472
839.905396,447
840.023499,450
840.141602,440
840.259766,450
840.377869,426
840.495972,451
840.614136,452
840.732239,472
840.850342,467
840.968445,435
841.086548,449
841.204651,452
841.322754,462
841.440918,456
841.55896,448
841.677002,448
841.795166,450
841.913208,464
842.031311,450
842.149353,457
842.267456,438
842.385498,457
842.503601,455
842.621643,435
842.739746,446
842.857788,445
842.97583,462
843.093933,435
843.211975,450
843.330017,453
843.44812,439
843.566101,456
843.684204,455
843.802246,464
843.920227,442
844.038269,461
844.156311,449
844.274292,441
844.392395,446
844.510376,450
844.628357,452
844.74646,447
844.864441,445
844.982422,448
845.100403,454
845.218384,458
845.336426,437
845.454468,446
845.572449,426
845.69043,456
845.808411,441
845.926453,458
846.044373,454
846.162354,441
846.280396,439
846.398315,455
846.516296,443
846.634216,428
846.752197,456
846.870178,455
846.988098,431
847.106079,453
847.22406,455
847.34198,465
847.4599,451
847.577881,449
847.695801,446
847.813782,443
847.931641,462
848.049561,435
848.167603,444
848.285461,444
848.403381,457
848.521362,466
848.639221,436
848.75708,447
848.875,428
848.99292,439
849.110901,460
849.22876,453
849.34668,441
849.464539,447
849.582458,450
849.700317,456
849.818176,444
849.936096,436
850.053955,443
850.171875,436
850.289673,454
850.407593,446
850.525452,438
850.643311,437
850.761169,457
850.878967,456
850.996887,439
851.114746,466
851.232544,455
851.350403,447
851.468262,438
851.58606,446
851.703979,444
851.821777,453
851.939636,445
852.057434,436
852.175232,444
852.293091,447
852.410889,449
852.528687,465
852.646545,449
852.764343,448
852.88208,447
852.999939,441
853.117676,446
853.235535,458
853.353271,443
853.471069,450
853.588928,447
853.706604,453
853.824402,447
853.9422,456
854.059998,439
854.177734,443
854.295532,457
854.413269,432
854.531006,456
854.648804,443
854.766541,455
854.884277,447
855.002014,430
855.119751,445
855.237549,457
855.355225,453
855.473022,424
855.590698,452
855.708435,453
855.826172,466
855.943848,437
856.061646,465
856.179321,447
856.296997,445
856.414795,444
856.53241,452
856.650085,446
856.767822,441
856.885559,459
857.003174,461
857.120911,458
857.238586,452
857.356201,452
857.473938,451
857.591614,441
857.709351,465
857.826965,456
857.944641,458
858.062317,455
858.179993,445
858.297668,439
858.415283,462
858.532959,435
858.650574,471
858.768188,460
858.885803,437
859.003479,442
859.121094,448
859.23877,430
859.356384,457
859.473999,467
859.591675,464
859.709229,439
859.826843,454
859.944458,442
860.062012,445
860.179626,462
860.297302,446
860.414856,455
860.532471,424
860.650024,425
860.767639,465
860.885193,434
861.002808,424
861.120361,452
861.237976,444
861.35553,427
861.473022,456
861.590698,435
861.708191,448
861.825745,445
861.943298,456
862.060852,448
862.178406,451
862.295959,447
862.413513,476
862.531006,440
862.64856,457
862.766113,436
862.883667,439
863.00116,467
863.118713,442
863.236206,434
863.353699,450
863.471252,450
863.588745,457
863.706177,441
863.82373,438
863.941162,459
864.058716,455
864.176208,457
864.29364,450
864.411194,440
864.528687,457
864.646118,448
864.763611,460
864.881042,428
864.998535,461
865.116028,431
865.233459,461
865.350891,451
865.468384,454
865.585754,440
865.703308,448
865.820679,458
865.938171,432
866.055542,450
866.173035,457
866.290466,444
866.407837,462
866.52533,443
866.6427,466
866.760071,449
866.877563,445
866.994934,454
867.112305,447
867.229736,449
867.347107,466
867.464539,439
867.58197,459
867.699341,467
867.81665,450
867.934082,444
868.051453,445
868.168823,417
868.286194,444
868.403564,448
868.520935,452
868.638306,444
868.755676,446
868.872986,436
868.990295,469
869.107727,457
869.225037,464
869.342346,453
869.459717,451
869.577026,456
869.694336,454
869.811707,1471
869.929016,421
870.046326,436
870.163635,442
870.280945,462
870.398254,462
870.515564,449
870.632812,449
870.750183,466
870.867432,456
870.984741,457
871.102051,442
871.219299,446
871.336609,466
871.453918,473
871.571106,470
871.688416,456
871.805664,456
871.922852,458
872.040222,465
872.157471,446
872.274719,463
872.391968,450
872.509155,463
872.626465,455
872.743652,460
872.860962,459
872.978149,453
873.095337,453
873.212646,465
873.329834,448
873.44696,451
873.564209,461
873.681396,457
873.798645,446
873.915894,455
874.03302,447
874.150208,473
874.267456,452
874.384583,456
874.501831,445
874.618958,462
874.736145,467
874.853333,465
874.970459,470
875.087646,440
875.204834,452
875.32196,464
875.439148,430
875.556274,466
875.673401,449
875.790527,448
875.907715,441
876.024841,430
876.141968,454
876.259094,468
876.376282,460
876.493347,454
876.610474,456
876.7276,452
876.844727,446
876.961853,451
877.078918,465
877.195984,463
877.313171,463
877.430237,446
877.547302,460
877.664368,467
877.781433,471
877.898499,446
878.015625,441
878.13269,451
878.249695,436
878.366821,454
878.483887,455
878.600952,471
878.717957,458
878.834961,444
878.952087,473
879.069092,471
879.186157,463
879.303162,469
879.420227,444
879.537231,456
879.654236,472
879.77124,437
879.888306,447
880.005249,445
880.122314,454
880.239319,457
880.356323,447
880.473328,454
880.590271,449
880.707275,450
880.824341,448
880.941284,448
881.058228,454
881.175232,423
881.292236,455
881.40918,456
881.526123,444
881.643066,437
881.760071,439
881.877014,443
881.993958,447
882.11084,454
882.227783,446
882.344727,447
882.46167,465
882.578613,451
882.695618,455
882.812439,452
882.929382,435
883.046326,452
883.163208,443
883.280151,437
883.397034,445
883.513916,465
883.630798,471
883.747742,441
883.864563,444
883.981506,456
884.098389,453
884.21521,447
884.332153,454
884.448975,440
884.565796,455
884.682678,461
884.7995,452
884.916443,462
885.033264,443
885.150085,477
885.266968,462
885.383789,455
885.500671,472
885.617493,453
885.734314,464
885.851196,444
885.967896,448
886.084717,458
886.201599,444
886.318359,453
886.435181,455
886.552002,464
886.668762,455
886.785645,473
886.902344,460
887.019165,457
887.135925,451
887.252747,478
887.369446,451
887.486267,467
887.603027,455
887.719788,474
887.836548,461
887.953247,457
888.070068,455
888.186829,459
888.303528,451
888.420288,454
888.536987,463
888.653687,458
888.770447,446
888.887146,447
889.003967,483
889.120667,467
889.237305,478
889.354065,452
889.470703,461
889.587463,448
889.704163,458
889.820862,467
889.937561,451
890.054199,465
890.170837,454
890.287598,453
890.404236,456
890.520874,436
890.637634,448
890.754211,452
890.87085,441
890.987549,462
891.104187,441
891.220886,467
891.337463,451
891.454102,448
891.57074,468
891.687378,461
891.804077,451
891.920654,453
892.037231,452
892.15387,472
892.270447,460
892.387085,462
892.503723,445
892.6203,484
892.736877,448
892.853516,451
892.970032,463
893.08667,478
893.203186,454
893.319763,451
893.43634,450
893.552917,452
893.669556,477
893.786011,459
893.902588,471
894.019165,444
894.135681,473
894.252197,462
894.368835,445
894.485291,461
894.601868,456
894.718384,448
894.8349,456
894.951355,451
895.067932,453
895.184448,469
895.300964,457
895.417419,469
895.533936,476
895.650452,476
895.766907,446
895.883423,485
895.999878,484
896.116333,462
896.232849,463
896.349304,455
896.465759,450
896.582214,459
896.698669,459
896.815125,467
896.931641,454
897.048035,446
897.164551,447
897.280884,472
897.397339,463
897.513794,455
897.630249,438
897.746582,463
897.863098,454
897.979431,448
898.095886,452
898.212341,468
898.328674,474
898.445129,489
898.561462,449
898.677795,455
898.794312,481
898.910645,459
899.026978,458
899.143433,455
899.259766,461
899.37616,455
899.492493,452
899.608765,461
899.725159,465
899.841553,443
899.957947,482
900.07428,457
900.190552,449
900.306946,461
900.423157,459
900.53949,447
900.655884,465
900.772156,466
900.888489,465
901.004822,470
901.121033,474
901.237366,464
901.353699,467
901.46991,463
901.586304,485
901.702515,466
901.818787,468
901.93512,463
902.051331,493
902.167603,465
902.283875,476
902.400085,475
902.516418,452
902.632629,464
902.74884,463
902.865112,471
902.981384,448
903.097595,470
903.213867,457
903.330017,463
903.446289,487
903.5625,468
903.67865,475
903.794922,469
903.911072,475
904.027344,473
904.143494,460
904.259705,483
904.375916,485
904.492065,472
904.608215,456
904.724426,462
904.840576,479
904.956726,479
905.072876,463
905.189087,444
905.305176,469
905.421387,464
905.537537,474
905.653687,456
905.769775,454
905.885925,470
906.002014,456
906.118164,453
906.234314,458
906.350403,459
906.466492,463
906.582642,462
906.69873,446
906.814758,476
906.930908,475
907.046936,471
907.163086,464
907.279175,487
907.395264,464
907.511353,483
907.62738,458
907.743408,453
907.859497,464
907.975525,461
908.091553,468
908.207703,450
908.32373,444
908.439758,479
908.555786,479
908.671814,474
908.787842,454
908.90387,460
909.019775,474
909.135864,460
909.251892,471
909.367859,472
909.483826,454
909.599854,453
909.715881,464
909.831848,464
909.947815,454
910.063782,457
910.179749,466
910.295776,454
910.411743,484
910.527649,475
910.643616,456
910.759583,473
910.875488,482
910.991455,474
911.107361,480
911.223267,469
911.339294,462
911.4552,460
911.571106,470
911.687073,472
911.802979,472
911.918823,449
912.034729,484
912.150635,466
912.266602,471
912.382446,479
912.498352,457
912.614197,479
912.730103,450
912.846008,468
792.44574,526
792.56488,574
792.68396,588
792.80304,593
792.92218,534
793.041199,544
793.160339,517
793.279419,521
793.398499,520
793.517578,505
793.636658,510
793.755737,524
793.874817,533
793.993896,538
794.112976,517
794.232056,502
794.351074,508
794.470215,517
794.589233,523
794.708313,512
794.827393,515
794.946411,510
795.065552,507
795.18457,506
795.303589,495
795.422668,520
795.541687,518
795.660767,538
795.779846,497
795.898865,521
796.017883,481
796.136963,513
796.255981,491
796.375061,499
796.49408,505
796.613037,491
796.732117,497
796.851135,521
796.970154,492
797.089233,515
797.208191,512
797.327271,509
797.446228,492
797.565186,496
797.684265,494
797.803223,502
797.922241,497
798.04126,499
798.160278,479
798.279297,493
798.398315,500
798.517273,489
798.636292,481
798.75531,510
798.874268,496
798.993286,486
799.112244,496
799.231323,497
799.350281,496
799.469238,493
799.588257,490
799.707153,490
799.826111,477
799.945129,491
800.064087,492
800.183044,461
800.302063,488
800.421021,478
800.539978,461
800.658936,491
800.777893,492
800.896912,490
801.015747,494
801.134705,507
801.253723,488
801.37262,485
801.491638,477
801.610535,467
801.729492,486
801.84845,471
801.967407,478
802.086243,489
802.205261,505
802.324158,485
802.443115,490
802.562073,482
802.680969,489
802.799927,485
802.918762,472
803.037659,481
803.156677,496
803.275574,478
803.39447,492
803.513428,504
803.632263,495
803.751221,466
803.870117,483
803.989014,498
804.107971,479
804.226746,493
804.345642,475
804.4646,491
804.583496,494
804.702393,468
804.821228,479
804.940125,473
805.059021,491
805.177917,497
805.296814,470
805.415649,484
805.534546,487
805.653442,482
805.772278,476
805.891113,498
806.01001,479
806.128906,510
806.247742,480
806.366577,487
806.485413,497
806.604309,484
806.723145,486
806.84198,488
806.960876,489
807.079712,475
807.198486,495
807.317383,475
807.436218,459
807.554993,490
807.673889,474
807.792725,495
807.91156,468
808.030396,474
808.14917,472
808.268005,485
808.386841,483
808.505676,503
808.624451,483
808.743286,495
808.862122,502
808.980896,503
809.099731,464
809.218506,486
809.337341,475
809.456116,469
809.57489,478
809.693726,486
809.8125,477
809.931274,484
810.050049,496
810.168884,494
810.287659,485
810.406372,491
810.525269,478
810.643982,473
810.762756,480
810.881531,483
811.000305,478
811.11908,512
811.237854,484
811.356567,471
811.475403,480
811.594116,485
811.71283,481
811.831604,473
811.950378,482
812.069153,493
812.187927,487
812.30658,481
812.425415,481
812.544128,478
812.662781,488
812.781616,475
812.900269,492
813.019043,469
813.137756,489
813.256531,493
813.375244,480
813.493896,481
813.612671,489
813.731384,497
813.850037,472
813.96875,483
814.087524,484
814.206238,472
814.324951,476
814.443604,474
814.562256,488
814.68103,471
814.799683,490
814.918335,477
815.037109,478
815.155762,488
815.274475,479
815.393188,467
815.511841,472
815.630554,479
815.749146,486
815.867859,474
815.986572,483
816.105164,479
816.223877,472
816.342529,469
816.461182,480
816.579895,468
816.698486,476
816.817139,480
816.935791,499
817.054504,486
817.173096,480
817.291748,491
817.4104,465
817.529053,482
817.647644,464
817.766235,459
817.884949,488
818.00354,467
818.122192,465
818.240845,471
818.359436,451
818.478088,474
818.59668,477
818.715271,468
818.833923,468
818.952515,467
819.071106,468
819.189758,476
819.30835,461
819.426941,462
819.545532,455
819.664124,470
819.782715,479
819.901306,474
820.019897,462
820.138489,472
820.25708,488
820.375671,468
820.494202,439
820.612732,455
820.731384,481
820.849915,465
820.968506,436
821.087097,487
821.205627,447
821.324158,443
821.442749,461
821.561279,467
821.679871,479
821.798401,454
821.916931,468
822.035461,444
822.154053,466
822.272583,465
822.391174,450
822.509583,475
822.628174,459
822.746704,459
822.865234,454
822.983765,449
823.102295,460
823.220825,447
823.339294,464
823.457825,451
823.576355,447
823.694824,473
823.813354,466
823.931885,446
824.050354,452
824.168884,464
824.287354,467
824.405823,450
824.524353,455
824.642822,469
824.761353,464
824.879822,447
824.998291,459
825.116699,478
825.235291,467
825.353699,460
825.472168,450
825.590637,450
825.709106,452
825.827576,459
825.946045,470
826.064453,442
826.182983,454
826.301392,458
826.4198,487
826.53833,443
826.656738,448
826.775208,454
826.893677,457
827.012024,460
827.130493,461
827.248962,441
827.36731,459
827.485779,458
827.604248,456
827.722595,451
827.841064,466
827.959412,445
828.077942,456
828.196289,470
828.314636,447
828.433105,455
828.551514,462
828.669861,455
828.78833,459
828.906677,458
829.025085,445
829.143433,451
829.261841,444
829.38031,468
829.498657,454
829.617004,467
829.735413,429
829.85376,458
829.972107,445
830.090515,462
830.208862,453
830.327209,454
830.445557,464
830.563904,473
830.682312,452
830.800659,449
830.919006,450
831.037354,444
831.155701,456
831.274048,441
831.392395,462
831.51062,447
831.629028,448
831.747314,462
831.865662,433
831.984009,447
832.102356,450
832.220642,445
832.338928,479
832.457275,455
832.575623,447
832.693909,449
832.812134,464
832.930481,460
833.048828,456
833.167114,456
833.2854,450
833.403687,437
833.521973,460
833.640259,440
833.758545,455
833.876831,452
833.995056,466
834.113281,469
834.231628,450
834.349915,455
834.468201,467
834.586426,445
834.704651,438
834.822998,457
834.941162,456
835.059448,463
835.177673,453
835.295959,433
835.414246,451
835.53241,459
835.650635,442
835.768921,441
835.887146,452
836.005371,469
836.123596,447
836.241821,458
836.360046,462
836.478271,456
836.596497,438
836.714722,440
836.832886,463
836.95105,442
837.069336,458
837.1875,447
837.305725,434
837.423889,445
837.542053,443
837.660339,437
837.778503,437
837.896667,457
838.014832,446
838.132996,479
838.25116,466
838.369385,455
838.487488,436
838.605713,440
838.723877,455
838.84198,453
838.960205,445
839.078308,436
839.196472,445
839.314636,452
839.4328,448
839.550964,443
839.669067,440
839.787231,457
839.905396,440
840.023499,458
840.141602,480
840.259766,435
840.377869,446
840.495972,462
840.614136,445
840.732239,450
840.850342,470
840.968445,441
841.086548,459
841.204651,464
841.322754,452
841.440918,463
841.55896,455
841.677002,447
841.795166,459
841.913208,451
842.031311,450
842.149353,461
842.267456,455
842.385498,449
842.503601,450
842.621643,439
842.739746,449
842.857788,428
842.97583,440
843.093933,458
843.211975,439
843.330017,444
843.44812,431
843.566101,476
843.684204,443
843.802246,459
843.920227,460
844.038269,476
844.156311,461
844.274292,470
844.392395,445
844.510376,460
844.628357,451
844.74646,456
844.864441,448
844.982422,448
845.100403,434
845.218384,456
845.336426,453
845.454468,458
845.572449,440
845.69043,437
845.808411,464
845.926453,454
846.044373,435
846.162354,444
846.280396,450
846.398315,457
846.516296,436
846.634216,452
846.752197,435
846.870178,446
846.988098,461
847.106079,457
847.22406,446
847.34198,468
847.4599,435
847.577881,448
847.695801,450
847.813782,454
847.931641,442
848.049561,441
848.167603,442
848.285461,437
848.403381,434
848.521362,455
848.639221,451
848.75708,451
848.875,441
848.99292,458
849.110901,474
849.22876,449
849.34668,438
849.464539,441
849.582458,452
849.700317,448
849.818176,446
849.936096,441
850.053955,456
850.171875,441
850.289673,447
850.407593,439
850.525452,450
850.643311,451
850.761169,450
850.878967,448
850.996887,465
851.114746,437
851.232544,469
851.350403,476
851.468262,455
851.58606,463
851.703979,458
851.821777,444
851.939636,464
852.057434,440
852.175232,465
852.293091,442
852.410889,448
852.528687,448
852.646545,459
852.764343,475
852.88208,457
852.999939,462
853.117676,453
853.235535,441
853.353271,474
853.471069,449
853.588928,469
853.706604,479
853.824402,453
853.9422,451
854.059998,427
854.177734,447
854.295532,436
854.413269,461
854.531006,461
854.648804,462
854.766541,452
854.884277,455
855.002014,448
855.119751,431
855.237549,453
855.355225,445
855.473022,435
855.590698,461
855.708435,434
855.826172,443
855.943848,444
856.061646,451
856.179321,447
856.296997,468
856.414795,466
856.53241,462
856.650085,443
856.767822,440
856.885559,465
857.003174,450
857.120911,461
857.238586,461
857.356201,446
857.473938,455
857.591614,450
857.709351,448
857.826965,452
857.944641,448
858.062317,432
858.179993,467
858.297668,432
858.415283,469
858.532959,456
858.650574,463
858.768188,441
858.885803,451
859.003479,453
859.121094,463
859.23877,456
859.356384,459
859.473999,461
859.591675,456
859.709229,452
859.826843,425
859.944458,443
860.062012,464
860.179626,447
860.297302,447
860.414856,456
860.532471,447
860.650024,434
860.767639,464
860.885193,453
861.002808,447
861.120361,456
861.237976,447
861.35553,445
861.473022,447
861.590698,472
861.708191,439
861.825745,438
861.943298,452
862.060852,428
862.178406,436
862.295959,448
862.413513,458
862.531006,454
862.64856,453
862.766113,454
862.883667,452
863.00116,453
863.118713,452
863.236206,457
863.353699,428
863.471252,446
863.588745,451
863.706177,438
863.82373,439
863.941162,450
864.058716,463
864.176208,451
864.29364,459
864.411194,445
864.528687,461
864.646118,454
864.763611,461
864.881042,440
864.998535,462
865.116028,439
865.233459,442
865.350891,458
865.468384,453
865.585754,444
865.703308,450
865.820679,447
865.938171,456
866.055542,446
866.173035,454
866.290466,449
866.407837,455
866.52533,460
866.6427,452
866.760071,452
866.877563,446
866.994934,464
867.112305,452
867.229736,466
867.347107,450
867.464539,455
867.58197,447
867.699341,445
867.81665,470
867.934082,449
868.051453,459
868.168823,443
868.286194,444
868.403564,462
868.520935,454
868.638306,453
868.755676,453
868.872986,460
868.990295,449
869.107727,437
869.225037,456
869.342346,469
869.459717,452
869.577026,453
869.694336,471
869.811707,450
869.929016,449
870.046326,434
870.163635,453
870.280945,456
870.398254,447
870.515564,470
870.632812,464
870.750183,455
870.867432,458
870.984741,447
871.102051,450
871.219299,451
871.336609,437
871.453918,460
871.571106,451
871.688416,451
871.805664,467
871.922852,445
872.040222,455
872.157471,448
872.274719,464
872.391968,465
872.509155,458
872.626465,453
872.743652,467
872.860962,445
872.978149,451
873.095337,443
873.212646,429
873.329834,454
873.44696,464
873.564209,456
873.681396,454
873.798645,454
873.915894,468
874.03302,446
874.150208,440
874.267456,446
874.384583,444
874.501831,453
874.618958,440
874.736145,453
874.853333,474
874.970459,453
875.087646,453
875.204834,441
875.32196,452
875.439148,467
875.556274,464
875.673401,443
875.790527,463
875.907715,465
876.024841,458
876.141968,449
876.259094,456
876.376282,455
876.493347,468
876.610474,458
876.7276,466
876.844727,462
876.961853,449
877.078918,459
877.195984,481
877.313171,471
877.430237,453
877.547302,451
877.664368,461
877.781433,447
877.898499,469
878.015625,443
878.13269,450
878.249695,467
878.366821,464
878.483887,452
878.600952,467
878.717957,452
878.834961,474
878.952087,454
879.069092,462
879.186157,435
879.303162,448
879.420227,443
879.537231,455
879.654236,438
879.77124,454
879.888306,449
880.005249,475
880.122314,459
880.239319,462
880.356323,440
880.473328,446
880.590271,440
880.707275,463
880.824341,430
880.941284,470
881.058228,462
881.175232,458
881.292236,459
881.40918,463
881.526123,451
881.643066,462
881.760071,464
881.877014,441
881.993958,449
882.11084,467
882.227783,447
882.344727,468
882.46167,448
882.578613,466
882.695618,463
882.812439,451
882.929382,459
883.046326,477
883.163208,444
883.280151,467
883.397034,451
883.513916,474
883.630798,444
883.747742,448
883.864563,479
883.981506,443
884.098389,462
884.21521,447
884.332153,462
884.448975,457
884.565796,444
884.682678,464
884.7995,453
884.916443,473
885.033264,456
885.150085,455
885.266968,473
885.383789,466
885.500671,458
885.617493,459
885.734314,457
885.851196,454
885.967896,469
886.084717,459
886.201599,455
886.318359,470
886.435181,469
886.552002,468
886.668762,459
886.785645,463
886.902344,467
887.019165,467
887.135925,469
887.252747,470
887.369446,451
887.486267,449
887.603027,469
887.719788,470
887.836548,441
887.953247,459
888.070068,469
888.186829,456
888.303528,464
888.420288,453
888.536987,472
888.653687,471
888.770447,458
888.887146,453
889.003967,449
889.120667,469
889.237305,444
889.354065,469
889.470703,467
889.587463,456
889.704163,475
889.820862,459
889.937561,440
890.054199,472
890.170837,478
890.287598,468
890.404236,461
890.520874,478
890.637634,451
890.754211,450
890.87085,458
890.987549,455
891.104187,455
891.220886,460
891.337463,464
891.454102,451
891.57074,465
891.687378,436
891.804077,447
891.920654,463
892.037231,469
892.15387,483
892.270447,460
892.387085,452
892.503723,451
892.6203,447
892.736877,453
892.853516,453
892.970032,472
893.08667,472
893.203186,448
893.319763,487
893.43634,452
893.552917,463
893.669556,451
893.786011,472
893.902588,478
894.019165,472
894.135681,471
894.252197,462
894.368835,464
894.485291,466
894.601868,473
894.718384,470
894.8349,460
894.951355,463
895.067932,454
895.184448,445
895.300964,481
895.417419,465
895.533936,483
895.650452,459
895.766907,469
895.883423,475
895.999878,445
896.116333,451
896.232849,462
896.349304,465
896.465759,469
896.582214,452
896.698669,465
896.815125,461
896.931641,448
897.048035,467
897.164551,465
897.280884,475
897.397339,466
897.513794,454
897.630249,489
897.746582,459
897.863098,454
897.979431,454
898.095886,463
898.212341,454
898.328674,484
898.445129,463
898.561462,452
898.677795,451
898.794312,458
898.910645,466
899.026978,476
899.143433,472
899.259766,462
899.37616,475
899.492493,445
899.608765,460
899.725159,472
899.841553,472
899.957947,455
900.07428,475
900.190552,465
900.306946,469
900.423157,452
900.53949,455
900.655884,471
900.772156,461
900.888489,461
901.004822,463
901.121033,457
901.237366,469
901.353699,451
901.46991,444
901.586304,464
901.702515,464
901.818787,478
901.93512,480
902.051331,460
902.167603,464
902.283875,461
902.400085,458
902.516418,456
902.632629,476
902.74884,458
902.865112,464
902.981384,451
903.097595,473
903.213867,474
903.330017,467
903.446289,471
903.5625,458
903.67865,463
903.794922,479
903.911072,461
904.027344,489
904.143494,467
904.259705,489
904.375916,453
904.492065,457
904.608215,461
904.724426,446
904.840576,462
904.956726,466
905.072876,482
905.189087,475
905.305176,469
905.421387,471
905.537537,468
905.653687,472
905.769775,462
905.885925,461
906.002014,468
906.118164,464
906.234314,474
906.350403,465
906.466492,479
906.582642,465
906.69873,458
906.814758,461
906.930908,466
907.046936,484
907.163086,470
907.279175,477
907.395264,469
907.511353,460
907.62738,461
907.743408,473
907.859497,459
907.975525,468
908.091553,459
908.207703,484
908.32373,477
908.439758,473
908.555786,455
908.671814,488
908.787842,446
908.90387,462
909.019775,460
909.135864,472
909.251892,453
909.367859,483
909.483826,472
909.599854,474
909.715881,468
909.831848,478
909.947815,462
910.063782,469
910.179749,475
910.295776,462
910.411743,463
910.527649,481
910.643616,476
910.759583,475
910.875488,477
910.991455,486
911.107361,471
911.223267,445
911.339294,463
911.4552,468
911.571106,472
911.687073,461
911.802979,462
911.918823,455
912.034729,473
912.150635,474
912.266602,469
912.382446,472
912.498352,458
912.614197,453
912.730103,470
912.846008,467
