792.44574,672
792.56488,696
792.68396,712
792.80304,692
792.92218,637
793.041199,626
793.160339,613
793.279419,639
793.398499,625
793.517578,595
793.636658,607
793.755737,609
793.874817,623
793.993896,612
794.112976,591
794.232056,587
794.351074,615
794.470215,578
794.589233,577
794.708313,537
794.827393,580
794.946411,578
795.065552,582
795.18457,569
795.303589,569
795.422668,574
795.541687,576
795.660767,560
795.779846,547
795.898865,545
796.017883,559
796.136963,567
796.255981,549
796.375061,574
796.49408,566
796.613037,546
796.732117,540
796.851135,561
796.970154,541
797.089233,539
797.208191,541
797.327271,542
797.446228,541
797.565186,527
797.684265,536
797.803223,536
797.922241,534
798.04126,534
798.160278,545
798.279297,522
798.398315,531
798.517273,536
798.636292,542
798.75531,528
798.874268,519
798.993286,523
799.112244,529
799.231323,554
799.350281,517
799.469238,530
799.588257,537
799.707153,516
799.826111,547
799.945129,531
800.064087,514
800.183044,522
800.302063,526
800.421021,534
800.539978,531
800.658936,525
800.777893,528
800.896912,517
801.015747,529
801.134705,550
801.253723,506
801.37262,532
801.491638,493
801.610535,509
801.729492,517
801.84845,527
801.967407,508
802.086243,501
802.205261,511
802.324158,523
802.443115,510
802.562073,507
802.680969,526
802.799927,488
802.918762,516
803.037659,495
803.156677,507
803.275574,508
803.39447,519
803.513428,493
803.632263,495
803.751221,530
803.870117,499
803.989014,490
804.107971,516
804.226746,510
804.345642,516
804.4646,523
804.583496,503
804.702393,506
804.821228,504
804.940125,513
805.059021,502
805.177917,505
805.296814,488
805.415649,523
805.534546,496
805.653442,501
805.772278,498
805.891113,513
806.01001,505
806.128906,506
806.247742,504
806.366577,513
806.485413,506
806.604309,518
806.723145,493
806.84198,499
806.960876,496
807.079712,515
807.198486,503
807.317383,513
807.436218,508
807.554993,500
807.673889,502
807.792725,511
807.91156,478
808.030396,503
808.14917,490
808.268005,483
808.386841,490
808.505676,503
808.624451,501
808.743286,516
808.862122,482
808.980896,502
809.099731,498
809.218506,491
809.337341,495
809.456116,522
809.57489,506
809.693726,507
809.8125,498
809.931274,502
810.050049,484
810.168884,523
810.287659,497
810.406372,509
810.525269,510
810.643982,502
810.762756,507
810.881531,487
811.000305,489
811.11908,523
811.237854,499
811.356567,518
811.475403,493
811.594116,516
811.71283,506
811.831604,503
811.950378,479
812.069153,502
812.187927,496
812.30658,507
812.425415,496
812.544128,483
812.662781,507
812.781616,500
812.900269,493
813.019043,491
813.137756,478
813.256531,511
813.375244,484
813.493896,508
813.612671,507
813.731384,488
813.850037,506
813.96875,521
814.087524,511
814.206238,507
814.324951,492
814.443604,504
814.562256,482
814.68103,527
814.799683,482
814.918335,516
815.037109,485
815.155762,475
815.274475,504
815.393188,495
815.511841,494
815.630554,500
815.749146,502
815.867859,485
815.986572,489
816.105164,512
816.223877,480
816.342529,480
816.461182,515
816.579895,514
816.698486,482
816.817139,495
816.935791,488
817.054504,501
817.173096,501
817.291748,470
817.4104,487
817.529053,491
817.647644,487
817.766235,503
817.884949,494
818.00354,501
818.122192,480
818.240845,499
818.359436,480
818.478088,459
818.59668,481
818.715271,483
818.833923,496
818.952515,488
819.071106,467
819.189758,485
819.30835,466
819.426941,469
819.545532,472
819.664124,493
819.782715,459
819.901306,470
820.019897,503
820.138489,501
820.25708,467
820.375671,499
820.494202,478
820.612732,469
820.731384,481
820.849915,482
820.968506,471
821.087097,451
821.205627,473
821.324158,473
821.442749,466
821.561279,474
821.679871,481
821.798401,486
821.916931,462
822.035461,478
822.154053,457
822.272583,474
822.391174,466
822.509583,453
822.628174,464
822.746704,464
822.865234,457
822.983765,481
823.102295,499
823.220825,479
823.339294,459
823.457825,456
823.576355,462
823.694824,477
823.813354,456
823.931885,462
824.050354,451
824.168884,479
824.287354,465
824.405823,459
824.524353,480
824.642822,466
824.761353,453
824.879822,466
824.998291,483
825.116699,478
825.235291,443
825.353699,477
825.472168,469
825.590637,462
825.709106,463
825.827576,446
825.946045,480
826.064453,467
826.182983,466
826.301392,450
826.4198,473
826.53833,474
826.656738,480
826.775208,481
826.893677,454
827.012024,466
827.130493,455
827.248962,460
827.36731,445
827.485779,459
827.604248,458
827.722595,462
827.841064,452
827.959412,469
828.077942,447
828.196289,478
828.314636,464
828.433105,465
828.551514,463
828.669861,465
828.78833,457
828.906677,447
829.025085,474
829.143433,457
829.261841,466
829.38031,456
829.498657,461
829.617004,461
829.735413,460
829.85376,450
829.972107,450
830.090515,471
830.208862,458
830.327209,463
830.445557,448
830.563904,453
830.682312,482
830.800659,453
830.919006,453
831.037354,448
831.155701,489
831.274048,473
831.392395,448
831.51062,455
831.629028,448
831.747314,450
831.865662,452
831.984009,441
832.102356,457
832.220642,472
832.338928,474
832.457275,462
832.575623,458
832.693909,459
832.812134,487
832.930481,474
833.048828,465
833.167114,449
833.2854,466
833.403687,457
833.521973,471
833.640259,461
833.758545,438
833.876831,463
833.995056,467
834.113281,461
834.231628,480
834.349915,461
834.468201,461
834.586426,450
834.704651,461
834.822998,475
834.941162,472
835.059448,457
835.177673,472
835.295959,481
835.414246,461
835.53241,454
835.650635,422
835.768921,458
835.887146,443
836.005371,457
836.123596,454
836.241821,460
836.360046,470
836.478271,460
836.596497,444
836.714722,468
836.832886,442
836.95105,482
837.069336,452
837.1875,453
837.305725,437
837.423889,462
837.542053,462
837.660339,448
837.778503,460
837.896667,464
838.014832,459
838.132996,459
838.25116,458
838.369385,472
838.487488,469
838.605713,472
838.723877,447
838.84198,457
838.960205,479
839.078308,453
839.196472,439
839.314636,456
839.4328,463
839.550964,466
839.669067,447
839.787231,468
839.905396,440
840.023499,467
840.141602,474
840.259766,461
840.377869,466
840.495972,473
840.614136,454
840.732239,465
840.850342,465
840.968445,467
841.086548,478
841.204651,482
841.322754,493
841.440918,470
841.55896,459
841.677002,468
841.795166,471
841.913208,460
842.031311,459
842.149353,479
842.267456,479
842.385498,475
842.503601,461
842.621643,453
842.739746,463
842.857788,475
842.97583,452
843.093933,476
843.211975,475
843.330017,466
843.44812,476
843.566101,472
843.684204,476
843.802246,455
843.920227,467
844.038269,472
844.156311,472
844.274292,471
844.392395,461
844.510376,461
844.628357,478
844.74646,473
844.864441,469
844.982422,449
845.100403,484
845.218384,455
845.336426,451
845.454468,473
845.572449,457
845.69043,467
845.808411,471
845.926453,470
846.044373,467
846.162354,467
846.280396,481
846.398315,474
846.516296,462
846.634216,470
846.752197,470
846.870178,474
846.988098,465
847.106079,474
847.22406,471
847.34198,451
847.4599,472
847.577881,473
847.695801,461
847.813782,458
847.931641,474
848.049561,476
848.167603,469
848.285461,453
848.403381,452
848.521362,483
848.639221,462
848.75708,465
848.875,458
848.99292,495
849.110901,487
849.22876,468
849.34668,470
849.464539,482
849.582458,489
849.700317,467
849.818176,467
849.936096,470
850.053955,462
850.171875,494
850.289673,469
850.407593,479
850.525452,468
850.643311,473
850.761169,495
850.878967,457
850.996887,445
851.114746,476
851.232544,478
851.350403,489
851.468262,459
851.58606,488
851.703979,469
851.821777,473
851.939636,474
852.057434,467
852.175232,460
852.293091,480
852.410889,469
852.528687,491
852.646545,485
852.764343,483
852.88208,469
852.999939,459
853.117676,480
853.235535,465
853.353271,466
853.471069,491
853.588928,472
853.706604,470
853.824402,466
853.9422,468
854.059998,456
854.177734,434
854.295532,462
854.413269,481
854.531006,457
854.648804,476
854.766541,460
854.884277,476
855.002014,475
855.119751,468
855.237549,477
855.355225,478
855.473022,461
855.590698,445
855.708435,449
855.826172,468
855.943848,459
856.061646,459
856.179321,489
856.296997,478
856.414795,473
856.53241,469
856.650085,484
856.767822,475
856.885559,482
857.003174,466
857.120911,474
857.238586,461
857.356201,474
857.473938,477
857.591614,474
857.709351,474
857.826965,477
857.944641,482
858.062317,473
858.179993,473
858.297668,475
858.415283,476
858.532959,475
858.650574,479
858.768188,475
858.885803,471
859.003479,465
859.121094,472
859.23877,465
859.356384,471
859.473999,484
859.591675,460
859.709229,464
859.826843,465
859.944458,443
860.062012,469
860.179626,468
860.297302,486
860.414856,479
860.532471,473
860.650024,446
860.767639,467
860.885193,471
861.002808,469
861.120361,448
861.237976,489
861.35553,455
861.473022,454
861.590698,465
861.708191,469
861.825745,478
861.943298,469
862.060852,478
862.178406,495
862.295959,473
862.413513,443
862.531006,458
862.64856,462
862.766113,472
862.883667,440
863.00116,456
863.118713,480
863.236206,473
863.353699,480
863.471252,456
863.588745,476
863.706177,482
863.82373,465
863.941162,465
864.058716,463
864.176208,473
864.29364,473
864.411194,461
864.528687,474
864.646118,474
864.763611,459
864.881042,452
864.998535,478
865.116028,461
865.233459,459
865.350891,439
865.468384,450
865.585754,447
865.703308,458
865.820679,454
865.938171,454
866.055542,481
866.173035,468
866.290466,447
866.407837,467
866.52533,452
866.6427,484
866.760071,471
866.877563,455
866.994934,462
867.112305,460
867.229736,462
867.347107,454
867.464539,456
867.58197,463
867.699341,456
867.81665,465
867.934082,470
868.051453,471
868.168823,476
868.286194,457
868.403564,472
868.520935,449
868.638306,466
868.755676,465
868.872986,470
868.990295,461
869.107727,475
869.225037,455
869.342346,468
869.459717,479
869.577026,468
869.694336,476
869.811707,464
869.929016,489
870.046326,490
870.163635,480
870.280945,460
870.398254,471
870.515564,479
870.632812,484
870.750183,463
870.867432,465
870.984741,466
871.102051,473
871.219299,463
871.336609,489
871.453918,465
871.571106,454
871.688416,473
871.805664,493
871.922852,464
872.040222,474
872.157471,481
872.274719,487
872.391968,486
872.509155,465
872.626465,474
872.743652,464
872.860962,458
872.978149,474
873.095337,492
873.212646,473
873.329834,477
873.44696,474
873.564209,466
873.681396,474
873.798645,472
873.915894,460
874.03302,474
874.150208,469
874.267456,463
874.384583,490
874.501831,459
874.618958,464
874.736145,462
874.853333,475
874.970459,474
875.087646,484
875.204834,488
875.32196,483
875.439148,470
875.556274,478
875.673401,492
875.790527,464
875.907715,468
876.024841,467
876.141968,474
876.259094,476
876.376282,469
876.493347,486
876.610474,463
876.7276,475
876.844727,456
876.961853,482
877.078918,477
877.195984,470
877.313171,467
877.430237,470
877.547302,483
877.664368,471
877.781433,482
877.898499,457
878.015625,467
878.13269,472
878.249695,478
878.366821,493
878.483887,466
878.600952,459
878.717957,459
878.834961,469
878.952087,459
879.069092,465
879.186157,457
879.303162,460
879.420227,448
879.537231,474
879.654236,457
879.77124,453
879.888306,459
880.005249,465
880.122314,463
880.239319,489
880.356323,454
880.473328,488
880.590271,448
880.707275,462
880.824341,468
880.941284,473
881.058228,471
881.175232,485
881.292236,443
881.40918,467
881.526123,465
881.643066,467
881.760071,459
881.877014,461
881.993958,458
882.11084,472
882.227783,458
882.344727,459
882.46167,472
882.578613,464
882.695618,451
882.812439,460
882.929382,461
883.046326,470
883.163208,489
883.280151,461
883.397034,452
883.513916,473
883.630798,463
883.747742,488
883.864563,474
883.981506,451
884.098389,463
884.21521,464
884.332153,475
884.448975,457
884.565796,495
884.682678,482
884.7995,476
884.916443,471
885.033264,521
885.150085,497
885.266968,469
885.383789,505
885.500671,490
885.617493,505
885.734314,490
885.851196,505
885.967896,490
886.084717,497
886.201599,499
886.318359,491
886.435181,488
886.552002,487
886.668762,473
886.785645,479
886.902344,492
887.019165,487
887.135925,489
887.252747,486
887.369446,476
887.486267,479
887.603027,472
887.719788,505
887.836548,471
887.953247,464
888.070068,471
888.186829,483
888.303528,453
888.420288,472
888.536987,447
888.653687,460
888.770447,486
888.887146,468
889.003967,469
889.120667,456
889.237305,455
889.354065,476
889.470703,465
889.587463,460
889.704163,473
889.820862,448
889.937561,463
890.054199,485
890.170837,447
890.287598,467
890.404236,458
890.520874,454
890.637634,492
890.754211,459
890.87085,457
890.987549,473
891.104187,468
891.220886,468
891.337463,469
891.454102,464
891.57074,492
891.687378,466
891.804077,459
891.920654,460
892.037231,447
892.15387,480
892.270447,461
892.387085,468
892.503723,459
892.6203,472
892.736877,472
892.853516,456
892.970032,472
893.08667,482
893.203186,466
893.319763,472
893.43634,451
893.552917,474
893.669556,465
893.786011,480
893.902588,458
894.019165,462
894.135681,454
894.252197,467
894.368835,466
894.485291,481
894.601868,458
894.718384,470
894.8349,464
894.951355,467
895.067932,476
895.184448,487
895.300964,468
895.417419,461
895.533936,452
895.650452,459
895.766907,472
895.883423,466
895.999878,448
896.116333,465
896.232849,461
896.349304,471
896.465759,470
896.582214,477
896.698669,464
896.815125,470
896.931641,466
897.048035,456
897.164551,462
897.280884,468
897.397339,465
897.513794,459
897.630249,487
897.746582,451
897.863098,461
897.979431,475
898.095886,452
898.212341,452
898.328674,454
898.445129,477
898.561462,468
898.677795,475
898.794312,461
898.910645,469
899.026978,451
899.143433,460
899.259766,468
899.37616,476
899.492493,469
899.608765,459
899.725159,465
899.841553,465
899.957947,470
900.07428,472
900.190552,477
900.306946,479
900.423157,456
900.53949,479
900.655884,464
900.772156,469
900.888489,478
901.004822,478
901.121033,463
901.237366,480
901.353699,469
901.46991,468
901.586304,462
901.702515,468
901.818787,482
901.93512,462
902.051331,485
902.167603,472
902.283875,493
902.400085,492
902.516418,463
902.632629,492
902.74884,494
902.865112,474
902.981384,486
903.097595,494
903.213867,478
903.330017,486
903.446289,473
903.5625,493
903.67865,471
903.794922,479
903.911072,476
904.027344,487
904.143494,476
904.259705,463
904.375916,464
904.492065,476
904.608215,481
904.724426,484
904.840576,476
904.956726,480
905.072876,487
905.189087,473
905.305176,501
905.421387,466
905.537537,475
905.653687,476
905.769775,438
905.885925,474
906.002014,462
906.118164,475
906.234314,451
906.350403,462
906.466492,479
906.582642,471
906.69873,470
906.814758,464
906.930908,467
907.046936,483
907.163086,476
907.279175,490
907.395264,456
907.511353,472
907.62738,473
907.743408,461
907.859497,465
907.975525,468
908.091553,457
908.207703,467
908.32373,487
908.439758,469
908.555786,479
908.671814,488
908.787842,452
908.90387,479
909.019775,469
909.135864,466
909.251892,464
909.367859,484
909.483826,469
909.599854,463
909.715881,467
909.831848,448
909.947815,479
910.063782,463
910.179749,483
910.295776,459
910.411743,478
910.527649,463
910.643616,476
910.759583,459
910.875488,469
910.991455,485
911.107361,474
911.223267,488
911.339294,464
911.4552,455
911.571106,473
911.687073,475
911.802979,481
911.918823,466
912.034729,468
912.150635,483
912.266602,478
912.382446,472
912.498352,458
912.614197,460
912.730103,473
912.846008,473
792.44574,668
792.56488,678
792.68396,698
792.80304,683
792.92218,646
793.041199,607
793.160339,604
793.279419,627
793.398499,625
793.517578,578
793.636658,592
793.755737,590
793.874817,624
793.993896,602
794.112976,599
794.232056,603
794.351074,588
794.470215,574
794.589233,584
794.708313,582
794.827393,576
794.946411,582
795.065552,578
795.18457,564
795.303589,569
795.422668,574
795.541687,571
795.660767,587
795.779846,543
795.898865,568
796.017883,548
796.136963,554
796.255981,558
796.375061,558
796.49408,563
796.613037,555
796.732117,533
796.851135,536
796.970154,537
797.089233,547
797.208191,552
797.327271,536
797.446228,512
797.565186,540
797.684265,534
797.803223,541
797.922241,529
798.04126,537
798.160278,538
798.279297,516
798.398315,535
798.517273,556
798.636292,515
798.75531,538
798.874268,520
798.993286,529
799.112244,538
799.231323,528
799.350281,535
799.469238,525
799.588257,518
799.707153,519
799.826111,510
799.945129,511
800.064087,519
800.183044,535
800.302063,524
800.421021,528
800.539978,524
800.658936,533
800.777893,546
800.896912,531
801.015747,515
801.134705,530
801.253723,515
801.37262,530
801.491638,543
801.610535,509
801.729492,517
801.84845,511
801.967407,511
802.086243,512
802.205261,510
802.324158,522
802.443115,518
802.562073,515
802.680969,499
802.799927,526
802.918762,529
803.037659,521
803.156677,506
803.275574,498
803.39447,519
803.513428,513
803.632263,512
803.751221,502
803.870117,501
803.989014,515
804.107971,513
804.226746,531
804.345642,500
804.4646,517
804.583496,503
804.702393,508
804.821228,501
804.940125,515
805.059021,483
805.177917,505
805.296814,498
805.415649,501
805.534546,509
805.653442,526
805.772278,499
805.891113,519
806.01001,503
806.128906,503
806.247742,527
806.366577,507
806.485413,499
806.604309,525
806.723145,505
806.84198,519
806.960876,529
807.079712,527
807.198486,489
807.317383,505
807.436218,507
807.554993,514
807.673889,512
807.792725,503
807.91156,509
808.030396,496
808.14917,501
808.268005,501
808.386841,496
808.505676,495
808.624451,516
808.743286,487
808.862122,497
808.980896,500
809.099731,493
809.218506,516
809.337341,490
809.456116,519
809.57489,509
809.693726,492
809.8125,496
809.931274,521
810.050049,493
810.168884,495
810.287659,514
810.406372,481
810.525269,538
810.643982,522
810.762756,497
810.881531,513
811.000305,497
811.11908,508
811.237854,488
811.356567,516
811.475403,510
811.594116,499
811.71283,515
811.831604,517
811.950378,523
812.069153,499
812.187927,499
812.30658,490
812.425415,513
812.544128,497
812.662781,477
812.781616,508
812.900269,500
813.019043,515
813.137756,511
813.256531,498
813.375244,500
813.493896,515
813.612671,524
813.731384,505
813.850037,490
813.96875,497
814.087524,471
814.206238,499
814.324951,500
814.443604,494
814.562256,523
814.68103,503
814.799683,487
814.918335,501
815.037109,477
815.155762,513
815.274475,494
815.393188,495
815.511841,484
815.630554,501
815.749146,483
815.867859,505
815.986572,496
816.105164,503
816.223877,507
816.342529,489
816.461182,502
816.579895,490
816.698486,506
816.817139,487
816.935791,492
817.054504,494
817.173096,486
817.291748,499
817.4104,491
817.529053,480
817.647644,472
817.766235,495
817.884949,490
818.00354,501
818.122192,482
818.240845,488
818.359436,471
818.478088,488
818.59668,483
818.715271,486
818.833923,491
818.952515,476
819.071106,468
819.189758,488
819.30835,469
819.426941,486
819.545532,474
819.664124,471
819.782715,477
819.901306,482
820.019897,475
820.138489,473
820.25708,480
820.375671,463
820.494202,453
820.612732,475
820.731384,460
820.849915,461
820.968506,463
821.087097,478
821.205627,468
821.324158,488
821.442749,478
821.561279,482
821.679871,457
821.798401,475
821.916931,475
822.035461,486
822.154053,471
822.272583,479
822.391174,471
822.509583,477
822.628174,489
822.746704,470
822.865234,469
822.983765,469
823.102295,469
823.220825,461
823.339294,476
823.457825,480
823.576355,453
823.694824,459
823.813354,480
823.931885,458
824.050354,456
824.168884,446
824.287354,478
824.405823,479
824.524353,460
824.642822,477
824.761353,491
824.879822,462
824.998291,451
825.116699,454
825.235291,458
825.353699,488
825.472168,474
825.590637,471
825.709106,473
825.827576,453
825.946045,465
826.064453,483
826.182983,449
826.301392,471
826.4198,471
826.53833,462
826.656738,488
826.775208,453
826.893677,479
827.012024,470
827.130493,452
827.248962,467
827.36731,461
827.485779,474
827.604248,460
827.722595,457
827.841064,446
827.959412,465
828.077942,457
828.196289,456
828.314636,465
828.433105,457
828.551514,449
828.669861,453
828.78833,453
828.906677,463
829.025085,474
829.143433,472
829.261841,436
829.38031,450
829.498657,451
829.617004,458
829.735413,465
829.85376,465
829.972107,459
830.090515,462
830.208862,452
830.327209,461
830.445557,466
830.563904,465
830.682312,464
830.800659,458
830.919006,463
831.037354,485
831.155701,441
831.274048,470
831.392395,463
831.51062,456
831.629028,456
831.747314,471
831.865662,462
831.984009,467
832.102356,493
832.220642,470
832.338928,458
832.457275,470
832.575623,472
832.693909,468
832.812134,465
832.930481,461
833.048828,462
833.167114,472
833.2854,476
833.403687,471
833.521973,446
833.640259,453
833.758545,462
833.876831,454
833.995056,446
834.113281,441
834.231628,466
834.349915,459
834.468201,436
834.586426,474
834.704651,455
834.822998,462
834.941162,459
835.059448,448
835.177673,467
835.295959,478
835.414246,456
835.53241,452
835.650635,466
835.768921,472
835.887146,466
836.005371,473
836.123596,451
836.241821,459
836.360046,457
836.478271,449
836.596497,469
836.714722,464
836.832886,450
836.95105,433
837.069336,481
837.1875,443
837.305725,471
837.423889,464
837.542053,464
837.660339,480
837.778503,450
837.896667,454
838.014832,459
838.132996,446
838.25116,437
838.369385,462
838.487488,464
838.605713,463
838.723877,447
838.84198,470
838.960205,479
839.078308,480
839.196472,474
839.314636,474
839.4328,470
839.550964,462
839.669067,483
839.787231,457
839.905396,473
840.023499,473
840.141602,483
840.259766,470
840.377869,468
840.495972,486
840.614136,459
840.732239,462
840.850342,487
840.968445,479
841.086548,465
841.204651,467
841.322754,456
841.440918,490
841.55896,457
841.677002,468
841.795166,467
841.913208,492
842.031311,477
842.149353,475
842.267456,473
842.385498,481
842.503601,474
842.621643,458
842.739746,477
842.857788,463
842.97583,476
843.093933,481
843.211975,469
843.330017,473
843.44812,460
843.566101,485
843.684204,465
843.802246,480
843.920227,489
844.038269,467
844.156311,488
844.274292,475
844.392395,474
844.510376,492
844.628357,462
844.74646,481
844.864441,469
844.982422,476
845.100403,472
845.218384,487
845.336426,469
845.454468,452
845.572449,473
845.69043,482
845.808411,444
845.926453,461
846.044373,481
846.162354,459
846.280396,460
846.398315,477
846.516296,468
846.634216,469
846.752197,454
846.870178,472
846.988098,479
847.106079,459
847.22406,455
847.34198,485
847.4599,476
847.577881,487
847.695801,469
847.813782,487
847.931641,480
848.049561,471
848.167603,471
848.285461,460
848.403381,456
848.521362,475
848.639221,470
848.75708,468
848.875,468
848.99292,470
849.110901,464
849.22876,473
849.34668,487
849.464539,462
849.582458,485
849.700317,483
849.818176,469
849.936096,480
850.053955,479
850.171875,482
850.289673,454
850.407593,493
850.525452,487
850.643311,479
850.761169,490
850.878967,456
850.996887,477
851.114746,476
851.232544,489
851.350403,496
851.468262,462
851.58606,469
851.703979,491
851.821777,470
851.939636,454
852.057434,482
852.175232,467
852.293091,472
852.410889,462
852.528687,473
852.646545,495
852.764343,494
852.88208,503
852.999939,483
853.117676,468
853.235535,457
853.353271,460
853.471069,461
853.588928,464
853.706604,478
853.824402,468
853.9422,470
854.059998,470
854.177734,460
854.295532,452
854.413269,472
854.531006,463
854.648804,469
854.766541,454
854.884277,476
855.002014,459
855.119751,457
855.237549,477
855.355225,484
855.473022,480
855.590698,456
855.708435,468
855.826172,465
855.943848,454
856.061646,455
856.179321,472
856.296997,466
856.414795,468
856.53241,477
856.650085,474
856.767822,477
856.885559,480
857.003174,462
857.120911,479
857.238586,454
857.356201,461
857.473938,473
857.591614,472
857.709351,493
857.826965,477
857.944641,473
858.062317,469
858.179993,463
858.297668,478
858.415283,478
858.532959,467
858.650574,480
858.768188,474
858.885803,461
859.003479,471
859.121094,448
859.23877,475
859.356384,470
859.473999,465
859.591675,461
859.709229,480
859.826843,446
859.944458,464
860.062012,480
860.179626,471
860.297302,471
860.414856,449
860.532471,452
860.650024,471
860.767639,486
860.885193,463
861.002808,462
861.120361,479
861.237976,470
861.35553,471
861.473022,465
861.590698,470
861.708191,472
861.825745,470
861.943298,480
862.060852,450
862.178406,473
862.295959,456
862.413513,472
862.531006,439
862.64856,474
862.766113,478
862.883667,456
863.00116,457
863.118713,463
863.236206,462
863.353699,468
863.471252,455
863.588745,471
863.706177,443
863.82373,458
863.941162,454
864.058716,463
864.176208,456
864.29364,459
864.411194,455
864.528687,467
864.646118,459
864.763611,468
864.881042,449
864.998535,466
865.116028,455
865.233459,457
865.350891,466
865.468384,480
865.585754,487
865.703308,464
865.820679,452
865.938171,473
866.055542,455
866.173035,461
866.290466,455
866.407837,471
866.52533,475
866.6427,451
866.760071,453
866.877563,478
866.994934,466
867.112305,469
867.229736,472
867.347107,462
867.464539,467
867.58197,487
867.699341,458
867.81665,464
867.934082,442
868.051453,462
868.168823,461
868.286194,455
868.403564,470
868.520935,458
868.638306,476
868.755676,467
868.872986,464
868.990295,473
869.107727,442
869.225037,467
869.342346,461
869.459717,465
869.577026,470
869.694336,462
869.811707,467
869.929016,462
870.046326,476
870.163635,482
870.280945,457
870.398254,486
870.515564,481
870.632812,473
870.750183,471
870.867432,478
870.984741,457
871.102051,466
871.219299,479
871.336609,478
871.453918,465
871.571106,484
871.688416,489
871.805664,458
871.922852,480
872.040222,482
872.157471,487
872.274719,483
872.391968,499
872.509155,471
872.626465,464
872.743652,475
872.860962,481
872.978149,475
873.095337,476
873.212646,482
873.329834,487
873.44696,485
873.564209,473
873.681396,458
873.798645,464
873.915894,471
874.03302,473
874.150208,495
874.267456,478
874.384583,472
874.501831,488
874.618958,478
874.736145,489
874.853333,487
874.970459,474
875.087646,480
875.204834,483
875.32196,471
875.439148,486
875.556274,468
875.673401,468
875.790527,488
875.907715,479
876.024841,486
876.141968,470
876.259094,466
876.376282,489
876.493347,471
876.610474,476
876.7276,478
876.844727,484
876.961853,470
877.078918,473
877.195984,477
877.313171,486
877.430237,485
877.547302,471
877.664368,467
877.781433,470
877.898499,481
878.015625,474
878.13269,484
878.249695,483
878.366821,470
878.483887,465
878.600952,455
878.717957,461
878.834961,474
878.952087,484
879.069092,491
879.186157,464
879.303162,459
879.420227,453
879.537231,461
879.654236,471
879.77124,488
879.888306,478
880.005249,473
880.122314,467
880.239319,449
880.356323,465
880.473328,474
880.590271,464
880.707275,454
880.824341,464
880.941284,460
881.058228,467
881.175232,455
881.292236,458
881.40918,482
881.526123,467
881.643066,477
881.760071,475
881.877014,475
881.993958,471
882.11084,457
882.227783,458
882.344727,455
882.46167,465
882.578613,484
882.695618,476
882.812439,472
882.929382,472
883.046326,478
883.163208,467
883.280151,466
883.397034,478
883.513916,476
883.630798,475
883.747742,478
883.864563,464
883.981506,476
884.098389,463
884.21521,482
884.332153,475
884.448975,479
884.565796,500
884.682678,482
884.7995,477
884.916443,474
885.033264,493
885.150085,489
885.266968,506
885.383789,522
885.500671,509
885.617493,510
885.734314,504
885.851196,491
885.967896,486
886.084717,505
886.201599,487
886.318359,499
886.435181,475
886.552002,479
886.668762,479
886.785645,501
886.902344,491
887.019165,460
887.135925,484
887.252747,481
887.369446,481
887.486267,471
887.603027,476
887.719788,477
887.836548,493
887.953247,466
888.070068,487
888.186829,484
888.303528,487
888.420288,483
888.536987,460
888.653687,465
888.770447,478
888.887146,468
889.003967,461
889.120667,471
889.237305,483
889.354065,463
889.470703,475
889.587463,484
889.704163,468
889.820862,485
889.937561,464
890.054199,468
890.170837,479
890.287598,441
890.404236,459
890.520874,489
890.637634,476
890.754211,460
890.87085,460
890.987549,432
891.104187,455
891.220886,482
891.337463,480
891.454102,477
891.57074,454
891.687378,472
891.804077,465
891.920654,446
892.037231,471
892.15387,468
892.270447,452
892.387085,502
892.503723,465
892.6203,488
892.736877,450
892.853516,478
892.970032,473
893.08667,491
893.203186,480
893.319763,465
893.43634,481
893.552917,458
893.669556,460
893.786011,462
893.902588,466
894.019165,485
894.135681,481
894.252197,465
894.368835,453
894.485291,464
894.601868,471
894.718384,478
894.8349,467
894.951355,481
895.067932,448
895.184448,461
895.300964,469
895.417419,481
895.533936,452
895.650452,467
895.766907,463
895.883423,466
895.999878,478
896.116333,476
896.232849,461
896.349304,476
896.465759,478
896.582214,456
896.698669,491
896.815125,468
896.931641,465
897.048035,474
897.164551,465
897.280884,441
897.397339,477
897.513794,467
897.630249,459
897.746582,483
897.863098,488
897.979431,462
898.095886,463
898.212341,467
898.328674,463
898.445129,451
898.561462,478
898.677795,480
898.794312,476
898.910645,492
899.026978,464
899.143433,477
899.259766,464
899.37616,465
899.492493,461
899.608765,496
899.725159,470
899.841553,470
899.957947,484
900.07428,477
900.190552,468
900.306946,476
900.423157,455
900.53949,479
900.655884,466
900.772156,482
900.888489,459
901.004822,458
901.121033,465
901.237366,478
901.353699,473
901.46991,495
901.586304,448
901.702515,466
901.818787,471
901.93512,498
902.051331,484
902.167603,498
902.283875,496
902.400085,482
902.516418,505
902.632629,487
902.74884,483
902.865112,504
902.981384,499
903.097595,494
903.213867,482
903.330017,500
903.446289,489
903.5625,478
903.67865,494
903.794922,489
903.911072,459
904.027344,483
904.143494,470
904.259705,475
904.375916,481
904.492065,484
904.608215,479
904.724426,466
904.840576,474
904.956726,464
905.072876,462
905.189087,471
905.305176,470
905.421387,487
905.537537,485
905.653687,470
905.769775,475
905.885925,470
906.002014,480
906.118164,487
906.234314,480
906.350403,467
906.466492,465
906.582642,487
906.69873,476
906.814758,483
906.930908,477
907.046936,461
907.163086,481
907.279175,463
907.395264,469
907.511353,482
907.62738,473
907.743408,482
907.859497,475
907.975525,471
908.091553,469
908.207703,492
908.32373,473
908.439758,464
908.555786,455
908.671814,477
908.787842,463
908.90387,468
909.019775,475
909.135864,466
909.251892,480
909.367859,490
909.483826,474
909.599854,464
909.715881,465
909.831848,490
909.947815,481
910.063782,462
910.179749,482
910.295776,469
910.411743,478
910.527649,465
910.643616,472
910.759583,485
910.875488,462
910.991455,463
911.107361,470
911.223267,488
911.339294,459
911.4552,484
911.571106,479
911.687073,475
911.802979,469
911.918823,469
912.034729,504
912.150635,472
912.266602,462
912.382446,470
912.498352,455
912.614197,468
912.730103,473
912.846008,463
792.44574,654
792.56488,669
792.68396,716
792.80304,673
792.92218,650
793.041199,612
793.160339,619
793.279419,629
793.398499,632
793.517578,623
793.636658,583
793.755737,616
793.874817,609
793.993896,603
794.112976,614
794.232056,615
794.351074,570
794.470215,575
794.589233,577
794.708313,550
794.827393,570
794.946411,580
795.065552,570
795.18457,579
795.303589,582
795.422668,571
795.541687,562
795.660767,560
795.779846,561
795.898865,524
796.017883,578
796.136963,555
796.255981,592
796.375061,558
796.49408,560
796.613037,551
796.732117,563
796.851135,576
796.970154,547
797.089233,533
797.208191,552
797.327271,528
797.446228,538
797.565186,521
797.684265,546
797.803223,537
797.922241,517
798.04126,541
798.160278,532
798.279297,533
798.398315,518
798.517273,520
798.636292,539
798.75531,534
798.874268,519
798.993286,518
799.112244,549
799.231323,537
799.350281,540
799.469238,540
799.588257,539
799.707153,526
799.826111,529
799.945129,539
800.064087,514
800.183044,514
800.302063,524
800.421021,519
800.539978,521
800.658936,508
800.777893,518
800.896912,529
801.015747,523
801.134705,491
801.253723,507
801.37262,508
801.491638,519
801.610535,502
801.729492,523
801.84845,518
801.967407,527
802.086243,508
802.205261,542
802.324158,517
802.443115,485
802.562073,527
802.680969,505
802.799927,497
802.918762,539
803.037659,519
803.156677,508
803.275574,489
803.39447,506
803.513428,506
803.632263,506
803.751221,498
803.870117,516
803.989014,517
804.107971,493
804.226746,513
804.345642,505
804.4646,506
804.583496,521
804.702393,518
804.821228,507
804.940125,506
805.059021,512
805.177917,518
805.296814,509
805.415649,506
805.534546,518
805.653442,488
805.772278,501
805.891113,500
806.01001,524
806.128906,514
806.247742,513
806.366577,504
806.485413,501
806.604309,518
806.723145,510
806.84198,521
806.960876,523
807.079712,511
807.198486,481
807.317383,494
807.436218,503
807.554993,510
807.673889,494
807.792725,500
807.91156,503
808.030396,507
808.14917,490
808.268005,492
808.386841,525
808.505676,491
808.624451,514
808.743286,508
808.862122,505
808.980896,495
809.099731,508
809.218506,483
809.337341,519
809.456116,494
809.57489,509
809.693726,499
809.8125,503
809.931274,511
810.050049,503
810.168884,509
810.287659,505
810.406372,508
810.525269,511
810.643982,483
810.762756,501
810.881531,495
811.000305,505
811.11908,503
811.237854,506
811.356567,481
811.475403,493
811.594116,513
811.71283,491
811.831604,498
811.950378,504
812.069153,505
812.187927,517
812.30658,498
812.425415,505
812.544128,486
812.662781,494
812.781616,521
812.900269,495
813.019043,503
813.137756,520
813.256531,478
813.375244,501
813.493896,499
813.612671,508
813.731384,490
813.850037,504
813.96875,495
814.087524,516
814.206238,488
814.324951,497
814.443604,495
814.562256,519
814.68103,512
814.799683,495
814.918335,496
815.037109,504
815.155762,520
815.274475,526
815.393188,509
815.511841,498
815.630554,495
815.749146,482
815.867859,488
815.986572,481
816.105164,487
816.223877,502
816.342529,492
816.461182,478
816.579895,517
816.698486,482
816.817139,502
816.935791,494
817.054504,488
817.173096,509
817.291748,499
817.4104,500
817.529053,483
817.647644,484
817.766235,488
817.884949,492
818.00354,494
818.122192,492
818.240845,468
818.359436,494
818.478088,481
818.59668,485
818.715271,499
818.833923,477
818.952515,474
819.071106,476
819.189758,485
819.30835,480
819.426941,481
819.545532,483
819.664124,483
819.782715,488
819.901306,466
820.019897,482
820.138489,472
820.25708,490
820.375671,459
820.494202,472
820.612732,497
820.731384,477
820.849915,494
820.968506,480
821.087097,489
821.205627,484
821.324158,476
821.442749,471
821.561279,486
821.679871,477
821.798401,466
821.916931,482
822.035461,467
822.154053,464
822.272583,471
822.391174,470
822.509583,465
822.628174,471
822.746704,440
822.865234,454
822.983765,459
823.102295,475
823.220825,479
823.339294,474
823.457825,460
823.576355,483
823.694824,463
823.813354,464
823.931885,456
824.050354,477
824.168884,491
824.287354,476
824.405823,447
824.524353,466
824.642822,468
824.761353,466
824.879822,474
824.998291,472
825.116699,482
825.235291,476
825.353699,464
825.472168,461
825.590637,466
825.709106,475
825.827576,447
825.946045,466
826.064453,474
826.182983,484
826.301392,461
826.4198,447
826.53833,460
826.656738,443
826.775208,459
826.893677,470
827.012024,469
827.130493,441
827.248962,466
827.36731,467
827.485779,466
827.604248,457
827.722595,484
827.841064,469
827.959412,456
828.077942,471
828.196289,458
828.314636,444
828.433105,473
828.551514,462
828.669861,455
828.78833,475
828.906677,459
829.025085,474
829.143433,459
829.261841,448
829.38031,463
829.498657,483
829.617004,451
829.735413,456
829.85376,471
829.972107,450
830.090515,479
830.208862,454
830.327209,468
830.445557,477
830.563904,453
830.682312,465
830.800659,451
830.919006,462
831.037354,449
831.155701,474
831.274048,479
831.392395,479
831.51062,470
831.629028,455
831.747314,450
831.865662,472
831.984009,470
832.102356,471
832.220642,454
832.338928,468
832.457275,466
832.575623,461
832.693909,463
832.812134,458
832.930481,481
833.048828,483
833.167114,472
833.2854,474
833.403687,461
833.521973,461
833.640259,444
833.758545,483
833.876831,472
833.995056,444
834.113281,464
834.231628,453
834.349915,476
834.468201,461
834.586426,460
834.704651,471
834.822998,443
834.941162,460
835.059448,458
835.177673,469
835.295959,468
835.414246,467
835.53241,486
835.650635,469
835.768921,454
835.887146,456
836.005371,465
836.123596,466
836.241821,465
836.360046,458
836.478271,467
836.596497,461
836.714722,494
836.832886,448
836.95105,462
837.069336,444
837.1875,473
837.305725,432
837.423889,455
837.542053,458
837.660339,449
837.778503,466
837.896667,445
838.014832,474
838.132996,455
838.25116,469
838.369385,465
838.487488,460
838.605713,462
838.723877,467
838.84198,488
838.960205,478
839.078308,468
839.196472,464
839.314636,471
839.4328,464
839.550964,460
839.669067,463
839.787231,468
839.905396,469
840.023499,478
840.141602,449
840.259766,471
840.377869,464
840.495972,474
840.614136,477
840.732239,477
840.850342,453
840.968445,459
841.086548,466
841.204651,466
841.322754,473
841.440918,467
841.55896,471
841.677002,477
841.795166,479
841.913208,462
842.031311,472
842.149353,469
842.267456,477
842.385498,463
842.503601,452
842.621643,468
842.739746,468
842.857788,475
842.97583,486
843.093933,473
843.211975,465
843.330017,476
843.44812,458
843.566101,479
843.684204,465
843.802246,484
843.920227,470
844.038269,479
844.156311,465
844.274292,458
844.392395,471
844.510376,486
844.628357,481
844.74646,485
844.864441,478
844.982422,447
845.100403,468
845.218384,481
845.336426,473
845.454468,483
845.572449,464
845.69043,465
845.808411,480
845.926453,455
846.044373,469
846.162354,465
846.280396,473
846.398315,458
846.516296,474
846.634216,448
846.752197,460
846.870178,488
846.988098,458
847.106079,484
847.22406,473
847.34198,485
847.4599,473
847.577881,473
847.695801,489
847.813782,457
847.931641,451
848.049561,456
848.167603,481
848.285461,489
848.403381,475
848.521362,491
848.639221,475
848.75708,463
848.875,476
848.99292,498
849.110901,476
849.22876,475
849.34668,477
849.464539,454
849.582458,498
849.700317,464
849.818176,480
849.936096,470
850.053955,473
850.171875,467
850.289673,477
850.407593,476
850.525452,469
850.643311,465
850.761169,468
850.878967,472
850.996887,483
851.114746,454
851.232544,479
851.350403,485
851.468262,460
851.58606,480
851.703979,487
851.821777,447
851.939636,473
852.057434,476
852.175232,464
852.293091,486
852.410889,468
852.528687,471
852.646545,492
852.764343,464
852.88208,493
852.999939,460
853.117676,467
853.235535,454
853.353271,470
853.471069,466
853.588928,472
853.706604,469
853.824402,467
853.9422,453
854.059998,472
854.177734,463
854.295532,469
854.413269,478
854.531006,469
854.648804,465
854.766541,465
854.884277,458
855.002014,473
855.119751,457
855.237549,489
855.355225,460
855.473022,457
855.590698,468
855.708435,458
855.826172,478
855.943848,468
856.061646,476
856.179321,470
856.296997,471
856.414795,472
856.53241,473
856.650085,481
856.767822,480
856.885559,486
857.003174,459
857.120911,491
857.238586,478
857.356201,468
857.473938,489
857.591614,480
857.709351,474
857.826965,482
857.944641,463
858.062317,469
858.179993,460
858.297668,488
858.415283,473
858.532959,472
858.650574,478
858.768188,486
858.885803,458
859.003479,464
859.121094,465
859.23877,462
859.356384,470
859.473999,466
859.591675,446
859.709229,465
859.826843,462
859.944458,486
860.062012,477
860.179626,487
860.297302,461
860.414856,483
860.532471,462
860.650024,472
860.767639,464
860.885193,444
861.002808,477
861.120361,472
861.237976,479
861.35553,488
861.473022,475
861.590698,470
861.708191,458
861.825745,465
861.943298,460
862.060852,468
862.178406,457
862.295959,464
862.413513,461
862.531006,465
862.64856,462
862.766113,484
862.883667,457
863.00116,458
863.118713,472
863.236206,465
863.353699,462
863.471252,467
863.588745,466
863.706177,488
863.82373,456
863.941162,475
864.058716,474
864.176208,463
864.29364,468
864.411194,477
864.528687,460
864.646118,449
864.763611,456
864.881042,463
864.998535,472
865.116028,469
865.233459,470
865.350891,464
865.468384,466
865.585754,472
865.703308,480
865.820679,492
865.938171,458
866.055542,473
866.173035,477
866.290466,470
866.407837,460
866.52533,477
866.6427,451
866.760071,471
866.877563,463
866.994934,468
867.112305,466
867.229736,479
867.347107,447
867.464539,481
867.58197,492
867.699341,476
867.81665,469
867.934082,484
868.051453,457
868.168823,484
868.286194,452
868.403564,476
868.520935,465
868.638306,462
868.755676,474
868.872986,462
868.990295,470
869.107727,454
869.225037,474
869.342346,457
869.459717,478
869.577026,471
869.694336,457
869.811707,462
869.929016,464
870.046326,479
870.163635,478
870.280945,479
870.398254,462
870.515564,494
870.632812,474
870.750183,479
870.867432,465
870.984741,486
871.102051,483
871.219299,461
871.336609,493
871.453918,476
871.571106,461
871.688416,487
871.805664,496
871.922852,501
872.040222,478
872.157471,485
872.274719,469
872.391968,479
872.509155,494
872.626465,476
872.743652,486
872.860962,468
872.978149,473
873.095337,478
873.212646,489
873.329834,471
873.44696,470
873.564209,465
873.681396,468
873.798645,482
873.915894,472
874.03302,463
874.150208,472
874.267456,467
874.384583,482
874.501831,483
874.618958,473
874.736145,469
874.853333,471
874.970459,491
875.087646,472
875.204834,471
875.32196,487
875.439148,496
875.556274,476
875.673401,475
875.790527,475
875.907715,479
876.024841,472
876.141968,474
876.259094,477
876.376282,482
876.493347,466
876.610474,490
876.7276,486
876.844727,499
876.961853,466
877.078918,477
877.195984,470
877.313171,476
877.430237,482
877.547302,462
877.664368,478
877.781433,467
877.898499,463
878.015625,458
878.13269,478
878.249695,463
878.366821,466
878.483887,486
878.600952,461
878.717957,496
878.834961,483
878.952087,476
879.069092,457
879.186157,470
879.303162,470
879.420227,465
879.537231,454
879.654236,455
879.77124,442
879.888306,465
880.005249,472
880.122314,474
880.239319,474
880.356323,474
880.473328,454
880.590271,477
880.707275,473
880.824341,469
880.941284,474
881.058228,489
881.175232,462
881.292236,462
881.40918,456
881.526123,468
881.643066,450
881.760071,448
881.877014,462
881.993958,455
882.11084,462
882.227783,479
882.344727,458
882.46167,476
882.578613,454
882.695618,478
882.812439,449
882.929382,475
883.046326,460
883.163208,467
883.280151,471
883.397034,470
883.513916,483
883.630798,461
883.747742,485
883.864563,475
883.981506,452
884.098389,457
884.21521,478
884.332153,498
884.448975,475
884.565796,495
884.682678,470
884.7995,481
884.916443,504
885.033264,480
885.150085,496
885.266968,521
885.383789,506
885.500671,504
885.617493,500
885.734314,497
885.851196,488
885.967896,496
886.084717,517
886.201599,523
886.318359,510
886.435181,513
886.552002,491
886.668762,483
886.785645,488
886.902344,503
887.019165,485
887.135925,493
887.252747,469
887.369446,476
887.486267,500
887.603027,498
887.719788,469
887.836548,479
887.953247,462
888.070068,478
888.186829,502
888.303528,459
888.420288,469
888.536987,475
888.653687,463
888.770447,466
888.887146,480
889.003967,475
889.120667,482
889.237305,458
889.354065,459
889.470703,471
889.587463,481
889.704163,484
889.820862,469
889.937561,477
890.054199,457
890.170837,484
890.287598,451
890.404236,458
890.520874,464
890.637634,491
890.754211,485
890.87085,463
890.987549,459
891.104187,476
891.220886,469
891.337463,459
891.454102,466
891.57074,469
891.687378,458
891.804077,481
891.920654,492
892.037231,462
892.15387,450
892.270447,472
892.387085,487
892.503723,485
892.6203,465
892.736877,474
892.853516,466
892.970032,484
893.08667,458
893.203186,487
893.319763,477
893.43634,469
893.552917,464
893.669556,466
893.786011,451
893.902588,470
894.019165,472
894.135681,486
894.252197,474
894.368835,491
894.485291,460
894.601868,463
894.718384,479
894.8349,487
894.951355,460
895.067932,461
895.184448,439
895.300964,478
895.417419,480
895.533936,464
895.650452,463
895.766907,482
895.883423,455
895.999878,449
896.116333,464
896.232849,481
896.349304,462
896.465759,475
896.582214,457
896.698669,474
896.815125,456
896.931641,469
897.048035,469
897.164551,468
897.280884,482
897.397339,469
897.513794,455
897.630249,477
897.746582,454
897.863098,492
897.979431,466
898.095886,480
898.212341,478
898.328674,473
898.445129,477
898.561462,473
898.677795,475
898.794312,472
898.910645,470
899.026978,479
899.143433,468
899.259766,470
899.37616,480
899.492493,480
899.608765,457
899.725159,463
899.841553,458
899.957947,469
900.07428,469
900.190552,464
900.306946,456
900.423157,481
900.53949,443
900.655884,485
900.772156,453
900.888489,469
901.004822,478
901.121033,491
901.237366,464
901.353699,481
901.46991,470
901.586304,491
901.702515,474
901.818787,476
901.93512,464
902.051331,473
902.167603,483
902.283875,491
902.400085,481
902.516418,479
902.632629,491
902.74884,496
902.865112,512
902.981384,498
903.097595,486
903.213867,504
903.330017,487
903.446289,488
903.5625,479
903.67865,480
903.794922,504
903.911072,477
904.027344,483
904.143494,490
904.259705,493
904.375916,498
904.492065,474
904.608215,475
904.724426,459
904.840576,488
904.956726,464
905.072876,488
905.189087,467
905.305176,471
905.421387,489
905.537537,486
905.653687,482
905.769775,460
905.885925,472
906.002014,462
906.118164,476
906.234314,479
906.350403,469
906.466492,484
906.582642,474
906.69873,482
906.814758,475
906.930908,485
907.046936,452
907.163086,478
907.279175,467
907.395264,479
907.511353,459
907.62738,476
907.743408,477
907.859497,492
907.975525,463
908.091553,473
908.207703,490
908.32373,485
908.439758,467
908.555786,465
908.671814,468
908.787842,488
908.90387,465
909.019775,481
909.135864,474
909.251892,485
909.367859,471
909.483826,476
909.599854,482
909.715881,480
909.831848,476
909.947815,486
910.063782,474
910.179749,483
910.295776,438
910.411743,487
910.527649,473
910.643616,487
910.759583,471
910.875488,492
910.991455,489
911.107361,474
911.223267,455
911.339294,477
911.4552,474
911.571106,483
911.687073,474
911.802979,483
911.918823,487
912.034729,475
912.150635,470
912.266602,476
912.382446,471
912.498352,465
912.614197,469
912.730103,467
912.846008,474
