792.44574,536
792.56488,523
792.68396,591
792.80304,573
792.92218,496
793.041199,495
793.160339,505
793.279419,528
793.398499,518
793.517578,490
793.636658,523
793.755737,500
793.874817,504
793.993896,519
794.112976,505
794.232056,523
794.351074,546
794.470215,508
794.589233,501
794.708313,501
794.827393,504
794.946411,499
795.065552,509
795.18457,525
795.303589,497
795.422668,474
795.541687,521
795.660767,502
795.779846,501
795.898865,481
796.017883,511
796.136963,495
796.255981,521
796.375061,498
796.49408,494
796.613037,488
796.732117,486
796.851135,482
796.970154,482
797.089233,492
797.208191,470
797.327271,497
797.446228,505
797.565186,485
797.684265,497
797.803223,515
797.922241,494
798.04126,493
798.160278,491
798.279297,491
798.398315,494
798.517273,503
798.636292,491
798.75531,480
798.874268,456
798.993286,488
799.112244,478
799.231323,474
799.350281,477
799.469238,475
799.588257,489
799.707153,494
799.826111,480
799.945129,486
800.064087,500
800.183044,477
800.302063,483
800.421021,488
800.539978,489
800.658936,492
800.777893,486
800.896912,471
801.015747,462
801.134705,469
801.253723,486
801.37262,487
801.491638,479
801.610535,488
801.729492,484
801.84845,491
801.967407,499
802.086243,492
802.205261,477
802.324158,499
802.443115,496
802.562073,490
802.680969,469
802.799927,473
802.918762,476
803.037659,498
803.156677,487
803.275574,486
803.39447,470
803.513428,468
803.632263,517
803.751221,482
803.870117,486
803.989014,478
804.107971,494
804.226746,477
804.345642,496
804.4646,481
804.583496,499
804.702393,494
804.821228,487
804.940125,484
805.059021,511
805.177917,486
805.296814,474
805.415649,478
805.534546,466
805.653442,501
805.772278,513
805.891113,475
806.01001,500
806.128906,478
806.247742,477
806.366577,483
806.485413,487
806.604309,475
806.723145,508
806.84198,509
806.960876,496
807.079712,459
807.198486,472
807.317383,474
807.436218,512
807.554993,490
807.673889,483
807.792725,502
807.91156,509
808.030396,479
808.14917,505
808.268005,486
808.386841,485
808.505676,474
808.624451,472
808.743286,466
808.862122,473
808.980896,503
809.099731,492
809.218506,467
809.337341,482
809.456116,482
809.57489,497
809.693726,507
809.8125,475
809.931274,461
810.050049,494
810.168884,506
810.287659,518
810.406372,488
810.525269,493
810.643982,493
810.762756,482
810.881531,485
811.000305,488
811.11908,505
811.237854,507
811.356567,484
811.475403,496
811.594116,482
811.71283,471
811.831604,480
811.950378,491
812.069153,461
812.187927,496
812.30658,478
812.425415,519
812.544128,488
812.662781,504
812.781616,493
812.900269,505
813.019043,465
813.137756,501
813.256531,485
813.375244,495
813.493896,463
813.612671,503
813.731384,480
813.850037,499
813.96875,510
814.087524,497
814.206238,467
814.324951,479
814.443604,504
814.562256,510
814.68103,498
814.799683,489
814.918335,471
815.037109,500
815.155762,487
815.274475,475
815.393188,485
815.511841,492
815.630554,470
815.749146,484
815.867859,486
815.986572,467
816.105164,475
816.223877,487
816.342529,468
816.461182,475
816.579895,501
816.698486,495
816.817139,492
816.935791,499
817.054504,482
817.173096,487
817.291748,470
817.4104,472
817.529053,479
817.647644,481
817.766235,487
817.884949,479
818.00354,471
818.122192,473
818.240845,462
818.359436,483
818.478088,492
818.59668,460
818.715271,466
818.833923,458
818.952515,477
819.071106,464
819.189758,484
819.30835,471
819.426941,455
819.545532,456
819.664124,459
819.782715,460
819.901306,468
820.019897,463
820.138489,469
820.25708,471
820.375671,472
820.494202,456
820.612732,458
820.731384,471
820.849915,476
820.968506,469
821.087097,447
821.205627,472
821.324158,442
821.442749,476
821.561279,447
821.679871,458
821.798401,449
821.916931,459
822.035461,466
822.154053,445
822.272583,470
822.391174,463
822.509583,453
822.628174,445
822.746704,460
822.865234,473
822.983765,463
823.102295,460
823.220825,469
823.339294,458
823.457825,442
823.576355,468
823.694824,437
823.813354,471
823.931885,455
824.050354,469
824.168884,462
824.287354,460
824.405823,443
824.524353,437
824.642822,466
824.761353,457
824.879822,458
824.998291,450
825.116699,467
825.235291,471
825.353699,440
825.472168,462
825.590637,445
825.709106,448
825.827576,439
825.946045,457
826.064453,463
826.182983,475
826.301392,444
826.4198,454
826.53833,438
826.656738,471
826.775208,467
826.893677,442
827.012024,452
827.130493,468
827.248962,455
827.36731,455
827.485779,457
827.604248,474
827.722595,446
827.841064,461
827.959412,437
828.077942,467
828.196289,450
828.314636,471
828.433105,446
828.551514,455
828.669861,479
828.78833,456
828.906677,455
829.025085,449
829.143433,447
829.261841,464
829.38031,464
829.498657,442
829.617004,451
829.735413,442
829.85376,455
829.972107,462
830.090515,444
830.208862,446
830.327209,449
830.445557,446
830.563904,447
830.682312,446
830.800659,448
830.919006,444
831.037354,440
831.155701,447
831.274048,464
831.392395,443
831.51062,460
831.629028,454
831.747314,438
831.865662,456
831.984009,432
832.102356,463
832.220642,456
832.338928,446
832.457275,454
832.575623,459
832.693909,447
832.812134,447
832.930481,454
833.048828,467
833.167114,441
833.2854,446
833.403687,440
833.521973,445
833.640259,450
833.758545,440
833.876831,434
833.995056,457
834.113281,439
834.231628,448
834.349915,439
834.468201,463
834.586426,441
834.704651,435
834.822998,437
834.941162,453
835.059448,432
835.177673,446
835.295959,460
835.414246,460
835.53241,455
835.650635,469
835.768921,440
835.887146,445
836.005371,436
836.123596,456
836.241821,458
836.360046,472
836.478271,459
836.596497,461
836.714722,437
836.832886,453
836.95105,452
837.069336,436
837.1875,453
837.305725,453
837.423889,457
837.542053,436
837.660339,444
837.778503,459
837.896667,461
838.014832,438
838.132996,444
838.25116,461
838.369385,459
838.487488,439
838.605713,433
838.723877,441
838.84198,419
838.960205,429
839.078308,456
839.196472,426
839.314636,462
839.4328,463
839.550964,452
839.669067,461
839.787231,456
839.905396,446
840.023499,436
840.141602,452
840.259766,460
840.377869,450
840.495972,439
840.614136,450
840.732239,445
840.850342,445
840.968445,446
841.086548,446
841.204651,449
841.322754,460
841.440918,436
841.55896,432
841.677002,440
841.795166,436
841.913208,440
842.031311,439
842.149353,439
842.267456,430
842.385498,444
842.503601,449
842.621643,438
842.739746,434
842.857788,433
842.97583,442
843.093933,437
843.211975,452
843.330017,451
843.44812,444
843.566101,442
843.684204,431
843.802246,449
843.920227,451
844.038269,439
844.156311,456
844.274292,445
844.392395,456
844.510376,479
844.628357,446
844.74646,442
844.864441,439
844.982422,443
845.100403,449
845.218384,451
845.336426,427
845.454468,445
845.572449,462
845.69043,440
845.808411,454
845.926453,446
846.044373,441
846.162354,447
846.280396,453
846.398315,442
846.516296,447
846.634216,451
846.752197,446
846.870178,452
846.988098,441
847.106079,459
847.22406,439
847.34198,443
847.4599,435
847.577881,439
847.695801,451
847.813782,442
847.931641,460
848.049561,440
848.167603,441
848.285461,458
848.403381,455
848.521362,434
848.639221,471
848.75708,448
848.875,452
848.99292,447
849.110901,438
849.22876,457
849.34668,464
849.464539,424
849.582458,449
849.700317,447
849.818176,428
849.936096,451
850.053955,455
850.171875,437
850.289673,457
850.407593,452
850.525452,460
850.643311,450
850.761169,455
850.878967,451
850.996887,451
851.114746,440
851.232544,450
851.350403,428
851.468262,451
851.58606,419
851.703979,469
851.821777,454
851.939636,455
852.057434,452
852.175232,451
852.293091,442
852.410889,443
852.528687,456
852.646545,461
852.764343,445
852.88208,451
852.999939,452
853.117676,470
853.235535,441
853.353271,463
853.471069,422
853.588928,451
853.706604,459
853.824402,420
853.9422,438
854.059998,455
854.177734,437
854.295532,457
854.413269,450
854.531006,469
854.648804,459
854.766541,438
854.884277,451
855.002014,457
855.119751,440
855.237549,450
855.355225,448
855.473022,440
855.590698,423
855.708435,444
855.826172,436
855.943848,433
856.061646,449
856.179321,450
856.296997,441
856.414795,444
856.53241,426
856.650085,439
856.767822,448
856.885559,452
857.003174,437
857.120911,442
857.238586,443
857.356201,450
857.473938,445
857.591614,455
857.709351,452
857.826965,445
857.944641,430
858.062317,437
858.179993,429
858.297668,449
858.415283,435
858.532959,449
858.650574,448
858.768188,459
858.885803,456
859.003479,439
859.121094,461
859.23877,453
859.356384,452
859.473999,449
859.591675,441
859.709229,456
859.826843,436
859.944458,462
860.062012,439
860.179626,449
860.297302,436
860.414856,457
860.532471,439
860.650024,451
860.767639,422
860.885193,458
861.002808,439
861.120361,461
861.237976,461
861.35553,437
861.473022,447
861.590698,465
861.708191,438
861.825745,465
861.943298,442
862.060852,447
862.178406,460
862.295959,450
862.413513,437
862.531006,467
862.64856,445
862.766113,450
862.883667,463
863.00116,451
863.118713,457
863.236206,448
863.353699,439
863.471252,455
863.588745,452
863.706177,450
863.82373,438
863.941162,446
864.058716,450
864.176208,458
864.29364,436
864.411194,459
864.528687,456
864.646118,444
864.763611,446
864.881042,422
864.998535,464
865.116028,451
865.233459,444
865.350891,442
865.468384,447
865.585754,450
865.703308,452
865.820679,467
865.938171,450
866.055542,461
866.173035,454
866.290466,469
866.407837,468
866.52533,452
866.6427,458
866.760071,473
866.877563,452
866.994934,454
867.112305,439
867.229736,445
867.347107,454
867.464539,466
867.58197,455
867.699341,446
867.81665,448
867.934082,449
868.051453,433
868.168823,458
868.286194,448
868.403564,448
868.520935,456
868.638306,454
868.755676,460
868.872986,460
868.990295,450
869.107727,462
869.225037,441
869.342346,459
869.459717,450
869.577026,462
869.694336,480
869.811707,471
869.929016,458
870.046326,454
870.163635,452
870.280945,467
870.398254,467
870.515564,464
870.632812,452
870.750183,431
870.867432,440
870.984741,455
871.102051,458
871.219299,446
871.336609,443
871.453918,458
871.571106,443
871.688416,454
871.805664,491
871.922852,455
872.040222,458
872.157471,445
872.274719,446
872.391968,442
872.509155,450
872.626465,458
872.743652,458
872.860962,455
872.978149,463
873.095337,470
873.212646,437
873.329834,447
873.44696,444
873.564209,444
873.681396,458
873.798645,454
873.915894,451
874.03302,464
874.150208,455
874.267456,453
874.384583,445
874.501831,462
874.618958,443
874.736145,462
874.853333,450
874.970459,467
875.087646,463
875.204834,445
875.32196,456
875.439148,443
875.556274,428
875.673401,463
875.790527,449
875.907715,457
876.024841,426
876.141968,461
876.259094,441
876.376282,466
876.493347,461
876.610474,446
876.7276,453
876.844727,468
876.961853,442
877.078918,448
877.195984,460
877.313171,462
877.430237,456
877.547302,472
877.664368,453
877.781433,440
877.898499,455
878.015625,450
878.13269,430
878.249695,463
878.366821,458
878.483887,448
878.600952,447
878.717957,452
878.834961,463
878.952087,445
879.069092,447
879.186157,478
879.303162,448
879.420227,458
879.537231,448
879.654236,461
879.77124,443
879.888306,447
880.005249,442
880.122314,455
880.239319,463
880.356323,469
880.473328,443
880.590271,458
880.707275,445
880.824341,441
880.941284,422
881.058228,471
881.175232,450
881.292236,472
881.40918,433
881.526123,451
881.643066,459
881.760071,457
881.877014,433
881.993958,457
882.11084,453
882.227783,474
882.344727,455
882.46167,442
882.578613,448
882.695618,456
882.812439,439
882.929382,448
883.046326,432
883.163208,458
883.280151,442
883.397034,462
883.513916,472
883.630798,464
883.747742,438
883.864563,459
883.981506,482
884.098389,469
884.21521,461
884.332153,446
884.448975,468
884.565796,463
884.682678,463
884.7995,449
884.916443,469
885.033264,462
885.150085,446
885.266968,467
885.383789,459
885.500671,474
885.617493,453
885.734314,461
885.851196,456
885.967896,466
886.084717,459
886.201599,448
886.318359,475
886.435181,473
886.552002,454
886.668762,475
886.785645,465
886.902344,488
887.019165,458
887.135925,482
887.252747,461
887.369446,453
887.486267,468
887.603027,454
887.719788,445
887.836548,445
887.953247,480
888.070068,452
888.186829,451
888.303528,465
888.420288,449
888.536987,452
888.653687,460
888.770447,453
888.887146,455
889.003967,458
889.120667,458
889.237305,452
889.354065,452
889.470703,466
889.587463,447
889.704163,460
889.820862,469
889.937561,467
890.054199,456
890.170837,468
890.287598,445
890.404236,460
890.520874,466
890.637634,456
890.754211,452
890.87085,464
890.987549,457
891.104187,469
891.220886,462
891.337463,467
891.454102,455
891.57074,490
891.687378,451
891.804077,471
891.920654,475
892.037231,463
892.15387,454
892.270447,477
892.387085,458
892.503723,462
892.6203,466
892.736877,462
892.853516,463
892.970032,458
893.08667,455
893.203186,451
893.319763,478
893.43634,453
893.552917,467
893.669556,464
893.786011,470
893.902588,448
894.019165,462
894.135681,464
894.252197,456
894.368835,463
894.485291,478
894.601868,466
894.718384,471
894.8349,469
894.951355,455
895.067932,470
895.184448,455
895.300964,455
895.417419,454
895.533936,460
895.650452,472
895.766907,483
895.883423,443
895.999878,445
896.116333,461
896.232849,466
896.349304,455
896.465759,479
896.582214,471
896.698669,441
896.815125,464
896.931641,469
897.048035,458
897.164551,467
897.280884,441
897.397339,473
897.513794,464
897.630249,463
897.746582,472
897.863098,474
897.979431,460
898.095886,477
898.212341,470
898.328674,483
898.445129,456
898.561462,488
898.677795,479
898.794312,460
898.910645,466
899.026978,478
899.143433,473
899.259766,475
899.37616,480
899.492493,478
899.608765,457
899.725159,475
899.841553,462
899.957947,470
900.07428,469
900.190552,472
900.306946,473
900.423157,468
900.53949,467
900.655884,467
900.772156,466
900.888489,467
901.004822,464
901.121033,477
901.237366,468
901.353699,471
901.46991,456
901.586304,474
901.702515,454
901.818787,482
901.93512,462
902.051331,477
902.167603,466
902.283875,478
902.400085,482
902.516418,453
902.632629,476
902.74884,484
902.865112,483
902.981384,487
903.097595,466
903.213867,479
903.330017,480
903.446289,475
903.5625,465
903.67865,456
903.794922,474
903.911072,449
904.027344,474
904.143494,473
904.259705,468
904.375916,469
904.492065,460
904.608215,460
904.724426,458
904.840576,460
904.956726,475
905.072876,468
905.189087,485
905.305176,484
905.421387,462
905.537537,487
905.653687,465
905.769775,462
905.885925,464
906.002014,456
906.118164,458
906.234314,470
906.350403,460
906.466492,473
906.582642,465
906.69873,479
906.814758,457
906.930908,466
907.046936,453
907.163086,468
907.279175,465
907.395264,471
907.511353,455
907.62738,488
907.743408,490
907.859497,465
907.975525,461
908.091553,465
908.207703,470
908.32373,469
908.439758,470
908.555786,485
908.671814,459
908.787842,469
908.90387,471
909.019775,473
909.135864,446
909.251892,458
909.367859,484
909.483826,473
909.599854,477
909.715881,462
909.831848,475
909.947815,460
910.063782,466
910.179749,486
910.295776,459
910.411743,477
910.527649,484
910.643616,462
910.759583,494
910.875488,464
910.991455,468
911.107361,474
911.223267,470
911.339294,466
911.4552,485
911.571106,474
911.687073,469
911.802979,456
911.918823,460
912.034729,480
912.150635,480
912.266602,467
912.382446,451
912.498352,465
912.614197,454
912.730103,457
912.846008,479
792.44574,510
792.56488,560
792.68396,571
792.80304,561
792.92218,535
793.041199,470
793.160339,498
793.279419,515
793.398499,503
793.517578,492
793.636658,495
793.755737,535
793.874817,523
793.993896,511
794.112976,506
794.232056,492
794.351074,496
794.470215,500
794.589233,487
794.708313,510
794.827393,493
794.946411,517
795.065552,500
795.18457,503
795.303589,495
795.422668,511
795.541687,496
795.660767,506
795.779846,513
795.898865,504
796.017883,506
796.136963,498
796.255981,503
796.375061,519
796.49408,507
796.613037,486
796.732117,472
796.851135,502
796.970154,524
797.089233,484
797.208191,487
797.327271,504
797.446228,482
797.565186,490
797.684265,508
797.803223,497
797.922241,480
798.04126,471
798.160278,495
798.279297,503
798.398315,489
798.517273,487
798.636292,486
798.75531,505
798.874268,489
798.993286,496
799.112244,490
799.231323,510
799.350281,481
799.469238,488
799.588257,496
799.707153,497
799.826111,479
799.945129,484
800.064087,457
800.183044,461
800.302063,502
800.421021,499
800.539978,495
800.658936,493
800.777893,480
800.896912,487
801.015747,500
801.134705,475
801.253723,486
801.37262,485
801.491638,481
801.610535,464
801.729492,478
801.84845,482
801.967407,473
802.086243,488
802.205261,476
802.324158,477
802.443115,485
802.562073,471
802.680969,504
802.799927,495
802.918762,470
803.037659,469
803.156677,492
803.275574,465
803.39447,492
803.513428,491
803.632263,494
803.751221,498
803.870117,476
803.989014,483
804.107971,470
804.226746,479
804.345642,463
804.4646,489
804.583496,483
804.702393,490
804.821228,467
804.940125,479
805.059021,485
805.177917,475
805.296814,477
805.415649,504
805.534546,488
805.653442,503
805.772278,482
805.891113,478
806.01001,494
806.128906,499
806.247742,475
806.366577,478
806.485413,479
806.604309,505
806.723145,482
806.84198,498
806.960876,483
807.079712,494
807.198486,483
807.317383,479
807.436218,508
807.554993,459
807.673889,490
807.792725,473
807.91156,481
808.030396,484
808.14917,485
808.268005,477
808.386841,480
808.505676,511
808.624451,479
808.743286,496
808.862122,501
808.980896,473
809.099731,481
809.218506,484
809.337341,469
809.456116,474
809.57489,498
809.693726,482
809.8125,506
809.931274,495
810.050049,492
810.168884,492
810.287659,475
810.406372,487
810.525269,467
810.643982,501
810.762756,467
810.881531,467
811.000305,497
811.11908,499
811.237854,495
811.356567,461
811.475403,487
811.594116,469
811.71283,489
811.831604,475
811.950378,490
812.069153,491
812.187927,480
812.30658,499
812.425415,489
812.544128,521
812.662781,486
812.781616,492
812.900269,482
813.019043,481
813.137756,475
813.256531,478
813.375244,483
813.493896,512
813.612671,487
813.731384,488
813.850037,466
813.96875,482
814.087524,471
814.206238,484
814.324951,484
814.443604,486
814.562256,484
814.68103,496
814.799683,477
814.918335,490
815.037109,479
815.155762,483
815.274475,491
815.393188,484
815.511841,489
815.630554,479
815.749146,483
815.867859,489
815.986572,492
816.105164,477
816.223877,475
816.342529,506
816.461182,499
816.579895,489
816.698486,464
816.817139,495
816.935791,506
817.054504,468
817.173096,482
817.291748,497
817.4104,467
817.529053,485
817.647644,496
817.766235,479
817.884949,456
818.00354,454
818.122192,483
818.240845,464
818.359436,489
818.478088,487
818.59668,483
818.715271,483
818.833923,461
818.952515,462
819.071106,461
819.189758,482
819.30835,454
819.426941,474
819.545532,450
819.664124,470
819.782715,462
819.901306,456
820.019897,465
820.138489,442
820.25708,458
820.375671,459
820.494202,478
820.612732,457
820.731384,464
820.849915,455
820.968506,478
821.087097,459
821.205627,465
821.324158,469
821.442749,448
821.561279,449
821.679871,452
821.798401,464
821.916931,472
822.035461,464
822.154053,462
822.272583,450
822.391174,468
822.509583,458
822.628174,464
822.746704,450
822.865234,457
822.983765,461
823.102295,463
823.220825,455
823.339294,442
823.457825,446
823.576355,453
823.694824,457
823.813354,454
823.931885,468
824.050354,453
824.168884,454
824.287354,456
824.405823,469
824.524353,440
824.642822,455
824.761353,441
824.879822,456
824.998291,473
825.116699,479
825.235291,437
825.353699,467
825.472168,462
825.590637,445
825.709106,472
825.827576,460
825.946045,457
826.064453,462
826.182983,457
826.301392,455
826.4198,456
826.53833,433
826.656738,445
826.775208,455
826.893677,456
827.012024,438
827.130493,471
827.248962,467
827.36731,456
827.485779,467
827.604248,444
827.722595,467
827.841064,434
827.959412,444
828.077942,455
828.196289,457
828.314636,448
828.433105,442
828.551514,473
828.669861,470
828.78833,442
828.906677,445
829.025085,437
829.143433,436
829.261841,443
829.38031,453
829.498657,455
829.617004,453
829.735413,455
829.85376,442
829.972107,446
830.090515,445
830.208862,455
830.327209,453
830.445557,450
830.563904,461
830.682312,446
830.800659,442
830.919006,452
831.037354,449
831.155701,447
831.274048,460
831.392395,447
831.51062,457
831.629028,465
831.747314,458
831.865662,470
831.984009,448
832.102356,449
832.220642,441
832.338928,444
832.457275,447
832.575623,456
832.693909,448
832.812134,462
832.930481,436
833.048828,453
833.167114,440
833.2854,440
833.403687,448
833.521973,441
833.640259,443
833.758545,460
833.876831,456
833.995056,454
834.113281,442
834.231628,434
834.349915,449
834.468201,439
834.586426,460
834.704651,434
834.822998,444
834.941162,438
835.059448,456
835.177673,452
835.295959,435
835.414246,431
835.53241,446
835.650635,460
835.768921,462
835.887146,429
836.005371,468
836.123596,448
836.241821,444
836.360046,461
836.478271,446
836.596497,459
836.714722,443
836.832886,454
836.95105,452
837.069336,445
837.1875,465
837.305725,446
837.423889,474
837.542053,456
837.660339,447
837.778503,450
837.896667,454
838.014832,454
838.132996,445
838.25116,437
838.369385,446
838.487488,441
838.605713,447
838.723877,451
838.84198,466
838.960205,447
839.078308,447
839.196472,441
839.314636,456
839.4328,441
839.550964,455
839.669067,446
839.787231,463
839.905396,441
840.023499,473
840.141602,451
840.259766,455
840.377869,444
840.495972,455
840.614136,447
840.732239,441
840.850342,434
840.968445,446
841.086548,458
841.204651,457
841.322754,436
841.440918,437
841.55896,437
841.677002,458
841.795166,452
841.913208,457
842.031311,452
842.149353,446
842.267456,445
842.385498,456
842.503601,441
842.621643,448
842.739746,447
842.857788,440
842.97583,465
843.093933,442
843.211975,447
843.330017,449
843.44812,438
843.566101,458
843.684204,434
843.802246,438
843.920227,448
844.038269,443
844.156311,458
844.274292,467
844.392395,457
844.510376,453
844.628357,444
844.74646,443
844.864441,471
844.982422,426
845.100403,447
845.218384,437
845.336426,458
845.454468,448
845.572449,447
845.69043,441
845.808411,441
845.926453,447
846.044373,445
846.162354,459
846.280396,443
846.398315,458
846.516296,437
846.634216,428
846.752197,453
846.870178,445
846.988098,439
847.106079,446
847.22406,455
847.34198,446
847.4599,439
847.577881,443
847.695801,436
847.813782,440
847.931641,448
848.049561,438
848.167603,435
848.285461,447
848.403381,458
848.521362,433
848.639221,445
848.75708,450
848.875,448
848.99292,446
849.110901,438
849.22876,443
849.34668,438
849.464539,448
849.582458,450
849.700317,457
849.818176,465
849.936096,436
850.053955,455
850.171875,445
850.289673,454
850.407593,472
850.525452,446
850.643311,448
850.761169,434
850.878967,467
850.996887,448
851.114746,444
851.232544,439
851.350403,439
851.468262,461
851.58606,461
851.703979,455
851.821777,439
851.939636,456
852.057434,436
852.175232,447
852.293091,437
852.410889,448
852.528687,445
852.646545,454
852.764343,456
852.88208,463
852.999939,459
853.117676,455
853.235535,461
853.353271,434
853.471069,460
853.588928,441
853.706604,434
853.824402,460
853.9422,442
854.059998,449
854.177734,425
854.295532,455
854.413269,447
854.531006,431
854.648804,460
854.766541,431
854.884277,451
855.002014,463
855.119751,435
855.237549,469
855.355225,458
855.473022,454
855.590698,453
855.708435,439
855.826172,447
855.943848,459
856.061646,435
856.179321,437
856.296997,458
856.414795,431
856.53241,451
856.650085,462
856.767822,456
856.885559,449
857.003174,458
857.120911,453
857.238586,457
857.356201,447
857.473938,447
857.591614,450
857.709351,444
857.826965,448
857.944641,440
858.062317,442
858.179993,457
858.297668,468
858.415283,440
858.532959,454
858.650574,444
858.768188,451
858.885803,471
859.003479,450
859.121094,457
859.23877,472
859.356384,454
859.473999,435
859.591675,440
859.709229,446
859.826843,447
859.944458,437
860.062012,442
860.179626,444
860.297302,441
860.414856,451
860.532471,456
860.650024,452
860.767639,457
860.885193,446
861.002808,459
861.120361,436
861.237976,461
861.35553,444
861.473022,460
861.590698,452
861.708191,448
861.825745,446
861.943298,447
862.060852,458
862.178406,448
862.295959,461
862.413513,449
862.531006,440
862.64856,456
862.766113,464
862.883667,446
863.00116,428
863.118713,451
863.236206,463
863.353699,450
863.471252,447
863.588745,460
863.706177,443
863.82373,448
863.941162,448
864.058716,451
864.176208,453
864.29364,453
864.411194,443
864.528687,450
864.646118,455
864.763611,453
864.881042,448
864.998535,461
865.116028,451
865.233459,458
865.350891,444
865.468384,454
865.585754,436
865.703308,436
865.820679,459
865.938171,443
866.055542,430
866.173035,464
866.290466,453
866.407837,437
866.52533,440
866.6427,450
866.760071,438
866.877563,454
866.994934,437
867.112305,467
867.229736,449
867.347107,453
867.464539,447
867.58197,451
867.699341,465
867.81665,459
867.934082,442
868.051453,450
868.168823,448
868.286194,458
868.403564,457
868.520935,454
868.638306,456
868.755676,456
868.872986,466
868.990295,449
869.107727,463
869.225037,446
869.342346,446
869.459717,467
869.577026,460
869.694336,445
869.811707,447
869.929016,450
870.046326,443
870.163635,470
870.280945,457
870.398254,435
870.515564,469
870.632812,462
870.750183,462
870.867432,456
870.984741,463
871.102051,450
871.219299,465
871.336609,451
871.453918,438
871.571106,444
871.688416,453
871.805664,476
871.922852,435
872.040222,439
872.157471,451
872.274719,473
872.391968,464
872.509155,467
872.626465,472
872.743652,455
872.860962,461
872.978149,463
873.095337,439
873.212646,467
873.329834,452
873.44696,469
873.564209,459
873.681396,469
873.798645,446
873.915894,463
874.03302,455
874.150208,442
874.267456,430
874.384583,461
874.501831,458
874.618958,446
874.736145,459
874.853333,462
874.970459,449
875.087646,452
875.204834,441
875.32196,470
875.439148,449
875.556274,470
875.673401,448
875.790527,450
875.907715,462
876.024841,444
876.141968,452
876.259094,457
876.376282,442
876.493347,455
876.610474,444
876.7276,447
876.844727,475
876.961853,456
877.078918,445
877.195984,442
877.313171,440
877.430237,453
877.547302,452
877.664368,461
877.781433,451
877.898499,437
878.015625,461
878.13269,443
878.249695,458
878.366821,461
878.483887,477
878.600952,485
878.717957,434
878.834961,459
878.952087,470
879.069092,452
879.186157,483
879.303162,456
879.420227,451
879.537231,468
879.654236,471
879.77124,480
879.888306,463
880.005249,457
880.122314,458
880.239319,472
880.356323,447
880.473328,452
880.590271,474
880.707275,445
880.824341,463
880.941284,439
881.058228,444
881.175232,454
881.292236,445
881.40918,458
881.526123,440
881.643066,459
881.760071,447
881.877014,455
881.993958,460
882.11084,466
882.227783,460
882.344727,453
882.46167,455
882.578613,439
882.695618,459
882.812439,471
882.929382,437
883.046326,453
883.163208,441
883.280151,449
883.397034,464
883.513916,463
883.630798,446
883.747742,458
883.864563,464
883.981506,451
884.098389,452
884.21521,433
884.332153,472
884.448975,442
884.565796,463
884.682678,461
884.7995,442
884.916443,468
885.033264,452
885.150085,470
885.266968,448
885.383789,464
885.500671,465
885.617493,462
885.734314,456
885.851196,467
885.967896,456
886.084717,454
886.201599,436
886.318359,437
886.435181,451
886.552002,483
886.668762,471
886.785645,459
886.902344,481
887.019165,455
887.135925,435
887.252747,465
887.369446,446
887.486267,441
887.603027,474
887.719788,461
887.836548,452
887.953247,483
888.070068,460
888.186829,468
888.303528,464
888.420288,464
888.536987,459
888.653687,473
888.770447,433
888.887146,467
889.003967,463
889.120667,475
889.237305,447
889.354065,471
889.470703,456
889.587463,458
889.704163,437
889.820862,464
889.937561,459
890.054199,477
890.170837,450
890.287598,462
890.404236,442
890.520874,465
890.637634,461
890.754211,461
890.87085,457
890.987549,461
891.104187,474
891.220886,458
891.337463,449
891.454102,447
891.57074,471
891.687378,455
891.804077,445
891.920654,448
892.037231,450
892.15387,455
892.270447,469
892.387085,455
892.503723,466
892.6203,461
892.736877,445
892.853516,476
892.970032,453
893.08667,486
893.203186,442
893.319763,476
893.43634,448
893.552917,452
893.669556,460
893.786011,467
893.902588,484
894.019165,464
894.135681,476
894.252197,462
894.368835,457
894.485291,467
894.601868,479
894.718384,457
894.8349,490
894.951355,478
895.067932,472
895.184448,453
895.300964,463
895.417419,466
895.533936,468
895.650452,473
895.766907,439
895.883423,476
895.999878,465
896.116333,478
896.232849,437
896.349304,456
896.465759,449
896.582214,480
896.698669,455
896.815125,471
896.931641,467
897.048035,477
897.164551,447
897.280884,460
897.397339,466
897.513794,451
897.630249,474
897.746582,483
897.863098,459
897.979431,489
898.095886,474
898.212341,456
898.328674,467
898.445129,482
898.561462,460
898.677795,480
898.794312,460
898.910645,485
899.026978,473
899.143433,467
899.259766,454
899.37616,471
899.492493,464
899.608765,471
899.725159,473
899.841553,450
899.957947,473
900.07428,471
900.190552,459
900.306946,470
900.423157,482
900.53949,477
900.655884,467
900.772156,472
900.888489,476
901.004822,471
901.121033,464
901.237366,481
901.353699,471
901.46991,490
901.586304,456
901.702515,464
901.818787,461
901.93512,479
902.051331,473
902.167603,479
902.283875,477
902.400085,475
902.516418,458
902.632629,469
902.74884,464
902.865112,484
902.981384,457
903.097595,477
903.213867,468
903.330017,453
903.446289,446
903.5625,470
903.67865,482
903.794922,469
903.911072,478
904.027344,477
904.143494,462
904.259705,474
904.375916,469
904.492065,491
904.608215,476
904.724426,488
904.840576,474
904.956726,482
905.072876,479
905.189087,476
905.305176,464
905.421387,471
905.537537,476
905.653687,449
905.769775,472
905.885925,470
906.002014,468
906.118164,482
906.234314,469
906.350403,461
906.466492,470
906.582642,490
906.69873,463
906.814758,449
906.930908,469
907.046936,474
907.163086,467
907.279175,464
907.395264,482
907.511353,460
907.62738,467
907.743408,467
907.859497,479
907.975525,479
908.091553,488
908.207703,476
908.32373,464
908.439758,485
908.555786,471
908.671814,470
908.787842,456
908.90387,481
909.019775,466
909.135864,458
909.251892,466
909.367859,471
909.483826,463
909.599854,471
909.715881,465
909.831848,483
909.947815,467
910.063782,465
910.179749,464
910.295776,449
910.411743,471
910.527649,502
910.643616,464
910.759583,483
910.875488,464
910.991455,477
911.107361,450
911.223267,474
911.339294,471
911.4552,470
911.571106,459
911.687073,473
911.802979,495
911.918823,444
912.034729,470
912.150635,480
912.266602,471
912.382446,470
912.498352,479
912.614197,470
912.730103,479
912.846008,473
792.44574,517
792.56488,541
792.68396,587
792.80304,570
792.92218,526
793.041199,501
793.160339,514
793.279419,524
793.398499,505
793.517578,507
793.636658,511
793.755737,524
793.874817,542
793.993896,529
794.112976,513
794.232056,511
794.351074,506
794.470215,511
794.589233,506
794.708313,504
794.827393,480
794.946411,498
795.065552,526
795.18457,493
795.303589,499
795.422668,483
795.541687,522
795.660767,488
795.779846,495
795.898865,487
796.017883,489
796.136963,500
796.255981,477
796.375061,496
796.49408,508
796.613037,509
796.732117,486
796.851135,515
796.970154,515
797.089233,506
797.208191,495
797.327271,498
797.446228,508
797.565186,488
797.684265,503
797.803223,480
797.922241,498
798.04126,488
798.160278,493
798.279297,497
798.398315,512
798.517273,480
798.636292,471
798.75531,496
798.874268,507
798.993286,493
799.112244,486
799.231323,522
799.350281,497
799.469238,478
799.588257,480
799.707153,473
799.826111,487
799.945129,461
800.064087,481
800.183044,489
800.302063,489
800.421021,500
800.539978,499
800.658936,480
800.777893,490
800.896912,487
801.015747,492
801.134705,482
801.253723,494
801.37262,474
801.491638,498
801.610535,499
801.729492,482
801.84845,470
801.967407,498
802.086243,489
802.205261,485
802.324158,493
802.443115,477
802.562073,480
802.680969,503
802.799927,481
802.918762,481
803.037659,497
803.156677,477
803.275574,475
803.39447,490
803.513428,467
803.632263,480
803.751221,500
803.870117,494
803.989014,489
804.107971,486
804.226746,509
804.345642,489
804.4646,486
804.583496,483
804.702393,475
804.821228,499
804.940125,478
805.059021,467
805.177917,487
805.296814,497
805.415649,481
805.534546,483
805.653442,491
805.772278,495
805.891113,485
806.01001,485
806.128906,474
806.247742,494
806.366577,453
806.485413,471
806.604309,476
806.723145,482
806.84198,499
806.960876,487
807.079712,513
807.198486,488
807.317383,473
807.436218,490
807.554993,488
807.673889,473
807.792725,524
807.91156,486
808.030396,489
808.14917,492
808.268005,477
808.386841,506
808.505676,515
808.624451,490
808.743286,492
808.862122,493
808.980896,484
809.099731,478
809.218506,485
809.337341,480
809.456116,470
809.57489,467
809.693726,510
809.8125,479
809.931274,488
810.050049,483
810.168884,492
810.287659,492
810.406372,482
810.525269,485
810.643982,472
810.762756,498
810.881531,483
811.000305,485
811.11908,497
811.237854,481
811.356567,496
811.475403,470
811.594116,483
811.71283,509
811.831604,515
811.950378,492
812.069153,481
812.187927,508
812.30658,500
812.425415,514
812.544128,483
812.662781,462
812.781616,496
812.900269,497
813.019043,471
813.137756,485
813.256531,491
813.375244,482
813.493896,490
813.612671,503
813.731384,485
813.850037,504
813.96875,515
814.087524,479
814.206238,469
814.324951,515
814.443604,495
814.562256,472
814.68103,491
814.799683,497
814.918335,494
815.037109,487
815.155762,479
815.274475,468
815.393188,482
815.511841,489
815.630554,490
815.749146,477
815.867859,456
815.986572,464
816.105164,486
816.223877,477
816.342529,473
816.461182,477
816.579895,480
816.698486,481
816.817139,488
816.935791,482
817.054504,472
817.173096,495
817.291748,482
817.4104,471
817.529053,479
817.647644,486
817.766235,497
817.884949,485
818.00354,480
818.122192,482
818.240845,478
818.359436,467
818.478088,464
818.59668,469
818.715271,481
818.833923,480
818.952515,471
819.071106,438
819.189758,474
819.30835,468
819.426941,460
819.545532,478
819.664124,461
819.782715,470
819.901306,468
820.019897,471
820.138489,467
820.25708,462
820.375671,464
820.494202,447
820.612732,453
820.731384,463
820.849915,464
820.968506,450
821.087097,483
821.205627,467
821.324158,453
821.442749,458
821.561279,475
821.679871,452
821.798401,469
821.916931,455
822.035461,468
822.154053,473
822.272583,451
822.391174,474
822.509583,473
822.628174,448
822.746704,453
822.865234,461
822.983765,448
823.102295,453
823.220825,456
823.339294,443
823.457825,445
823.576355,463
823.694824,457
823.813354,454
823.931885,458
824.050354,473
824.168884,467
824.287354,470
824.405823,456
824.524353,469
824.642822,465
824.761353,472
824.879822,466
824.998291,469
825.116699,456
825.235291,473
825.353699,461
825.472168,446
825.590637,448
825.709106,468
825.827576,459
825.946045,456
826.064453,459
826.182983,469
826.301392,466
826.4198,474
826.53833,444
826.656738,475
826.775208,443
826.893677,471
827.012024,460
827.130493,443
827.248962,463
827.36731,460
827.485779,431
827.604248,449
827.722595,457
827.841064,454
827.959412,452
828.077942,441
828.196289,460
828.314636,449
828.433105,450
828.551514,463
828.669861,451
828.78833,456
828.906677,452
829.025085,437
829.143433,451
829.261841,461
829.38031,454
829.498657,451
829.617004,453
829.735413,461
829.85376,451
829.972107,446
830.090515,458
830.208862,432
830.327209,438
830.445557,452
830.563904,446
830.682312,455
830.800659,441
830.919006,436
831.037354,441
831.155701,434
831.274048,453
831.392395,457
831.51062,457
831.629028,454
831.747314,451
831.865662,453
831.984009,442
832.102356,451
832.220642,456
832.338928,453
832.457275,456
832.575623,454
832.693909,438
832.812134,457
832.930481,447
833.048828,445
833.167114,447
833.2854,459
833.403687,438
833.521973,431
833.640259,469
833.758545,444
833.876831,440
833.995056,450
834.113281,468
834.231628,465
834.349915,462
834.468201,449
834.586426,445
834.704651,446
834.822998,467
834.941162,469
835.059448,451
835.177673,448
835.295959,442
835.414246,456
835.53241,461
835.650635,448
835.768921,448
835.887146,460
836.005371,461
836.123596,462
836.241821,454
836.360046,441
836.478271,453
836.596497,441
836.714722,478
836.832886,463
836.95105,444
837.069336,446
837.1875,436
837.305725,450
837.423889,439
837.542053,453
837.660339,461
837.778503,445
837.896667,467
838.014832,439
838.132996,449
838.25116,460
838.369385,450
838.487488,447
838.605713,437
838.723877,449
838.84198,449
838.960205,436
839.078308,449
839.196472,460
839.314636,457
839.4328,465
839.550964,457
839.669067,462
839.787231,449
839.905396,443
840.023499,458
840.141602,470
840.259766,467
840.377869,453
840.495972,449
840.614136,442
840.732239,450
840.850342,463
840.968445,441
841.086548,459
841.204651,452
841.322754,464
841.440918,458
841.55896,460
841.677002,446
841.795166,465
841.913208,443
842.031311,449
842.149353,456
842.267456,447
842.385498,457
842.503601,463
842.621643,448
842.739746,447
842.857788,446
842.97583,442
843.093933,440
843.211975,460
843.330017,445
843.44812,434
843.566101,450
843.684204,453
843.802246,458
843.920227,458
844.038269,464
844.156311,447
844.274292,456
844.392395,451
844.510376,452
844.628357,439
844.74646,449
844.864441,438
844.982422,443
845.100403,451
845.218384,458
845.336426,432
845.454468,432
845.572449,441
845.69043,452
845.808411,433
845.926453,460
846.044373,442
846.162354,446
846.280396,445
846.398315,452
846.516296,457
846.634216,454
846.752197,448
846.870178,440
846.988098,453
847.106079,445
847.22406,469
847.34198,448
847.4599,454
847.577881,467
847.695801,453
847.813782,454
847.931641,441
848.049561,455
848.167603,466
848.285461,432
848.403381,436
848.521362,452
848.639221,456
848.75708,451
848.875,455
848.99292,456
849.110901,468
849.22876,448
849.34668,446
849.464539,437
849.582458,445
849.700317,459
849.818176,448
849.936096,455
850.053955,458
850.171875,447
850.289673,426
850.407593,427
850.525452,455
850.643311,445
850.761169,425
850.878967,433
850.996887,455
851.114746,444
851.232544,450
851.350403,454
851.468262,450
851.58606,435
851.703979,464
851.821777,457
851.939636,462
852.057434,440
852.175232,456
852.293091,430
852.410889,442
852.528687,444
852.646545,435
852.764343,458
852.88208,440
852.999939,464
853.117676,453
853.235535,449
853.353271,448
853.471069,444
853.588928,455
853.706604,464
853.824402,464
853.9422,449
854.059998,454
854.177734,460
854.295532,445
854.413269,451
854.531006,458
854.648804,438
854.766541,466
854.884277,462
855.002014,464
855.119751,462
855.237549,453
855.355225,448
855.473022,451
855.590698,442
855.708435,463
855.826172,454
855.943848,470
856.061646,463
856.179321,445
856.296997,450
856.414795,451
856.53241,450
856.650085,450
856.767822,446
856.885559,437
857.003174,439
857.120911,446
857.238586,461
857.356201,450
857.473938,456
857.591614,457
857.709351,464
857.826965,461
857.944641,451
858.062317,459
858.179993,453
858.297668,453
858.415283,447
858.532959,454
858.650574,452
858.768188,454
858.885803,446
859.003479,445
859.121094,467
859.23877,449
859.356384,454
859.473999,455
859.591675,447
859.709229,455
859.826843,445
859.944458,437
860.062012,469
860.179626,458
860.297302,470
860.414856,437
860.532471,448
860.650024,442
860.767639,451
860.885193,435
861.002808,451
861.120361,447
861.237976,452
861.35553,444
861.473022,451
861.590698,447
861.708191,442
861.825745,435
861.943298,437
862.060852,446
862.178406,449
862.295959,431
862.413513,468
862.531006,443
862.64856,457
862.766113,461
862.883667,448
863.00116,441
863.118713,448
863.236206,441
863.353699,454
863.471252,449
863.588745,448
863.706177,463
863.82373,458
863.941162,462
864.058716,433
864.176208,473
864.29364,456
864.411194,439
864.528687,441
864.646118,465
864.763611,448
864.881042,441
864.998535,451
865.116028,439
865.233459,448
865.350891,437
865.468384,455
865.585754,437
865.703308,459
865.820679,442
865.938171,443
866.055542,440
866.173035,473
866.290466,459
866.407837,455
866.52533,457
866.6427,452
866.760071,448
866.877563,445
866.994934,448
867.112305,446
867.229736,449
867.347107,465
867.464539,472
867.58197,447
867.699341,454
867.81665,463
867.934082,442
868.051453,443
868.168823,442
868.286194,455
868.403564,439
868.520935,445
868.638306,456
868.755676,456
868.872986,447
868.990295,448
869.107727,454
869.225037,455
869.342346,451
869.459717,454
869.577026,463
869.694336,468
869.811707,451
869.929016,454
870.046326,452
870.163635,429
870.280945,453
870.398254,444
870.515564,472
870.632812,455
870.750183,449
870.867432,458
870.984741,443
871.102051,423
871.219299,446
871.336609,453
871.453918,448
871.571106,464
871.688416,461
871.805664,450
871.922852,455
872.040222,475
872.157471,450
872.274719,454
872.391968,462
872.509155,448
872.626465,469
872.743652,450
872.860962,453
872.978149,451
873.095337,442
873.212646,460
873.329834,446
873.44696,440
873.564209,442
873.681396,450
873.798645,442
873.915894,467
874.03302,466
874.150208,471
874.267456,477
874.384583,473
874.501831,442
874.618958,449
874.736145,472
874.853333,450
874.970459,448
875.087646,449
875.204834,460
875.32196,439
875.439148,466
875.556274,448
875.673401,456
875.790527,446
875.907715,447
876.024841,440
876.141968,453
876.259094,451
876.376282,454
876.493347,458
876.610474,465
876.7276,460
876.844727,452
876.961853,442
877.078918,451
877.195984,454
877.313171,450
877.430237,445
877.547302,449
877.664368,473
877.781433,443
877.898499,441
878.015625,466
878.13269,455
878.249695,461
878.366821,458
878.483887,465
878.600952,450
878.717957,453
878.834961,449
878.952087,466
879.069092,448
879.186157,464
879.303162,450
879.420227,462
879.537231,453
879.654236,473
879.77124,463
879.888306,458
880.005249,464
880.122314,464
880.239319,454
880.356323,444
880.473328,452
880.590271,456
880.707275,450
880.824341,449
880.941284,456
881.058228,465
881.175232,467
881.292236,457
881.40918,461
881.526123,472
881.643066,472
881.760071,457
881.877014,447
881.993958,459
882.11084,472
882.227783,452
882.344727,455
882.46167,451
882.578613,445
882.695618,456
882.812439,459
882.929382,447
883.046326,459
883.163208,474
883.280151,452
883.397034,452
883.513916,477
883.630798,461
883.747742,444
883.864563,442
883.981506,436
884.098389,473
884.21521,440
884.332153,473
884.448975,447
884.565796,456
884.682678,467
884.7995,461
884.916443,471
885.033264,468
885.150085,461
885.266968,451
885.383789,440
885.500671,468
885.617493,485
885.734314,449
885.851196,455
885.967896,456
886.084717,467
886.201599,468
886.318359,478
886.435181,465
886.552002,465
886.668762,465
886.785645,440
886.902344,442
887.019165,476
887.135925,460
887.252747,466
887.369446,465
887.486267,438
887.603027,473
887.719788,480
887.836548,460
887.953247,464
888.070068,458
888.186829,470
888.303528,462
888.420288,452
888.536987,478
888.653687,461
888.770447,475
888.887146,461
889.003967,452
889.120667,459
889.237305,468
889.354065,457
889.470703,454
889.587463,455
889.704163,460
889.820862,449
889.937561,479
890.054199,452
890.170837,459
890.287598,474
890.404236,448
890.520874,452
890.637634,450
890.754211,482
890.87085,450
890.987549,461
891.104187,464
891.220886,448
891.337463,466
891.454102,445
891.57074,443
891.687378,470
891.804077,463
891.920654,457
892.037231,468
892.15387,471
892.270447,476
892.387085,463
892.503723,466
892.6203,470
892.736877,482
892.853516,446
892.970032,480
893.08667,470
893.203186,444
893.319763,458
893.43634,442
893.552917,453
893.669556,458
893.786011,468
893.902588,443
894.019165,477
894.135681,475
894.252197,458
894.368835,485
894.485291,477
894.601868,480
894.718384,458
894.8349,452
894.951355,478
895.067932,455
895.184448,474
895.300964,467
895.417419,465
895.533936,463
895.650452,458
895.766907,460
895.883423,452
895.999878,458
896.116333,471
896.232849,475
896.349304,465
896.465759,479
896.582214,463
896.698669,470
896.815125,464
896.931641,469
897.048035,458
897.164551,448
897.280884,472
897.397339,452
897.513794,452
897.630249,481
897.746582,467
897.863098,489
897.979431,479
898.095886,480
898.212341,466
898.328674,494
898.445129,471
898.561462,454
898.677795,475
898.794312,467
898.910645,473
899.026978,455
899.143433,472
899.259766,474
899.37616,475
899.492493,460
899.608765,474
899.725159,472
899.841553,459
899.957947,461
900.07428,465
900.190552,473
900.306946,468
900.423157,463
900.53949,476
900.655884,469
900.772156,461
900.888489,463
901.004822,479
901.121033,462
901.237366,475
901.353699,451
901.46991,462
901.586304,481
901.702515,455
901.818787,474
901.93512,468
902.051331,448
902.167603,470
902.283875,455
902.400085,479
902.516418,459
902.632629,457
902.74884,464
902.865112,478
902.981384,465
903.097595,468
903.213867,470
903.330017,468
903.446289,477
903.5625,475
903.67865,466
903.794922,468
903.911072,449
904.027344,471
904.143494,478
904.259705,483
904.375916,471
904.492065,467
904.608215,463
904.724426,454
904.840576,473
904.956726,492
905.072876,469
905.189087,487
905.305176,474
905.421387,491
905.537537,458
905.653687,472
905.769775,463
905.885925,485
906.002014,464
906.118164,447
906.234314,461
906.350403,472
906.466492,478
906.582642,486
906.69873,471
906.814758,474
906.930908,469
907.046936,476
907.163086,490
907.279175,477
907.395264,480
907.511353,482
907.62738,456
907.743408,481
907.859497,485
907.975525,497
908.091553,460
908.207703,465
908.32373,477
908.439758,467
908.555786,481
908.671814,462
908.787842,479
908.90387,484
909.019775,483
909.135864,444
909.251892,478
909.367859,478
909.483826,469
909.599854,467
909.715881,485
909.831848,473
909.947815,463
910.063782,469
910.179749,456
910.295776,470
910.411743,489
910.527649,485
910.643616,473
910.759583,468
910.875488,494
910.991455,470
911.107361,464
911.223267,472
911.339294,486
911.4552,500
911.571106,487
911.687073,477
911.802979,474
911.918823,464
912.034729,477
912.150635,483
912.266602,461
912.382446,474
912.498352,456
912.614197,469
912.730103,455
912.846008,469
