792.44574,622
792.56488,605
792.68396,673
792.80304,664
792.92218,590
793.041199,558
793.160339,583
793.279419,592
793.398499,591
793.517578,573
793.636658,591
793.755737,590
793.874817,610
793.993896,583
794.112976,607
794.232056,588
794.351074,586
794.470215,574
794.589233,603
794.708313,562
794.827393,575
794.946411,596
795.065552,569
795.18457,579
795.303589,575
795.422668,587
795.541687,587
795.660767,575
795.779846,568
795.898865,564
796.017883,591
796.136963,567
796.255981,574
796.375061,571
796.49408,561
796.613037,566
796.732117,604
796.851135,590
796.970154,578
797.089233,561
797.208191,584
797.327271,562
797.446228,556
797.565186,590
797.684265,573
797.803223,575
797.922241,580
798.04126,570
798.160278,564
798.279297,559
798.398315,569
798.517273,540
798.636292,559
798.75531,574
798.874268,561
798.993286,553
799.112244,582
799.231323,558
799.350281,559
799.469238,537
799.588257,566
799.707153,563
799.826111,566
799.945129,593
800.064087,594
800.183044,542
800.302063,562
800.421021,560
800.539978,569
800.658936,557
800.777893,560
800.896912,570
801.015747,567
801.134705,584
801.253723,582
801.37262,581
801.491638,577
801.610535,551
801.729492,557
801.84845,568
801.967407,577
802.086243,580
802.205261,581
802.324158,559
802.443115,579
802.562073,549
802.680969,558
802.799927,591
802.918762,588
803.037659,610
803.156677,588
803.275574,555
803.39447,596
803.513428,590
803.632263,582
803.751221,591
803.870117,594
803.989014,575
804.107971,567
804.226746,562
804.345642,574
804.4646,611
804.583496,587
804.702393,587
804.821228,603
804.940125,586
805.059021,598
805.177917,576
805.296814,609
805.415649,578
805.534546,585
805.653442,588
805.772278,599
805.891113,584
806.01001,590
806.128906,610
806.247742,593
806.366577,598
806.485413,585
806.604309,610
806.723145,610
806.84198,613
806.960876,584
807.079712,565
807.198486,612
807.317383,591
807.436218,610
807.554993,603
807.673889,592
807.792725,608
807.91156,602
808.030396,595
808.14917,597
808.268005,599
808.386841,598
808.505676,616
808.624451,609
808.743286,602
808.862122,618
808.980896,613
809.099731,602
809.218506,596
809.337341,602
809.456116,622
809.57489,606
809.693726,609
809.8125,614
809.931274,608
810.050049,596
810.168884,618
810.287659,615
810.406372,573
810.525269,626
810.643982,641
810.762756,607
810.881531,606
811.000305,620
811.11908,596
811.237854,606
811.356567,619
811.475403,605
811.594116,618
811.71283,609
811.831604,640
811.950378,613
812.069153,608
812.187927,614
812.30658,619
812.425415,605
812.544128,596
812.662781,621
812.781616,616
812.900269,599
813.019043,628
813.137756,625
813.256531,636
813.375244,620
813.493896,614
813.612671,609
813.731384,614
813.850037,622
813.96875,594
814.087524,642
814.206238,609
814.324951,611
814.443604,618
814.562256,620
814.68103,607
814.799683,593
814.918335,605
815.037109,612
815.155762,624
815.274475,619
815.393188,585
815.511841,605
815.630554,580
815.749146,578
815.867859,608
815.986572,603
816.105164,587
816.223877,584
816.342529,602
816.461182,592
816.579895,594
816.698486,626
816.817139,593
816.935791,590
817.054504,601
817.173096,630
817.291748,609
817.4104,624
817.529053,571
817.647644,585
817.766235,562
817.884949,580
818.00354,583
818.122192,547
818.240845,538
818.359436,535
818.478088,502
818.59668,528
818.715271,510
818.833923,522
818.952515,514
819.071106,515
819.189758,524
819.30835,514
819.426941,485
819.545532,499
819.664124,494
819.782715,494
819.901306,483
820.019897,506
820.138489,480
820.25708,495
820.375671,481
820.494202,494
820.612732,482
820.731384,487
820.849915,485
820.968506,483
821.087097,488
821.205627,491
821.324158,469
821.442749,476
821.561279,456
821.679871,477
821.798401,476
821.916931,452
822.035461,473
822.154053,471
822.272583,464
822.391174,458
822.509583,482
822.628174,484
822.746704,467
822.865234,478
822.983765,458
823.102295,473
823.220825,471
823.339294,495
823.457825,479
823.576355,488
823.694824,468
823.813354,488
823.931885,485
824.050354,469
824.168884,481
824.287354,480
824.405823,482
824.524353,491
824.642822,490
824.761353,486
824.879822,462
824.998291,481
825.116699,486
825.235291,510
825.353699,463
825.472168,487
825.590637,465
825.709106,483
825.827576,458
825.946045,470
826.064453,450
826.182983,477
826.301392,465
826.4198,462
826.53833,469
826.656738,457
826.775208,455
826.893677,441
827.012024,459
827.130493,459
827.248962,461
827.36731,468
827.485779,455
827.604248,454
827.722595,462
827.841064,471
827.959412,451
828.077942,456
828.196289,444
828.314636,452
828.433105,445
828.551514,460
828.669861,450
828.78833,453
828.906677,437
829.025085,460
829.143433,446
829.261841,461
829.38031,456
829.498657,455
829.617004,454
829.735413,454
829.85376,455
829.972107,478
830.090515,424
830.208862,462
830.327209,465
830.445557,450
830.563904,437
830.682312,455
830.800659,447
830.919006,453
831.037354,459
831.155701,456
831.274048,448
831.392395,467
831.51062,442
831.629028,463
831.747314,458
831.865662,443
831.984009,441
832.102356,449
832.220642,460
832.338928,469
832.457275,437
832.575623,480
832.693909,439
832.812134,465
832.930481,466
833.048828,457
833.167114,450
833.2854,457
833.403687,454
833.521973,456
833.640259,434
833.758545,452
833.876831,437
833.995056,459
834.113281,454
834.231628,444
834.349915,467
834.468201,439
834.586426,455
834.704651,453
834.822998,450
834.941162,478
835.059448,466
835.177673,460
835.295959,457
835.414246,458
835.53241,443
835.650635,456
835.768921,459
835.887146,464
836.005371,445
836.123596,475
836.241821,458
836.360046,449
836.478271,476
836.596497,456
836.714722,456
836.832886,459
836.95105,454
837.069336,491
837.1875,443
837.305725,464
837.423889,442
837.542053,465
837.660339,468
837.778503,471
837.896667,482
838.014832,472
838.132996,472
838.25116,483
838.369385,480
838.487488,481
838.605713,460
838.723877,473
838.84198,478
838.960205,490
839.078308,458
839.196472,452
839.314636,465
839.4328,467
839.550964,463
839.669067,470
839.787231,440
839.905396,467
840.023499,459
840.141602,467
840.259766,462
840.377869,474
840.495972,463
840.614136,471
840.732239,463
840.850342,461
840.968445,455
841.086548,470
841.204651,471
841.322754,457
841.440918,450
841.55896,452
841.677002,454
841.795166,463
841.913208,463
842.031311,479
842.149353,466
842.267456,458
842.385498,442
842.503601,461
842.621643,448
842.739746,451
842.857788,447
842.97583,465
843.093933,445
843.211975,438
843.330017,457
843.44812,468
843.566101,452
843.684204,460
843.802246,450
843.920227,448
844.038269,448
844.156311,456
844.274292,450
844.392395,442
844.510376,442
844.628357,443
844.74646,450
844.864441,450
844.982422,443
845.100403,451
845.218384,446
845.336426,460
845.454468,449
845.572449,451
845.69043,426
845.808411,440
845.926453,433
846.044373,452
846.162354,447
846.280396,439
846.398315,434
846.516296,447
846.634216,456
846.752197,453
846.870178,459
846.988098,462
847.106079,456
847.22406,439
847.34198,456
847.4599,452
847.577881,436
847.695801,443
847.813782,439
847.931641,442
848.049561,439
848.167603,446
848.285461,437
848.403381,434
848.521362,458
848.639221,438
848.75708,420
848.875,458
848.99292,446
849.110901,448
849.22876,448
849.34668,433
849.464539,451
849.582458,461
849.700317,423
849.818176,424
849.936096,447
850.053955,427
850.171875,436
850.289673,442
850.407593,425
850.525452,451
850.643311,442
850.761169,443
850.878967,432
850.996887,448
851.114746,415
851.232544,464
851.350403,436
851.468262,457
851.58606,423
851.703979,457
851.821777,453
851.939636,448
852.057434,453
852.175232,437
852.293091,429
852.410889,436
852.528687,450
852.646545,455
852.764343,446
852.88208,462
852.999939,434
853.117676,453
853.235535,443
853.353271,453
853.471069,447
853.588928,446
853.706604,445
853.824402,454
853.9422,434
854.059998,454
854.177734,439
854.295532,431
854.413269,450
854.531006,446
854.648804,425
854.766541,449
854.884277,455
855.002014,461
855.119751,435
855.237549,441
855.355225,421
855.473022,464
855.590698,451
855.708435,464
855.826172,452
855.943848,464
856.061646,439
856.179321,480
856.296997,423
856.414795,454
856.53241,453
856.650085,455
856.767822,448
856.885559,465
857.003174,460
857.120911,463
857.238586,450
857.356201,458
857.473938,460
857.591614,450
857.709351,471
857.826965,455
857.944641,453
858.062317,459
858.179993,442
858.297668,449
858.415283,443
858.532959,451
858.650574,448
858.768188,476
858.885803,449
859.003479,449
859.121094,446
859.23877,457
859.356384,458
859.473999,445
859.591675,451
859.709229,440
859.826843,435
859.944458,467
860.062012,445
860.179626,448
860.297302,446
860.414856,440
860.532471,440
860.650024,456
860.767639,452
860.885193,447
861.002808,447
861.120361,450
861.237976,455
861.35553,443
861.473022,457
861.590698,465
861.708191,459
861.825745,466
861.943298,445
862.060852,443
862.178406,454
862.295959,459
862.413513,449
862.531006,435
862.64856,445
862.766113,459
862.883667,453
863.00116,455
863.118713,455
863.236206,469
863.353699,444
863.471252,468
863.588745,461
863.706177,431
863.82373,440
863.941162,458
864.058716,462
864.176208,458
864.29364,446
864.411194,470
864.528687,459
864.646118,475
864.763611,467
864.881042,443
864.998535,452
865.116028,459
865.233459,449
865.350891,458
865.468384,428
865.585754,456
865.703308,444
865.820679,469
865.938171,453
866.055542,446
866.173035,461
866.290466,461
866.407837,457
866.52533,480
866.6427,447
866.760071,449
866.877563,465
866.994934,455
867.112305,452
867.229736,459
867.347107,464
867.464539,461
867.58197,466
867.699341,447
867.81665,442
867.934082,453
868.051453,441
868.168823,462
868.286194,461
868.403564,433
868.520935,451
868.638306,445
868.755676,464
868.872986,455
868.990295,447
869.107727,460
869.225037,459
869.342346,459
869.459717,456
869.577026,434
869.694336,457
869.811707,456
869.929016,443
870.046326,485
870.163635,457
870.280945,461
870.398254,487
870.515564,463
870.632812,449
870.750183,435
870.867432,452
870.984741,468
871.102051,451
871.219299,457
871.336609,448
871.453918,461
871.571106,478
871.688416,457
871.805664,443
871.922852,447
872.040222,456
872.157471,456
872.274719,448
872.391968,456
872.509155,467
872.626465,450
872.743652,444
872.860962,470
872.978149,451
873.095337,452
873.212646,444
873.329834,450
873.44696,466
873.564209,452
873.681396,452
873.798645,444
873.915894,443
874.03302,458
874.150208,442
874.267456,465
874.384583,453
874.501831,457
874.618958,448
874.736145,453
874.853333,451
874.970459,471
875.087646,450
875.204834,459
875.32196,448
875.439148,464
875.556274,456
875.673401,474
875.790527,435
875.907715,461
876.024841,473
876.141968,440
876.259094,465
876.376282,456
876.493347,463
876.610474,449
876.7276,468
876.844727,443
876.961853,453
877.078918,456
877.195984,455
877.313171,463
877.430237,438
877.547302,461
877.664368,434
877.781433,453
877.898499,471
878.015625,459
878.13269,441
878.249695,461
878.366821,440
878.483887,455
878.600952,460
878.717957,446
878.834961,464
878.952087,453
879.069092,463
879.186157,439
879.303162,457
879.420227,454
879.537231,454
879.654236,469
879.77124,437
879.888306,454
880.005249,466
880.122314,432
880.239319,443
880.356323,448
880.473328,465
880.590271,454
880.707275,446
880.824341,465
880.941284,457
881.058228,480
881.175232,467
881.292236,460
881.40918,458
881.526123,470
881.643066,461
881.760071,470
881.877014,442
881.993958,455
882.11084,460
882.227783,444
882.344727,443
882.46167,469
882.578613,444
882.695618,472
882.812439,462
882.929382,456
883.046326,447
883.163208,466
883.280151,454
883.397034,449
883.513916,437
883.630798,450
883.747742,451
883.864563,446
883.981506,454
884.098389,431
884.21521,454
884.332153,466
884.448975,444
884.565796,457
884.682678,456
884.7995,467
884.916443,455
885.033264,463
885.150085,450
885.266968,499
885.383789,456
885.500671,459
885.617493,467
885.734314,460
885.851196,457
885.967896,465
886.084717,469
886.201599,465
886.318359,465
886.435181,470
886.552002,445
886.668762,461
886.785645,448
886.902344,453
887.019165,479
887.135925,452
887.252747,476
887.369446,474
887.486267,446
887.603027,454
887.719788,451
887.836548,485
887.953247,452
888.070068,473
888.186829,452
888.303528,466
888.420288,466
888.536987,443
888.653687,450
888.770447,457
888.887146,464
889.003967,460
889.120667,461
889.237305,456
889.354065,478
889.470703,464
889.587463,470
889.704163,462
889.820862,452
889.937561,455
890.054199,485
890.170837,451
890.287598,471
890.404236,477
890.520874,459
890.637634,460
890.754211,453
890.87085,473
890.987549,457
891.104187,465
891.220886,445
891.337463,467
891.454102,444
891.57074,471
891.687378,463
891.804077,453
891.920654,473
892.037231,446
892.15387,452
892.270447,468
892.387085,460
892.503723,480
892.6203,460
892.736877,458
892.853516,474
892.970032,471
893.08667,450
893.203186,442
893.319763,456
893.43634,459
893.552917,455
893.669556,460
893.786011,450
893.902588,491
894.019165,446
894.135681,466
894.252197,464
894.368835,455
894.485291,469
894.601868,463
894.718384,466
894.8349,476
894.951355,470
895.067932,461
895.184448,466
895.300964,480
895.417419,464
895.533936,465
895.650452,452
895.766907,464
895.883423,472
895.999878,475
896.116333,455
896.232849,470
896.349304,452
896.465759,485
896.582214,474
896.698669,482
896.815125,473
896.931641,473
897.048035,482
897.164551,465
897.280884,466
897.397339,463
897.513794,469
897.630249,466
897.746582,460
897.863098,470
897.979431,475
898.095886,464
898.212341,448
898.328674,473
898.445129,461
898.561462,473
898.677795,486
898.794312,471
898.910645,453
899.026978,472
899.143433,471
899.259766,475
899.37616,452
899.492493,473
899.608765,483
899.725159,481
899.841553,471
899.957947,473
900.07428,475
900.190552,481
900.306946,459
900.423157,467
900.53949,469
900.655884,483
900.772156,475
900.888489,491
901.004822,465
901.121033,467
901.237366,462
901.353699,466
901.46991,471
901.586304,454
901.702515,459
901.818787,481
901.93512,464
902.051331,469
902.167603,490
902.283875,473
902.400085,466
902.516418,492
902.632629,469
902.74884,468
902.865112,457
902.981384,466
903.097595,473
903.213867,488
903.330017,464
903.446289,462
903.5625,460
903.67865,475
903.794922,458
903.911072,484
904.027344,459
904.143494,480
904.259705,454
904.375916,475
904.492065,478
904.608215,479
904.724426,478
904.840576,485
904.956726,449
905.072876,482
905.189087,469
905.305176,481
905.421387,457
905.537537,478
905.653687,483
905.769775,463
905.885925,497
906.002014,483
906.118164,472
906.234314,476
906.350403,477
906.466492,444
906.582642,474
906.69873,464
906.814758,452
906.930908,483
907.046936,471
907.163086,465
907.279175,440
907.395264,456
907.511353,471
907.62738,483
907.743408,467
907.859497,507
907.975525,473
908.091553,486
908.207703,469
908.32373,483
908.439758,477
908.555786,485
908.671814,467
908.787842,472
908.90387,459
909.019775,498
909.135864,469
909.251892,472
909.367859,475
909.483826,492
909.599854,483
909.715881,464
909.831848,477
909.947815,464
910.063782,465
910.179749,489
910.295776,482
910.411743,486
910.527649,488
910.643616,466
910.759583,471
910.875488,483
910.991455,470
911.107361,488
911.223267,476
911.339294,477
911.4552,461
911.571106,463
911.687073,472
911.802979,491
911.918823,470
912.034729,480
912.150635,471
912.266602,485
912.382446,484
912.498352,498
912.614197,474
912.730103,462
912.846008,459
792.44574,623
792.56488,604
792.68396,675
792.80304,628
792.92218,628
793.041199,590
793.160339,600
793.279419,605
793.398499,603
793.517578,600
793.636658,588
793.755737,570
793.874817,623
793.993896,597
794.112976,577
794.232056,589
794.351074,585
794.470215,591
794.589233,592
794.708313,577
794.827393,597
794.946411,581
795.065552,618
795.18457,573
795.303589,593
795.422668,568
795.541687,565
795.660767,569
795.779846,562
795.898865,569
796.017883,597
796.136963,567
796.255981,573
796.375061,586
796.49408,573
796.613037,549
796.732117,595
796.851135,568
796.970154,584
797.089233,569
797.208191,558
797.327271,561
797.446228,560
797.565186,572
797.684265,567
797.803223,584
797.922241,572
798.04126,558
798.160278,559
798.279297,565
798.398315,557
798.517273,565
798.636292,574
798.75531,558
798.874268,573
798.993286,561
799.112244,585
799.231323,570
799.350281,547
799.469238,588
799.588257,572
799.707153,564
799.826111,562
799.945129,566
800.064087,570
800.183044,542
800.302063,567
800.421021,554
800.539978,589
800.658936,562
800.777893,585
800.896912,578
801.015747,564
801.134705,555
801.253723,560
801.37262,568
801.491638,585
801.610535,576
801.729492,574
801.84845,572
801.967407,542
802.086243,535
802.205261,588
802.324158,561
802.443115,600
802.562073,566
802.680969,582
802.799927,598
802.918762,591
803.037659,574
803.156677,581
803.275574,592
803.39447,594
803.513428,573
803.632263,586
803.751221,561
803.870117,586
803.989014,589
804.107971,589
804.226746,594
804.345642,588
804.4646,593
804.583496,559
804.702393,584
804.821228,592
804.940125,598
805.059021,599
805.177917,566
805.296814,599
805.415649,595
805.534546,595
805.653442,601
805.772278,605
805.891113,613
806.01001,599
806.128906,576
806.247742,590
806.366577,616
806.485413,590
806.604309,611
806.723145,616
806.84198,624
806.960876,603
807.079712,584
807.198486,587
807.317383,601
807.436218,621
807.554993,569
807.673889,608
807.792725,599
807.91156,627
808.030396,612
808.14917,622
808.268005,598
808.386841,615
808.505676,594
808.624451,624
808.743286,591
808.862122,608
808.980896,610
809.099731,614
809.218506,600
809.337341,615
809.456116,629
809.57489,634
809.693726,619
809.8125,587
809.931274,606
810.050049,599
810.168884,617
810.287659,616
810.406372,596
810.525269,621
810.643982,596
810.762756,635
810.881531,617
811.000305,628
811.11908,591
811.237854,604
811.356567,617
811.475403,604
811.594116,617
811.71283,623
811.831604,623
811.950378,646
812.069153,623
812.187927,645
812.30658,602
812.425415,613
812.544128,620
812.662781,606
812.781616,639
812.900269,630
813.019043,642
813.137756,618
813.256531,620
813.375244,610
813.493896,620
813.612671,619
813.731384,615
813.850037,646
813.96875,635
814.087524,636
814.206238,607
814.324951,636
814.443604,605
814.562256,659
814.68103,605
814.799683,604
814.918335,610
815.037109,619
815.155762,625
815.274475,611
815.393188,599
815.511841,609
815.630554,601
815.749146,622
815.867859,611
815.986572,599
816.105164,597
816.223877,599
816.342529,581
816.461182,599
816.579895,600
816.698486,612
816.817139,591
816.935791,613
817.054504,618
817.173096,603
817.291748,622
817.4104,587
817.529053,584
817.647644,601
817.766235,564
817.884949,589
818.00354,558
818.122192,545
818.240845,541
818.359436,551
818.478088,535
818.59668,536
818.715271,531
818.833923,526
818.952515,512
819.071106,510
819.189758,515
819.30835,520
819.426941,522
819.545532,524
819.664124,504
819.782715,496
819.901306,493
820.019897,496
820.138489,488
820.25708,491
820.375671,493
820.494202,492
820.612732,506
820.731384,483
820.849915,479
820.968506,484
821.087097,485
821.205627,494
821.324158,492
821.442749,479
821.561279,498
821.679871,506
821.798401,480
821.916931,472
822.035461,487
822.154053,490
822.272583,464
822.391174,491
822.509583,496
822.628174,469
822.746704,474
822.865234,484
822.983765,492
823.102295,463
823.220825,485
823.339294,487
823.457825,465
823.576355,474
823.694824,479
823.813354,489
823.931885,493
824.050354,489
824.168884,476
824.287354,486
824.405823,488
824.524353,498
824.642822,489
824.761353,492
824.879822,473
824.998291,487
825.116699,484
825.235291,485
825.353699,491
825.472168,475
825.590637,485
825.709106,481
825.827576,469
825.946045,472
826.064453,480
826.182983,464
826.301392,476
826.4198,491
826.53833,458
826.656738,475
826.775208,470
826.893677,462
827.012024,487
827.130493,483
827.248962,458
827.36731,453
827.485779,480
827.604248,470
827.722595,475
827.841064,458
827.959412,456
828.077942,475
828.196289,448
828.314636,478
828.433105,439
828.551514,472
828.669861,457
828.78833,461
828.906677,458
829.025085,451
829.143433,450
829.261841,476
829.38031,444
829.498657,461
829.617004,452
829.735413,459
829.85376,470
829.972107,462
830.090515,460
830.208862,459
830.327209,437
830.445557,453
830.563904,459
830.682312,461
830.800659,455
830.919006,460
831.037354,453
831.155701,450
831.274048,458
831.392395,466
831.51062,464
831.629028,474
831.747314,452
831.865662,459
831.984009,453
832.102356,460
832.220642,471
832.338928,477
832.457275,456
832.575623,451
832.693909,465
832.812134,478
832.930481,445
833.048828,453
833.167114,454
833.2854,446
833.403687,457
833.521973,465
833.640259,463
833.758545,460
833.876831,431
833.995056,467
834.113281,459
834.231628,454
834.349915,455
834.468201,464
834.586426,452
834.704651,471
834.822998,447
834.941162,475
835.059448,455
835.177673,447
835.295959,471
835.414246,440
835.53241,458
835.650635,462
835.768921,436
835.887146,458
836.005371,455
836.123596,449
836.241821,478
836.360046,480
836.478271,488
836.596497,454
836.714722,470
836.832886,462
836.95105,479
837.069336,489
837.1875,465
837.305725,479
837.423889,466
837.542053,476
837.660339,474
837.778503,496
837.896667,444
838.014832,490
838.132996,471
838.25116,475
838.369385,457
838.487488,486
838.605713,481
838.723877,464
838.84198,447
838.960205,487
839.078308,477
839.196472,471
839.314636,469
839.4328,473
839.550964,482
839.669067,495
839.787231,482
839.905396,460
840.023499,486
840.141602,471
840.259766,458
840.377869,453
840.495972,481
840.614136,471
840.732239,463
840.850342,475
840.968445,469
841.086548,448
841.204651,431
841.322754,459
841.440918,469
841.55896,471
841.677002,456
841.795166,471
841.913208,468
842.031311,472
842.149353,458
842.267456,452
842.385498,456
842.503601,452
842.621643,458
842.739746,466
842.857788,446
842.97583,457
843.093933,431
843.211975,464
843.330017,455
843.44812,447
843.566101,454
843.684204,445
843.802246,456
843.920227,471
844.038269,457
844.156311,460
844.274292,431
844.392395,452
844.510376,448
844.628357,463
844.74646,448
844.864441,461
844.982422,434
845.100403,467
845.218384,447
845.336426,466
845.454468,471
845.572449,446
845.69043,448
845.808411,436
845.926453,442
846.044373,468
846.162354,449
846.280396,450
846.398315,422
846.516296,449
846.634216,446
846.752197,450
846.870178,466
846.988098,442
847.106079,457
847.22406,455
847.34198,459
847.4599,449
847.577881,454
847.695801,447
847.813782,460
847.931641,432
848.049561,476
848.167603,455
848.285461,446
848.403381,459
848.521362,442
848.639221,468
848.75708,433
848.875,454
848.99292,443
849.110901,443
849.22876,472
849.34668,452
849.464539,434
849.582458,460
849.700317,446
849.818176,450
849.936096,466
850.053955,454
850.171875,440
850.289673,434
850.407593,438
850.525452,437
850.643311,443
850.761169,456
850.878967,445
850.996887,445
851.114746,433
851.232544,453
851.350403,441
851.468262,440
851.58606,437
851.703979,441
851.821777,440
851.939636,463
852.057434,446
852.175232,451
852.293091,460
852.410889,464
852.528687,459
852.646545,477
852.764343,445
852.88208,439
852.999939,461
853.117676,449
853.235535,446
853.353271,455
853.471069,451
853.588928,462
853.706604,478
853.824402,445
853.9422,434
854.059998,461
854.177734,446
854.295532,449
854.413269,435
854.531006,459
854.648804,447
854.766541,467
854.884277,449
855.002014,462
855.119751,448
855.237549,455
855.355225,458
855.473022,468
855.590698,456
855.708435,446
855.826172,443
855.943848,456
856.061646,473
856.179321,452
856.296997,442
856.414795,465
856.53241,443
856.650085,460
856.767822,456
856.885559,451
857.003174,457
857.120911,466
857.238586,465
857.356201,470
857.473938,460
857.591614,450
857.709351,460
857.826965,441
857.944641,466
858.062317,467
858.179993,444
858.297668,463
858.415283,463
858.532959,467
858.650574,447
858.768188,444
858.885803,457
859.003479,454
859.121094,455
859.23877,439
859.356384,469
859.473999,462
859.591675,448
859.709229,455
859.826843,451
859.944458,470
860.062012,464
860.179626,456
860.297302,449
860.414856,443
860.532471,434
860.650024,462
860.767639,439
860.885193,452
861.002808,455
861.120361,460
861.237976,454
861.35553,460
861.473022,453
861.590698,470
861.708191,445
861.825745,433
861.943298,476
862.060852,435
862.178406,451
862.295959,457
862.413513,448
862.531006,450
862.64856,454
862.766113,459
862.883667,461
863.00116,468
863.118713,445
863.236206,465
863.353699,460
863.471252,438
863.588745,460
863.706177,448
863.82373,465
863.941162,449
864.058716,453
864.176208,450
864.29364,452
864.411194,472
864.528687,461
864.646118,462
864.763611,460
864.881042,453
864.998535,438
865.116028,471
865.233459,440
865.350891,470
865.468384,469
865.585754,475
865.703308,436
865.820679,438
865.938171,458
866.055542,481
866.173035,438
866.290466,472
866.407837,462
866.52533,466
866.6427,460
866.760071,457
866.877563,467
866.994934,469
867.112305,459
867.229736,447
867.347107,449
867.464539,449
867.58197,470
867.699341,457
867.81665,452
867.934082,455
868.051453,462
868.168823,487
868.286194,461
868.403564,456
868.520935,464
868.638306,469
868.755676,450
868.872986,442
868.990295,456
869.107727,464
869.225037,470
869.342346,464
869.459717,477
869.577026,480
869.694336,469
869.811707,456
869.929016,454
870.046326,447
870.163635,465
870.280945,459
870.398254,461
870.515564,459
870.632812,459
870.750183,455
870.867432,468
870.984741,462
871.102051,452
871.219299,463
871.336609,445
871.453918,447
871.571106,438
871.688416,453
871.805664,455
871.922852,456
872.040222,448
872.157471,457
872.274719,455
872.391968,457
872.509155,459
872.626465,456
872.743652,448
872.860962,455
872.978149,464
873.095337,468
873.212646,448
873.329834,484
873.44696,456
873.564209,446
873.681396,441
873.798645,469
873.915894,456
874.03302,462
874.150208,448
874.267456,458
874.384583,455
874.501831,452
874.618958,451
874.736145,457
874.853333,448
874.970459,466
875.087646,460
875.204834,443
875.32196,444
875.439148,461
875.556274,436
875.673401,472
875.790527,455
875.907715,489
876.024841,452
876.141968,453
876.259094,446
876.376282,460
876.493347,456
876.610474,461
876.7276,453
876.844727,472
876.961853,467
877.078918,448
877.195984,467
877.313171,451
877.430237,473
877.547302,467
877.664368,463
877.781433,459
877.898499,457
878.015625,459
878.13269,450
878.249695,478
878.366821,445
878.483887,458
878.600952,470
878.717957,458
878.834961,442
878.952087,447
879.069092,456
879.186157,463
879.303162,441
879.420227,459
879.537231,442
879.654236,451
879.77124,463
879.888306,476
880.005249,465
880.122314,466
880.239319,466
880.356323,444
880.473328,462
880.590271,477
880.707275,452
880.824341,451
880.941284,460
881.058228,479
881.175232,442
881.292236,460
881.40918,458
881.526123,470
881.643066,461
881.760071,461
881.877014,455
881.993958,460
882.11084,473
882.227783,456
882.344727,446
882.46167,456
882.578613,459
882.695618,471
882.812439,456
882.929382,450
883.046326,456
883.163208,471
883.280151,455
883.397034,431
883.513916,479
883.630798,468
883.747742,446
883.864563,476
883.981506,434
884.098389,445
884.21521,470
884.332153,472
884.448975,479
884.565796,469
884.682678,462
884.7995,475
884.916443,464
885.033264,460
885.150085,456
885.266968,470
885.383789,460
885.500671,467
885.617493,474
885.734314,482
885.851196,471
885.967896,461
886.084717,471
886.201599,468
886.318359,454
886.435181,462
886.552002,451
886.668762,476
886.785645,465
886.902344,469
887.019165,464
887.135925,460
887.252747,448
887.369446,468
887.486267,450
887.603027,451
887.719788,471
887.836548,466
887.953247,447
888.070068,459
888.186829,468
888.303528,479
888.420288,464
888.536987,478
888.653687,447
888.770447,467
888.887146,473
889.003967,467
889.120667,472
889.237305,464
889.354065,457
889.470703,482
889.587463,457
889.704163,468
889.820862,472
889.937561,477
890.054199,458
890.170837,472
890.287598,482
890.404236,461
890.520874,439
890.637634,448
890.754211,470
890.87085,472
890.987549,450
891.104187,486
891.220886,455
891.337463,455
891.454102,453
891.57074,484
891.687378,460
891.804077,483
891.920654,467
892.037231,488
892.15387,464
892.270447,458
892.387085,470
892.503723,491
892.6203,466
892.736877,466
892.853516,468
892.970032,476
893.08667,450
893.203186,466
893.319763,470
893.43634,466
893.552917,468
893.669556,488
893.786011,470
893.902588,470
894.019165,457
894.135681,482
894.252197,492
894.368835,470
894.485291,447
894.601868,475
894.718384,476
894.8349,472
894.951355,489
895.067932,487
895.184448,467
895.300964,462
895.417419,474
895.533936,496
895.650452,473
895.766907,483
895.883423,470
895.999878,473
896.116333,456
896.232849,463
896.349304,478
896.465759,487
896.582214,469
896.698669,473
896.815125,467
896.931641,472
897.048035,458
897.164551,467
897.280884,470
897.397339,499
897.513794,491
897.630249,475
897.746582,459
897.863098,480
897.979431,460
898.095886,474
898.212341,464
898.328674,469
898.445129,474
898.561462,486
898.677795,482
898.794312,498
898.910645,462
899.026978,459
899.143433,479
899.259766,466
899.37616,472
899.492493,475
899.608765,488
899.725159,476
899.841553,440
899.957947,486
900.07428,463
900.190552,474
900.306946,458
900.423157,468
900.53949,473
900.655884,475
900.772156,475
900.888489,469
901.004822,452
901.121033,480
901.237366,477
901.353699,467
901.46991,479
901.586304,483
901.702515,485
901.818787,476
901.93512,470
902.051331,480
902.167603,468
902.283875,488
902.400085,472
902.516418,482
902.632629,486
902.74884,508
902.865112,488
902.981384,454
903.097595,469
903.213867,488
903.330017,470
903.446289,467
903.5625,475
903.67865,488
903.794922,468
903.911072,453
904.027344,478
904.143494,482
904.259705,455
904.375916,481
904.492065,463
904.608215,486
904.724426,478
904.840576,490
904.956726,480
905.072876,490
905.189087,475
905.305176,491
905.421387,486
905.537537,487
905.653687,463
905.769775,472
905.885925,493
906.002014,468
906.118164,457
906.234314,509
906.350403,479
906.466492,471
906.582642,481
906.69873,477
906.814758,488
906.930908,510
907.046936,487
907.163086,488
907.279175,488
907.395264,485
907.511353,459
907.62738,488
907.743408,476
907.859497,487
907.975525,482
908.091553,468
908.207703,473
908.32373,477
908.439758,482
908.555786,510
908.671814,483
908.787842,488
908.90387,469
909.019775,476
909.135864,492
909.251892,494
909.367859,463
909.483826,480
909.599854,483
909.715881,481
909.831848,485
909.947815,477
910.063782,487
910.179749,489
910.295776,474
910.411743,480
910.527649,471
910.643616,489
910.759583,467
910.875488,469
910.991455,491
911.107361,483
911.223267,492
911.339294,482
911.4552,481
911.571106,499
911.687073,491
911.802979,487
911.918823,469
912.034729,497
912.150635,470
912.266602,475
912.382446,476
912.498352,486
912.614197,479
912.730103,488
912.846008,461
792.44574,612
792.56488,614
792.68396,693
792.80304,644
792.92218,627
793.041199,614
793.160339,595
793.279419,582
793.398499,571
793.517578,596
793.636658,596
793.755737,604
793.874817,614
793.993896,606
794.112976,600
794.232056,583
794.351074,580
794.470215,587
794.589233,608
794.708313,578
794.827393,563
794.946411,573
795.065552,601
795.18457,563
795.303589,594
795.422668,589
795.541687,578
795.660767,583
795.779846,564
795.898865,575
796.017883,570
796.136963,561
796.255981,577
796.375061,555
796.49408,590
796.613037,556
796.732117,584
796.851135,561
796.970154,564
797.089233,554
797.208191,560
797.327271,563
797.446228,556
797.565186,566
797.684265,577
797.803223,567
797.922241,559
798.04126,580
798.160278,572
798.279297,563
798.398315,543
798.517273,574
798.636292,557
798.75531,543
798.874268,567
798.993286,551
799.112244,567
799.231323,551
799.350281,580
799.469238,558
799.588257,569
799.707153,569
799.826111,559
799.945129,578
800.064087,582
800.183044,581
800.302063,568
800.421021,571
800.539978,594
800.658936,563
800.777893,573
800.896912,576
801.015747,571
801.134705,580
801.253723,589
801.37262,595
801.491638,581
801.610535,583
801.729492,581
801.84845,599
801.967407,572
802.086243,602
802.205261,572
802.324158,588
802.443115,576
802.562073,577
802.680969,572
802.799927,582
802.918762,565
803.037659,579
803.156677,571
803.275574,581
803.39447,595
803.513428,593
803.632263,598
803.751221,562
803.870117,565
803.989014,620
804.107971,581
804.226746,583
804.345642,581
804.4646,576
804.583496,555
804.702393,592
804.821228,584
804.940125,599
805.059021,599
805.177917,592
805.296814,566
805.415649,597
805.534546,597
805.653442,589
805.772278,589
805.891113,596
806.01001,601
806.128906,627
806.247742,628
806.366577,602
806.485413,602
806.604309,608
806.723145,604
806.84198,614
806.960876,590
807.079712,589
807.198486,612
807.317383,592
807.436218,606
807.554993,585
807.673889,608
807.792725,610
807.91156,598
808.030396,620
808.14917,592
808.268005,605
808.386841,634
808.505676,622
808.624451,627
808.743286,637
808.862122,619
808.980896,601
809.099731,616
809.218506,597
809.337341,608
809.456116,607
809.57489,610
809.693726,627
809.8125,608
809.931274,637
810.050049,622
810.168884,617
810.287659,607
810.406372,636
810.525269,611
810.643982,606
810.762756,617
810.881531,636
811.000305,613
811.11908,634
811.237854,618
811.356567,608
811.475403,622
811.594116,614
811.71283,627
811.831604,598
811.950378,630
812.069153,603
812.187927,616
812.30658,623
812.425415,614
812.544128,605
812.662781,598
812.781616,605
812.900269,634
813.019043,627
813.137756,637
813.256531,616
813.375244,625
813.493896,615
813.612671,631
813.731384,642
813.850037,634
813.96875,617
814.087524,627
814.206238,632
814.324951,629
814.443604,593
814.562256,623
814.68103,611
814.799683,617
814.918335,603
815.037109,609
815.155762,588
815.274475,637
815.393188,579
815.511841,621
815.630554,616
815.749146,609
815.867859,584
815.986572,611
816.105164,582
816.223877,597
816.342529,607
816.461182,622
816.579895,580
816.698486,576
816.817139,626
816.935791,604
817.054504,594
817.173096,586
817.291748,594
817.4104,588
817.529053,606
817.647644,596
817.766235,557
817.884949,600
818.00354,569
818.122192,537
818.240845,558
818.359436,536
818.478088,543
818.59668,549
818.715271,518
818.833923,520
818.952515,514
819.071106,506
819.189758,507
819.30835,531
819.426941,506
819.545532,519
819.664124,519
819.782715,517
819.901306,498
820.019897,503
820.138489,490
820.25708,522
820.375671,500
820.494202,499
820.612732,494
820.731384,489
820.849915,476
820.968506,493
821.087097,496
821.205627,487
821.324158,459
821.442749,481
821.561279,474
821.679871,512
821.798401,486
821.916931,481
822.035461,474
822.154053,470
822.272583,477
822.391174,493
822.509583,476
822.628174,475
822.746704,489
822.865234,467
822.983765,483
823.102295,477
823.220825,485
823.339294,480
823.457825,473
823.576355,476
823.694824,488
823.813354,493
823.931885,474
824.050354,487
824.168884,495
824.287354,488
824.405823,481
824.524353,492
824.642822,500
824.761353,462
824.879822,482
824.998291,495
825.116699,478
825.235291,477
825.353699,470
825.472168,498
825.590637,474
825.709106,487
825.827576,463
825.946045,482
826.064453,464
826.182983,485
826.301392,470
826.4198,480
826.53833,481
826.656738,488
826.775208,473
826.893677,473
827.012024,457
827.130493,474
827.248962,470
827.36731,474
827.485779,436
827.604248,462
827.722595,465
827.841064,475
827.959412,447
828.077942,476
828.196289,439
828.314636,469
828.433105,459
828.551514,476
828.669861,471
828.78833,463
828.906677,455
829.025085,468
829.143433,476
829.261841,456
829.38031,439
829.498657,476
829.617004,450
829.735413,463
829.85376,459
829.972107,447
830.090515,447
830.208862,476
830.327209,447
830.445557,461
830.563904,465
830.682312,447
830.800659,461
830.919006,461
831.037354,472
831.155701,463
831.274048,472
831.392395,446
831.51062,447
831.629028,460
831.747314,467
831.865662,476
831.984009,447
832.102356,464
832.220642,444
832.338928,456
832.457275,454
832.575623,481
832.693909,472
832.812134,440
832.930481,480
833.048828,459
833.167114,461
833.2854,463
833.403687,436
833.521973,460
833.640259,445
833.758545,458
833.876831,455
833.995056,477
834.113281,460
834.231628,458
834.349915,459
834.468201,438
834.586426,445
834.704651,451
834.822998,467
834.941162,447
835.059448,480
835.177673,472
835.295959,461
835.414246,455
835.53241,451
835.650635,502
835.768921,449
835.887146,459
836.005371,473
836.123596,481
836.241821,471
836.360046,471
836.478271,473
836.596497,461
836.714722,457
836.832886,485
836.95105,465
837.069336,479
837.1875,474
837.305725,455
837.423889,464
837.542053,492
837.660339,462
837.778503,499
837.896667,460
838.014832,494
838.132996,476
838.25116,474
838.369385,464
838.487488,479
838.605713,484
838.723877,460
838.84198,462
838.960205,473
839.078308,458
839.196472,481
839.314636,476
839.4328,482
839.550964,464
839.669067,470
839.787231,460
839.905396,474
840.023499,458
840.141602,475
840.259766,488
840.377869,472
840.495972,461
840.614136,471
840.732239,462
840.850342,467
840.968445,447
841.086548,484
841.204651,451
841.322754,458
841.440918,455
841.55896,463
841.677002,451
841.795166,474
841.913208,470
842.031311,453
842.149353,455
842.267456,455
842.385498,451
842.503601,467
842.621643,452
842.739746,448
842.857788,456
842.97583,464
843.093933,452
843.211975,467
843.330017,460
843.44812,451
843.566101,442
843.684204,449
843.802246,470
843.920227,453
844.038269,447
844.156311,473
844.274292,441
844.392395,456
844.510376,459
844.628357,446
844.74646,451
844.864441,460
844.982422,444
845.100403,458
845.218384,438
845.336426,457
845.454468,441
845.572449,472
845.69043,451
845.808411,450
845.926453,458
846.044373,448
846.162354,458
846.280396,452
846.398315,443
846.516296,438
846.634216,449
846.752197,453
846.870178,444
846.988098,464
847.106079,436
847.22406,474
847.34198,447
847.4599,445
847.577881,446
847.695801,443
847.813782,451
847.931641,449
848.049561,452
848.167603,445
848.285461,466
848.403381,447
848.521362,456
848.639221,451
848.75708,443
848.875,458
848.99292,456
849.110901,451
849.22876,450
849.34668,464
849.464539,438
849.582458,446
849.700317,459
849.818176,464
849.936096,441
850.053955,456
850.171875,447
850.289673,458
850.407593,453
850.525452,455
850.643311,418
850.761169,466
850.878967,453
850.996887,431
851.114746,454
851.232544,448
851.350403,447
851.468262,458
851.58606,467
851.703979,439
851.821777,456
851.939636,461
852.057434,439
852.175232,457
852.293091,453
852.410889,443
852.528687,466
852.646545,456
852.764343,448
852.88208,457
852.999939,446
853.117676,470
853.235535,446
853.353271,449
853.471069,456
853.588928,447
853.706604,452
853.824402,469
853.9422,454
854.059998,445
854.177734,448
854.295532,470
854.413269,443
854.531006,461
854.648804,459
854.766541,466
854.884277,443
855.002014,467
855.119751,444
855.237549,451
855.355225,476
855.473022,475
855.590698,434
855.708435,458
855.826172,444
855.943848,468
856.061646,455
856.179321,471
856.296997,479
856.414795,474
856.53241,456
856.650085,456
856.767822,444
856.885559,453
857.003174,452
857.120911,469
857.238586,438
857.356201,448
857.473938,444
857.591614,455
857.709351,451
857.826965,442
857.944641,437
858.062317,453
858.179993,464
858.297668,485
858.415283,469
858.532959,453
858.650574,474
858.768188,429
858.885803,462
859.003479,464
859.121094,446
859.23877,459
859.356384,447
859.473999,427
859.591675,448
859.709229,470
859.826843,459
859.944458,446
860.062012,470
860.179626,439
860.297302,453
860.414856,438
860.532471,437
860.650024,464
860.767639,449
860.885193,441
861.002808,462
861.120361,470
861.237976,438
861.35553,453
861.473022,472
861.590698,465
861.708191,463
861.825745,457
861.943298,461
862.060852,464
862.178406,459
862.295959,456
862.413513,445
862.531006,457
862.64856,458
862.766113,435
862.883667,454
863.00116,472
863.118713,445
863.236206,473
863.353699,458
863.471252,470
863.588745,466
863.706177,455
863.82373,458
863.941162,452
864.058716,463
864.176208,456
864.29364,450
864.411194,448
864.528687,446
864.646118,456
864.763611,465
864.881042,455
864.998535,453
865.116028,460
865.233459,472
865.350891,449
865.468384,440
865.585754,460
865.703308,470
865.820679,464
865.938171,453
866.055542,450
866.173035,458
866.290466,471
866.407837,473
866.52533,454
866.6427,454
866.760071,460
866.877563,450
866.994934,444
867.112305,439
867.229736,463
867.347107,440
867.464539,458
867.58197,458
867.699341,458
867.81665,462
867.934082,462
868.051453,474
868.168823,463
868.286194,463
868.403564,463
868.520935,452
868.638306,450
868.755676,473
868.872986,464
868.990295,460
869.107727,482
869.225037,466
869.342346,461
869.459717,453
869.577026,466
869.694336,445
869.811707,467
869.929016,453
870.046326,469
870.163635,467
870.280945,462
870.398254,466
870.515564,459
870.632812,446
870.750183,476
870.867432,459
870.984741,450
871.102051,460
871.219299,453
871.336609,467
871.453918,466
871.571106,464
871.688416,456
871.805664,482
871.922852,453
872.040222,469
872.157471,460
872.274719,461
872.391968,468
872.509155,445
872.626465,469
872.743652,454
872.860962,452
872.978149,446
873.095337,454
873.212646,453
873.329834,453
873.44696,454
873.564209,470
873.681396,458
873.798645,451
873.915894,469
874.03302,465
874.150208,448
874.267456,456
874.384583,454
874.501831,459
874.618958,462
874.736145,460
874.853333,465
874.970459,449
875.087646,444
875.204834,452
875.32196,452
875.439148,466
875.556274,464
875.673401,455
875.790527,456
875.907715,484
876.024841,463
876.141968,445
876.259094,443
876.376282,465
876.493347,463
876.610474,465
876.7276,456
876.844727,451
876.961853,464
877.078918,476
877.195984,450
877.313171,474
877.430237,460
877.547302,435
877.664368,453
877.781433,448
877.898499,452
878.015625,468
878.13269,464
878.249695,451
878.366821,438
878.483887,468
878.600952,450
878.717957,484
878.834961,461
878.952087,460
879.069092,459
879.186157,474
879.303162,453
879.420227,449
879.537231,455
879.654236,477
879.77124,457
879.888306,465
880.005249,486
880.122314,457
880.239319,459
880.356323,471
880.473328,455
880.590271,459
880.707275,460
880.824341,482
880.941284,439
881.058228,470
881.175232,474
881.292236,482
881.40918,456
881.526123,473
881.643066,459
881.760071,477
881.877014,465
881.993958,461
882.11084,465
882.227783,475
882.344727,448
882.46167,453
882.578613,456
882.695618,469
882.812439,449
882.929382,446
883.046326,462
883.163208,474
883.280151,459
883.397034,451
883.513916,472
883.630798,463
883.747742,462
883.864563,460
883.981506,447
884.098389,465
884.21521,471
884.332153,468
884.448975,466
884.565796,467
884.682678,445
884.7995,465
884.916443,466
885.033264,468
885.150085,445
885.266968,473
885.383789,465
885.500671,459
885.617493,462
885.734314,480
885.851196,478
885.967896,486
886.084717,486
886.201599,449
886.318359,468
886.435181,472
886.552002,459
886.668762,451
886.785645,482
886.902344,469
887.019165,460
887.135925,465
887.252747,460
887.369446,486
887.486267,478
887.603027,470
887.719788,454
887.836548,471
887.953247,462
888.070068,457
888.186829,480
888.303528,467
888.420288,467
888.536987,457
888.653687,461
888.770447,478
888.887146,463
889.003967,485
889.120667,447
889.237305,477
889.354065,468
889.470703,465
889.587463,466
889.704163,475
889.820862,472
889.937561,470
890.054199,459
890.170837,472
890.287598,472
890.404236,476
890.520874,469
890.637634,464
890.754211,469
890.87085,470
890.987549,459
891.104187,470
891.220886,471
891.337463,479
891.454102,478
891.57074,483
891.687378,461
891.804077,489
891.920654,481
892.037231,500
892.15387,456
892.270447,451
892.387085,460
892.503723,485
892.6203,491
892.736877,487
892.853516,466
892.970032,460
893.08667,447
893.203186,472
893.319763,479
893.43634,456
893.552917,484
893.669556,471
893.786011,485
893.902588,471
894.019165,467
894.135681,473
894.252197,475
894.368835,482
894.485291,478
894.601868,478
894.718384,471
894.8349,449
894.951355,469
895.067932,476
895.184448,472
895.300964,476
895.417419,460
895.533936,484
895.650452,491
895.766907,473
895.883423,466
895.999878,484
896.116333,480
896.232849,478
896.349304,461
896.465759,485
896.582214,488
896.698669,474
896.815125,452
896.931641,473
897.048035,472
897.164551,471
897.280884,461
897.397339,484
897.513794,475
897.630249,483
897.746582,446
897.863098,494
897.979431,479
898.095886,467
898.212341,461
898.328674,483
898.445129,475
898.561462,462
898.677795,469
898.794312,489
898.910645,454
899.026978,468
899.143433,467
899.259766,473
899.37616,468
899.492493,468
899.608765,482
899.725159,483
899.841553,480
899.957947,471
900.07428,456
900.190552,477
900.306946,477
900.423157,460
900.53949,468
900.655884,486
900.772156,476
900.888489,479
901.004822,478
901.121033,469
901.237366,483
901.353699,482
901.46991,452
901.586304,459
901.702515,473
901.818787,479
901.93512,486
902.051331,483
902.167603,460
902.283875,477
902.400085,476
902.516418,485
902.632629,482
902.74884,478
902.865112,481
902.981384,471
903.097595,484
903.213867,487
903.330017,465
903.446289,494
903.5625,492
903.67865,482
903.794922,481
903.911072,486
904.027344,467
904.143494,492
904.259705,480
904.375916,482
904.492065,477
904.608215,502
904.724426,480
904.840576,495
904.956726,467
905.072876,484
905.189087,490
905.305176,480
905.421387,469
905.537537,490
905.653687,480
905.769775,471
905.885925,470
906.002014,490
906.118164,449
906.234314,474
906.350403,492
906.466492,496
906.582642,484
906.69873,482
906.814758,492
906.930908,492
907.046936,456
907.163086,506
907.279175,470
907.395264,475
907.511353,483
907.62738,483
907.743408,475
907.859497,499
907.975525,484
908.091553,499
908.207703,466
908.32373,473
908.439758,494
908.555786,464
908.671814,499
908.787842,479
908.90387,456
909.019775,473
909.135864,471
909.251892,478
909.367859,476
909.483826,475
909.599854,489
909.715881,477
909.831848,480
909.947815,507
910.063782,482
910.179749,499
910.295776,495
910.411743,500
910.527649,486
910.643616,503
910.759583,498
910.875488,477
910.991455,476
911.107361,484
911.223267,469
911.339294,493
911.4552,468
911.571106,492
911.687073,477
911.802979,495
911.918823,479
912.034729,474
912.150635,487
912.266602,475
912.382446,469
912.498352,480
912.614197,470
912.730103,488
912.846008,484
