792.44574,490
792.56488,534
792.68396,570
792.80304,556
792.92218,512
793.041199,503
793.160339,506
793.279419,517
793.398499,523
793.517578,486
793.636658,497
793.755737,501
793.874817,523
793.993896,515
794.112976,507
794.232056,490
794.351074,503
794.470215,499
794.589233,511
794.708313,483
794.827393,475
794.946411,486
795.065552,490
795.18457,515
795.303589,490
795.422668,491
795.541687,481
795.660767,482
795.779846,503
795.898865,477
796.017883,478
796.136963,482
796.255981,506
796.375061,499
796.49408,499
796.613037,485
796.732117,474
796.851135,479
796.970154,488
797.089233,468
797.208191,482
797.327271,486
797.446228,477
797.565186,483
797.684265,491
797.803223,483
797.922241,498
798.04126,476
798.160278,490
798.279297,473
798.398315,478
798.517273,483
798.636292,471
798.75531,470
798.874268,481
798.993286,499
799.112244,475
799.231323,490
799.350281,491
799.469238,483
799.588257,477
799.707153,488
799.826111,481
799.945129,481
800.064087,490
800.183044,475
800.302063,487
800.421021,472
800.539978,467
800.658936,462
800.777893,472
800.896912,463
801.015747,484
801.134705,473
801.253723,478
801.37262,467
801.491638,465
801.610535,476
801.729492,464
801.84845,475
801.967407,479
802.086243,481
802.205261,474
802.324158,479
802.443115,489
802.562073,452
802.680969,481
802.799927,475
802.918762,468
803.037659,492
803.156677,500
803.275574,460
803.39447,452
803.513428,461
803.632263,500
803.751221,471
803.870117,468
803.989014,463
804.107971,482
804.226746,471
804.345642,481
804.4646,481
804.583496,483
804.702393,462
804.821228,460
804.940125,478
805.059021,486
805.177917,481
805.296814,490
805.415649,490
805.534546,487
805.653442,477
805.772278,472
805.891113,485
806.01001,472
806.128906,469
806.247742,489
806.366577,442
806.485413,476
806.604309,485
806.723145,475
806.84198,484
806.960876,479
807.079712,468
807.198486,479
807.317383,478
807.436218,465
807.554993,497
807.673889,474
807.792725,456
807.91156,458
808.030396,474
808.14917,469
808.268005,463
808.386841,485
808.505676,486
808.624451,469
808.743286,450
808.862122,476
808.980896,478
809.099731,470
809.218506,466
809.337341,470
809.456116,483
809.57489,451
809.693726,466
809.8125,474
809.931274,465
810.050049,467
810.168884,483
810.287659,483
810.406372,461
810.525269,462
810.643982,471
810.762756,469
810.881531,467
811.000305,476
811.11908,461
811.237854,495
811.356567,462
811.475403,473
811.594116,464
811.71283,467
811.831604,463
811.950378,457
812.069153,499
812.187927,481
812.30658,468
812.425415,476
812.544128,481
812.662781,476
812.781616,463
812.900269,481
813.019043,460
813.137756,475
813.256531,471
813.375244,496
813.493896,466
813.612671,447
813.731384,481
813.850037,473
813.96875,457
814.087524,480
814.206238,468
814.324951,475
814.443604,444
814.562256,492
814.68103,479
814.799683,467
814.918335,472
815.037109,466
815.155762,462
815.274475,473
815.393188,457
815.511841,481
815.630554,460
815.749146,457
815.867859,475
815.986572,457
816.105164,465
816.223877,454
816.342529,467
816.461182,488
816.579895,480
816.698486,483
816.817139,449
816.935791,457
817.054504,468
817.173096,478
817.291748,477
817.4104,447
817.529053,475
817.647644,455
817.766235,472
817.884949,467
818.00354,466
818.122192,448
818.240845,458
818.359436,471
818.478088,461
818.59668,462
818.715271,447
818.833923,461
818.952515,448
819.071106,467
819.189758,452
819.30835,448
819.426941,478
819.545532,463
819.664124,464
819.782715,451
819.901306,470
820.019897,458
820.138489,451
820.25708,454
820.375671,456
820.494202,471
820.612732,460
820.731384,455
820.849915,448
820.968506,471
821.087097,462
821.205627,449
821.324158,464
821.442749,459
821.561279,463
821.679871,438
821.798401,444
821.916931,466
822.035461,444
822.154053,451
822.272583,443
822.391174,431
822.509583,462
822.628174,448
822.746704,441
822.865234,439
822.983765,452
823.102295,436
823.220825,449
823.339294,445
823.457825,443
823.576355,451
823.694824,444
823.813354,447
823.931885,458
824.050354,439
824.168884,457
824.287354,461
824.405823,450
824.524353,452
824.642822,457
824.761353,450
824.879822,450
824.998291,441
825.116699,448
825.235291,466
825.353699,451
825.472168,461
825.590637,454
825.709106,445
825.827576,436
825.946045,447
826.064453,437
826.182983,445
826.301392,431
826.4198,458
826.53833,457
826.656738,446
826.775208,448
826.893677,450
827.012024,447
827.130493,453
827.248962,449
827.36731,454
827.485779,434
827.604248,454
827.722595,449
827.841064,446
827.959412,451
828.077942,455
828.196289,439
828.314636,425
828.433105,451
828.551514,467
828.669861,455
828.78833,454
828.906677,444
829.025085,438
829.143433,428
829.261841,441
829.38031,459
829.498657,421
829.617004,442
829.735413,448
829.85376,443
829.972107,451
830.090515,445
830.208862,458
830.327209,441
830.445557,430
830.563904,447
830.682312,452
830.800659,436
830.919006,455
831.037354,456
831.155701,452
831.274048,460
831.392395,470
831.51062,456
831.629028,441
831.747314,430
831.865662,434
831.984009,437
832.102356,448
832.220642,449
832.338928,440
832.457275,449
832.575623,432
832.693909,444
832.812134,450
832.930481,443
833.048828,425
833.167114,436
833.2854,457
833.403687,444
833.521973,443
833.640259,438
833.758545,444
833.876831,445
833.995056,450
834.113281,440
834.231628,450
834.349915,433
834.468201,446
834.586426,445
834.704651,447
834.822998,457
834.941162,456
835.059448,448
835.177673,441
835.295959,437
835.414246,441
835.53241,445
835.650635,464
835.768921,427
835.887146,449
836.005371,448
836.123596,451
836.241821,444
836.360046,454
836.478271,437
836.596497,448
836.714722,442
836.832886,454
836.95105,448
837.069336,446
837.1875,434
837.305725,428
837.423889,449
837.542053,448
837.660339,444
837.778503,460
837.896667,443
838.014832,464
838.132996,439
838.25116,439
838.369385,427
838.487488,445
838.605713,440
838.723877,433
838.84198,450
838.960205,463
839.078308,456
839.196472,448
839.314636,438
839.4328,455
839.550964,452
839.669067,442
839.787231,427
839.905396,453
840.023499,438
840.141602,433
840.259766,447
840.377869,452
840.495972,435
840.614136,458
840.732239,435
840.850342,448
840.968445,438
841.086548,424
841.204651,466
841.322754,457
841.440918,437
841.55896,476
841.677002,444
841.795166,464
841.913208,436
842.031311,448
842.149353,441
842.267456,430
842.385498,447
842.503601,444
842.621643,432
842.739746,438
842.857788,447
842.97583,451
843.093933,435
843.211975,447
843.330017,437
843.44812,435
843.566101,436
843.684204,444
843.802246,451
843.920227,448
844.038269,462
844.156311,448
844.274292,446
844.392395,454
844.510376,450
844.628357,444
844.74646,434
844.864441,439
844.982422,451
845.100403,446
845.218384,424
845.336426,435
845.454468,449
845.572449,434
845.69043,448
845.808411,456
845.926453,431
846.044373,439
846.162354,434
846.280396,444
846.398315,439
846.516296,445
846.634216,440
846.752197,438
846.870178,445
846.988098,449
847.106079,446
847.22406,426
847.34198,451
847.4599,437
847.577881,428
847.695801,450
847.813782,421
847.931641,453
848.049561,439
848.167603,432
848.285461,439
848.403381,442
848.521362,428
848.639221,450
848.75708,446
848.875,427
848.99292,441
849.110901,427
849.22876,433
849.34668,452
849.464539,429
849.582458,456
849.700317,464
849.818176,452
849.936096,446
850.053955,449
850.171875,438
850.289673,447
850.407593,426
850.525452,440
850.643311,450
850.761169,446
850.878967,446
850.996887,449
851.114746,438
851.232544,443
851.350403,436
851.468262,446
851.58606,432
851.703979,448
851.821777,440
851.939636,431
852.057434,450
852.175232,450
852.293091,436
852.410889,438
852.528687,440
852.646545,461
852.764343,441
852.88208,425
852.999939,439
853.117676,442
853.235535,429
853.353271,440
853.471069,419
853.588928,443
853.706604,443
853.824402,439
853.9422,444
854.059998,444
854.177734,431
854.295532,445
854.413269,440
854.531006,435
854.648804,440
854.766541,461
854.884277,441
855.002014,460
855.119751,443
855.237549,445
855.355225,443
855.473022,446
855.590698,449
855.708435,449
855.826172,442
855.943848,425
856.061646,429
856.179321,447
856.296997,431
856.414795,447
856.53241,424
856.650085,435
856.767822,440
856.885559,451
857.003174,431
857.120911,450
857.238586,441
857.356201,430
857.473938,456
857.591614,441
857.709351,437
857.826965,449
857.944641,460
858.062317,442
858.179993,446
858.297668,460
858.415283,442
858.532959,436
858.650574,439
858.768188,444
858.885803,457
859.003479,441
859.121094,442
859.23877,455
859.356384,437
859.473999,435
859.591675,428
859.709229,463
859.826843,446
859.944458,453
860.062012,449
860.179626,444
860.297302,452
860.414856,453
860.532471,431
860.650024,438
860.767639,450
860.885193,441
861.002808,447
861.120361,456
861.237976,454
861.35553,449
861.473022,433
861.590698,451
861.708191,444
861.825745,444
861.943298,448
862.060852,445
862.178406,451
862.295959,433
862.413513,455
862.531006,440
862.64856,421
862.766113,444
862.883667,442
863.00116,414
863.118713,442
863.236206,466
863.353699,448
863.471252,432
863.588745,449
863.706177,439
863.82373,429
863.941162,457
864.058716,416
864.176208,442
864.29364,450
864.411194,437
864.528687,432
864.646118,447
864.763611,447
864.881042,442
864.998535,428
865.116028,448
865.233459,429
865.350891,465
865.468384,440
865.585754,458
865.703308,434
865.820679,430
865.938171,444
866.055542,431
866.173035,429
866.290466,445
866.407837,452
866.52533,461
866.6427,437
866.760071,435
866.877563,451
866.994934,448
867.112305,450
867.229736,452
867.347107,450
867.464539,444
867.58197,422
867.699341,460
867.81665,444
867.934082,450
868.051453,435
868.168823,450
868.286194,449
868.403564,457
868.520935,449
868.638306,447
868.755676,439
868.872986,443
868.990295,431
869.107727,441
869.225037,449
869.342346,456
869.459717,440
869.577026,449
869.694336,444
869.811707,454
869.929016,430
870.046326,439
870.163635,449
870.280945,446
870.398254,436
870.515564,447
870.632812,453
870.750183,462
870.867432,439
870.984741,456
871.102051,429
871.219299,454
871.336609,448
871.453918,462
871.571106,451
871.688416,456
871.805664,452
871.922852,448
872.040222,461
872.157471,455
872.274719,444
872.391968,468
872.509155,456
872.626465,456
872.743652,445
872.860962,464
872.978149,441
873.095337,450
873.212646,439
873.329834,460
873.44696,463
873.564209,433
873.681396,453
873.798645,447
873.915894,453
874.03302,453
874.150208,442
874.267456,461
874.384583,443
874.501831,436
874.618958,464
874.736145,442
874.853333,462
874.970459,458
875.087646,440
875.204834,449
875.32196,438
875.439148,451
875.556274,450
875.673401,454
875.790527,424
875.907715,442
876.024841,458
876.141968,437
876.259094,444
876.376282,442
876.493347,447
876.610474,457
876.7276,438
876.844727,446
876.961853,455
877.078918,452
877.195984,445
877.313171,439
877.430237,460
877.547302,458
877.664368,453
877.781433,452
877.898499,454
878.015625,454
878.13269,446
878.249695,453
878.366821,440
878.483887,452
878.600952,428
878.717957,450
878.834961,465
878.952087,454
879.069092,444
879.186157,455
879.303162,452
879.420227,451
879.537231,429
879.654236,439
879.77124,436
879.888306,430
880.005249,445
880.122314,433
880.239319,438
880.356323,451
880.473328,462
880.590271,435
880.707275,434
880.824341,452
880.941284,426
881.058228,459
881.175232,452
881.292236,450
881.40918,418
881.526123,452
881.643066,456
881.760071,459
881.877014,434
881.993958,457
882.11084,439
882.227783,453
882.344727,454
882.46167,451
882.578613,449
882.695618,455
882.812439,446
882.929382,445
883.046326,446
883.163208,461
883.280151,438
883.397034,466
883.513916,454
883.630798,455
883.747742,450
883.864563,444
883.981506,453
884.098389,423
884.21521,441
884.332153,439
884.448975,456
884.565796,446
884.682678,445
884.7995,449
884.916443,459
885.033264,476
885.150085,440
885.266968,466
885.383789,451
885.500671,449
885.617493,431
885.734314,459
885.851196,449
885.967896,455
886.084717,457
886.201599,464
886.318359,441
886.435181,478
886.552002,450
886.668762,461
886.785645,439
886.902344,448
887.019165,446
887.135925,461
887.252747,458
887.369446,435
887.486267,434
887.603027,443
887.719788,461
887.836548,451
887.953247,476
888.070068,444
888.186829,440
888.303528,434
888.420288,447
888.536987,462
888.653687,446
888.770447,456
888.887146,450
889.003967,451
889.120667,450
889.237305,444
889.354065,459
889.470703,461
889.587463,442
889.704163,466
889.820862,455
889.937561,458
890.054199,444
890.170837,443
890.287598,448
890.404236,429
890.520874,444
890.637634,452
890.754211,453
890.87085,431
890.987549,445
891.104187,459
891.220886,465
891.337463,454
891.454102,442
891.57074,446
891.687378,436
891.804077,458
891.920654,461
892.037231,450
892.15387,450
892.270447,449
892.387085,452
892.503723,471
892.6203,455
892.736877,446
892.853516,459
892.970032,463
893.08667,459
893.203186,448
893.319763,443
893.43634,465
893.552917,453
893.669556,467
893.786011,454
893.902588,457
894.019165,468
894.135681,447
894.252197,425
894.368835,461
894.485291,438
894.601868,462
894.718384,433
894.8349,470
894.951355,449
895.067932,463
895.184448,449
895.300964,466
895.417419,457
895.533936,462
895.650452,454
895.766907,437
895.883423,453
895.999878,461
896.116333,450
896.232849,461
896.349304,443
896.465759,465
896.582214,455
896.698669,481
896.815125,458
896.931641,468
897.048035,460
897.164551,459
897.280884,445
897.397339,454
897.513794,457
897.630249,454
897.746582,465
897.863098,445
897.979431,448
898.095886,479
898.212341,467
898.328674,456
898.445129,467
898.561462,456
898.677795,454
898.794312,461
898.910645,432
899.026978,469
899.143433,452
899.259766,453
899.37616,461
899.492493,465
899.608765,449
899.725159,449
899.841553,456
899.957947,479
900.07428,444
900.190552,444
900.306946,452
900.423157,471
900.53949,441
900.655884,445
900.772156,461
900.888489,448
901.004822,461
901.121033,456
901.237366,449
901.353699,453
901.46991,455
901.586304,464
901.702515,447
901.818787,456
901.93512,460
902.051331,441
902.167603,476
902.283875,455
902.400085,447
902.516418,457
902.632629,451
902.74884,466
902.865112,482
902.981384,454
903.097595,469
903.213867,462
903.330017,456
903.446289,462
903.5625,453
903.67865,456
903.794922,469
903.911072,450
904.027344,461
904.143494,458
904.259705,460
904.375916,460
904.492065,453
904.608215,479
904.724426,453
904.840576,470
904.956726,456
905.072876,464
905.189087,443
905.305176,476
905.421387,452
905.537537,483
905.653687,456
905.769775,464
905.885925,448
906.002014,451
906.118164,456
906.234314,446
906.350403,456
906.466492,446
906.582642,457
906.69873,463
906.814758,459
906.930908,468
907.046936,466
907.163086,473
907.279175,453
907.395264,477
907.511353,455
907.62738,460
907.743408,434
907.859497,455
907.975525,434
908.091553,478
908.207703,472
908.32373,465
908.439758,452
908.555786,461
908.671814,463
908.787842,468
908.90387,463
909.019775,461
909.135864,463
909.251892,458
909.367859,466
909.483826,481
909.599854,477
909.715881,466
909.831848,454
909.947815,452
910.063782,469
910.179749,470
910.295776,470
910.411743,470
910.527649,431
910.643616,460
910.759583,453
910.875488,464
910.991455,469
911.107361,446
911.223267,451
911.339294,474
911.4552,450
911.571106,475
911.687073,460
911.802979,482
911.918823,458
912.034729,441
912.150635,460
912.266602,460
912.382446,448
912.498352,475
912.614197,462
912.730103,449
912.846008,463
792.44574,509
792.56488,538
792.68396,559
792.80304,571
792.92218,513
793.041199,490
793.160339,493
793.279419,527
793.398499,512
793.517578,488
793.636658,516
793.755737,508
793.874817,504
793.993896,524
794.112976,494
794.232056,487
794.351074,509
794.470215,504
794.589233,501
794.708313,499
794.827393,494
794.946411,489
795.065552,500
795.18457,508
795.303589,471
795.422668,500
795.541687,493
795.660767,496
795.779846,488
795.898865,483
796.017883,510
796.136963,492
796.255981,494
796.375061,500
796.49408,485
796.613037,497
796.732117,500
796.851135,482
796.970154,484
797.089233,484
797.208191,492
797.327271,472
797.446228,495
797.565186,487
797.684265,486
797.803223,498
797.922241,478
798.04126,485
798.160278,489
798.279297,493
798.398315,485
798.517273,480
798.636292,474
798.75531,472
798.874268,476
798.993286,490
799.112244,492
799.231323,448
799.350281,487
799.469238,474
799.588257,492
799.707153,468
799.826111,492
799.945129,475
800.064087,482
800.183044,475
800.302063,497
800.421021,497
800.539978,488
800.658936,456
800.777893,492
800.896912,468
801.015747,471
801.134705,478
801.253723,461
801.37262,474
801.491638,490
801.610535,475
801.729492,476
801.84845,481
801.967407,496
802.086243,473
802.205261,484
802.324158,467
802.443115,494
802.562073,482
802.680969,480
802.799927,480
802.918762,488
803.037659,480
803.156677,471
803.275574,457
803.39447,467
803.513428,474
803.632263,467
803.751221,486
803.870117,481
803.989014,484
804.107971,477
804.226746,461
804.345642,483
804.4646,490
804.583496,481
804.702393,457
804.821228,467
804.940125,495
805.059021,492
805.177917,468
805.296814,460
805.415649,491
805.534546,471
805.653442,484
805.772278,471
805.891113,481
806.01001,477
806.128906,482
806.247742,476
806.366577,482
806.485413,476
806.604309,467
806.723145,497
806.84198,464
806.960876,474
807.079712,483
807.198486,472
807.317383,473
807.436218,484
807.554993,461
807.673889,462
807.792725,481
807.91156,477
808.030396,476
808.14917,461
808.268005,468
808.386841,481
808.505676,466
808.624451,472
808.743286,483
808.862122,484
808.980896,466
809.099731,463
809.218506,496
809.337341,474
809.456116,472
809.57489,484
809.693726,476
809.8125,469
809.931274,488
810.050049,501
810.168884,466
810.287659,482
810.406372,443
810.525269,474
810.643982,493
810.762756,482
810.881531,469
811.000305,483
811.11908,470
811.237854,468
811.356567,482
811.475403,459
811.594116,475
811.71283,468
811.831604,483
811.950378,480
812.069153,466
812.187927,457
812.30658,488
812.425415,476
812.544128,458
812.662781,479
812.781616,483
812.900269,466
813.019043,456
813.137756,449
813.256531,468
813.375244,471
813.493896,463
813.612671,490
813.731384,477
813.850037,460
813.96875,471
814.087524,478
814.206238,462
814.324951,459
814.443604,461
814.562256,452
814.68103,467
814.799683,473
814.918335,449
815.037109,475
815.155762,467
815.274475,466
815.393188,468
815.511841,478
815.630554,473
815.749146,471
815.867859,462
815.986572,475
816.105164,457
816.223877,487
816.342529,454
816.461182,455
816.579895,471
816.698486,485
816.817139,458
816.935791,478
817.054504,466
817.173096,500
817.291748,454
817.4104,470
817.529053,462
817.647644,480
817.766235,468
817.884949,480
818.00354,484
818.122192,473
818.240845,460
818.359436,475
818.478088,458
818.59668,474
818.715271,470
818.833923,449
818.952515,450
819.071106,466
819.189758,450
819.30835,446
819.426941,437
819.545532,476
819.664124,456
819.782715,461
819.901306,455
820.019897,456
820.138489,454
820.25708,455
820.375671,462
820.494202,444
820.612732,452
820.731384,462
820.849915,456
820.968506,470
821.087097,441
821.205627,469
821.324158,449
821.442749,472
821.561279,443
821.679871,485
821.798401,457
821.916931,462
822.035461,457
822.154053,463
822.272583,439
822.391174,467
822.509583,443
822.628174,461
822.746704,445
822.865234,474
822.983765,452
823.102295,462
823.220825,440
823.339294,457
823.457825,454
823.576355,439
823.694824,445
823.813354,450
823.931885,458
824.050354,456
824.168884,446
824.287354,451
824.405823,457
824.524353,462
824.642822,439
824.761353,468
824.879822,455
824.998291,465
825.116699,460
825.235291,454
825.353699,455
825.472168,446
825.590637,445
825.709106,463
825.827576,445
825.946045,456
826.064453,443
826.182983,467
826.301392,452
826.4198,475
826.53833,449
826.656738,454
826.775208,459
826.893677,452
827.012024,455
827.130493,471
827.248962,471
827.36731,439
827.485779,452
827.604248,451
827.722595,441
827.841064,442
827.959412,437
828.077942,453
828.196289,457
828.314636,441
828.433105,449
828.551514,466
828.669861,436
828.78833,452
828.906677,420
829.025085,471
829.143433,453
829.261841,441
829.38031,438
829.498657,447
829.617004,446
829.735413,462
829.85376,447
829.972107,443
830.090515,456
830.208862,447
830.327209,440
830.445557,429
830.563904,461
830.682312,457
830.800659,437
830.919006,448
831.037354,437
831.155701,465
831.274048,471
831.392395,421
831.51062,426
831.629028,452
831.747314,454
831.865662,446
831.984009,443
832.102356,449
832.220642,442
832.338928,447
832.457275,434
832.575623,443
832.693909,449
832.812134,424
832.930481,439
833.048828,451
833.167114,439
833.2854,447
833.403687,449
833.521973,452
833.640259,424
833.758545,432
833.876831,434
833.995056,452
834.113281,430
834.231628,449
834.349915,444
834.468201,455
834.586426,443
834.704651,446
834.822998,473
834.941162,455
835.059448,435
835.177673,463
835.295959,452
835.414246,452
835.53241,452
835.650635,434
835.768921,453
835.887146,451
836.005371,447
836.123596,463
836.241821,424
836.360046,457
836.478271,441
836.596497,455
836.714722,430
836.832886,451
836.95105,455
837.069336,454
837.1875,430
837.305725,465
837.423889,440
837.542053,452
837.660339,419
837.778503,459
837.896667,440
838.014832,443
838.132996,441
838.25116,437
838.369385,452
838.487488,460
838.605713,436
838.723877,449
838.84198,467
838.960205,464
839.078308,448
839.196472,425
839.314636,439
839.4328,442
839.550964,442
839.669067,453
839.787231,441
839.905396,446
840.023499,442
840.141602,453
840.259766,442
840.377869,445
840.495972,442
840.614136,451
840.732239,441
840.850342,436
840.968445,461
841.086548,445
841.204651,443
841.322754,438
841.440918,430
841.55896,449
841.677002,429
841.795166,444
841.913208,454
842.031311,454
842.149353,442
842.267456,451
842.385498,442
842.503601,436
842.621643,429
842.739746,454
842.857788,452
842.97583,428
843.093933,437
843.211975,448
843.330017,444
843.44812,440
843.566101,446
843.684204,461
843.802246,445
843.920227,439
844.038269,437
844.156311,461
844.274292,446
844.392395,440
844.510376,460
844.628357,448
844.74646,464
844.864441,439
844.982422,455
845.100403,451
845.218384,458
845.336426,446
845.454468,431
845.572449,439
845.69043,448
845.808411,466
845.926453,436
846.044373,453
846.162354,478
846.280396,451
846.398315,447
846.516296,428
846.634216,432
846.752197,451
846.870178,449
846.988098,449
847.106079,458
847.22406,427
847.34198,460
847.4599,460
847.577881,432
847.695801,460
847.813782,448
847.931641,459
848.049561,429
848.167603,442
848.285461,441
848.403381,458
848.521362,430
848.639221,430
848.75708,434
848.875,456
848.99292,432
849.110901,441
849.22876,444
849.34668,459
849.464539,439
849.582458,440
849.700317,442
849.818176,441
849.936096,435
850.053955,448
850.171875,434
850.289673,454
850.407593,424
850.525452,436
850.643311,435
850.761169,451
850.878967,441
850.996887,440
851.114746,453
851.232544,433
851.350403,434
851.468262,467
851.58606,434
851.703979,444
851.821777,454
851.939636,448
852.057434,439
852.175232,422
852.293091,438
852.410889,450
852.528687,434
852.646545,452
852.764343,436
852.88208,447
852.999939,452
853.117676,438
853.235535,432
853.353271,448
853.471069,428
853.588928,462
853.706604,444
853.824402,441
853.9422,434
854.059998,434
854.177734,449
854.295532,438
854.413269,429
854.531006,433
854.648804,460
854.766541,462
854.884277,423
855.002014,440
855.119751,433
855.237549,447
855.355225,449
855.473022,436
855.590698,451
855.708435,454
855.826172,451
855.943848,455
856.061646,417
856.179321,438
856.296997,429
856.414795,432
856.53241,458
856.650085,437
856.767822,440
856.885559,455
857.003174,432
857.120911,450
857.238586,441
857.356201,474
857.473938,442
857.591614,443
857.709351,434
857.826965,436
857.944641,424
858.062317,430
858.179993,449
858.297668,442
858.415283,418
858.532959,430
858.650574,429
858.768188,446
858.885803,441
859.003479,445
859.121094,454
859.23877,428
859.356384,455
859.473999,458
859.591675,466
859.709229,453
859.826843,456
859.944458,440
860.062012,422
860.179626,447
860.297302,438
860.414856,438
860.532471,440
860.650024,451
860.767639,448
860.885193,450
861.002808,449
861.120361,438
861.237976,437
861.35553,453
861.473022,461
861.590698,447
861.708191,447
861.825745,458
861.943298,457
862.060852,463
862.178406,436
862.295959,426
862.413513,454
862.531006,453
862.64856,447
862.766113,466
862.883667,434
863.00116,453
863.118713,450
863.236206,460
863.353699,439
863.471252,444
863.588745,433
863.706177,442
863.82373,450
863.941162,438
864.058716,452
864.176208,442
864.29364,412
864.411194,446
864.528687,457
864.646118,452
864.763611,441
864.881042,446
864.998535,446
865.116028,451
865.233459,428
865.350891,439
865.468384,430
865.585754,453
865.703308,457
865.820679,435
865.938171,446
866.055542,446
866.173035,456
866.290466,447
866.407837,448
866.52533,443
866.6427,440
866.760071,436
866.877563,446
866.994934,451
867.112305,455
867.229736,449
867.347107,442
867.464539,436
867.58197,460
867.699341,437
867.81665,438
867.934082,440
868.051453,450
868.168823,491
868.286194,441
868.403564,455
868.520935,468
868.638306,430
868.755676,449
868.872986,436
868.990295,449
869.107727,452
869.225037,444
869.342346,446
869.459717,462
869.577026,449
869.694336,462
869.811707,447
869.929016,455
870.046326,465
870.163635,453
870.280945,465
870.398254,432
870.515564,454
870.632812,453
870.750183,442
870.867432,437
870.984741,446
871.102051,449
871.219299,464
871.336609,450
871.453918,447
871.571106,432
871.688416,447
871.805664,446
871.922852,444
872.040222,451
872.157471,457
872.274719,461
872.391968,449
872.509155,443
872.626465,472
872.743652,437
872.860962,435
872.978149,436
873.095337,462
873.212646,442
873.329834,434
873.44696,463
873.564209,451
873.681396,439
873.798645,443
873.915894,447
874.03302,456
874.150208,446
874.267456,443
874.384583,456
874.501831,439
874.618958,438
874.736145,447
874.853333,451
874.970459,435
875.087646,449
875.204834,448
875.32196,450
875.439148,441
875.556274,434
875.673401,453
875.790527,424
875.907715,459
876.024841,432
876.141968,443
876.259094,439
876.376282,462
876.493347,441
876.610474,439
876.7276,445
876.844727,455
876.961853,464
877.078918,457
877.195984,455
877.313171,454
877.430237,453
877.547302,457
877.664368,447
877.781433,460
877.898499,452
878.015625,438
878.13269,460
878.249695,445
878.366821,443
878.483887,461
878.600952,426
878.717957,459
878.834961,431
878.952087,466
879.069092,457
879.186157,461
879.303162,457
879.420227,452
879.537231,450
879.654236,447
879.77124,452
879.888306,452
880.005249,436
880.122314,460
880.239319,446
880.356323,457
880.473328,438
880.590271,452
880.707275,447
880.824341,453
880.941284,438
881.058228,449
881.175232,436
881.292236,455
881.40918,435
881.526123,466
881.643066,445
881.760071,463
881.877014,449
881.993958,444
882.11084,462
882.227783,426
882.344727,448
882.46167,449
882.578613,428
882.695618,431
882.812439,450
882.929382,442
883.046326,450
883.163208,452
883.280151,447
883.397034,449
883.513916,452
883.630798,447
883.747742,445
883.864563,453
883.981506,440
884.098389,465
884.21521,458
884.332153,442
884.448975,447
884.565796,455
884.682678,446
884.7995,447
884.916443,452
885.033264,455
885.150085,452
885.266968,442
885.383789,440
885.500671,463
885.617493,466
885.734314,449
885.851196,439
885.967896,460
886.084717,454
886.201599,465
886.318359,437
886.435181,451
886.552002,465
886.668762,455
886.785645,443
886.902344,442
887.019165,436
887.135925,449
887.252747,464
887.369446,449
887.486267,450
887.603027,439
887.719788,425
887.836548,454
887.953247,438
888.070068,446
888.186829,476
888.303528,471
888.420288,451
888.536987,447
888.653687,457
888.770447,456
888.887146,456
889.003967,443
889.120667,457
889.237305,465
889.354065,476
889.470703,473
889.587463,437
889.704163,473
889.820862,459
889.937561,460
890.054199,447
890.170837,463
890.287598,446
890.404236,453
890.520874,451
890.637634,451
890.754211,439
890.87085,462
890.987549,455
891.104187,447
891.220886,441
891.337463,458
891.454102,463
891.57074,462
891.687378,438
891.804077,460
891.920654,454
892.037231,450
892.15387,439
892.270447,469
892.387085,473
892.503723,444
892.6203,463
892.736877,457
892.853516,453
892.970032,467
893.08667,467
893.203186,456
893.319763,451
893.43634,454
893.552917,461
893.669556,469
893.786011,466
893.902588,454
894.019165,433
894.135681,458
894.252197,448
894.368835,448
894.485291,457
894.601868,473
894.718384,457
894.8349,461
894.951355,437
895.067932,473
895.184448,447
895.300964,466
895.417419,463
895.533936,460
895.650452,467
895.766907,454
895.883423,461
895.999878,442
896.116333,442
896.232849,460
896.349304,452
896.465759,444
896.582214,458
896.698669,456
896.815125,461
896.931641,475
897.048035,444
897.164551,452
897.280884,453
897.397339,437
897.513794,437
897.630249,478
897.746582,461
897.863098,464
897.979431,472
898.095886,455
898.212341,466
898.328674,473
898.445129,439
898.561462,461
898.677795,438
898.794312,466
898.910645,445
899.026978,468
899.143433,459
899.259766,456
899.37616,449
899.492493,493
899.608765,449
899.725159,454
899.841553,461
899.957947,450
900.07428,459
900.190552,462
900.306946,452
900.423157,460
900.53949,463
900.655884,468
900.772156,464
900.888489,449
901.004822,462
901.121033,448
901.237366,439
901.353699,480
901.46991,451
901.586304,460
901.702515,457
901.818787,470
901.93512,462
902.051331,456
902.167603,462
902.283875,468
902.400085,455
902.516418,453
902.632629,441
902.74884,468
902.865112,450
902.981384,463
903.097595,460
903.213867,464
903.330017,451
903.446289,449
903.5625,470
903.67865,456
903.794922,472
903.911072,471
904.027344,460
904.143494,473
904.259705,449
904.375916,452
904.492065,468
904.608215,461
904.724426,467
904.840576,462
904.956726,467
905.072876,449
905.189087,460
905.305176,494
905.421387,454
905.537537,451
905.653687,481
905.769775,484
905.885925,459
906.002014,459
906.118164,446
906.234314,467
906.350403,451
906.466492,448
906.582642,481
906.69873,467
906.814758,453
906.930908,478
907.046936,468
907.163086,470
907.279175,448
907.395264,465
907.511353,462
907.62738,475
907.743408,459
907.859497,468
907.975525,470
908.091553,464
908.207703,463
908.32373,457
908.439758,460
908.555786,470
908.671814,453
908.787842,468
908.90387,444
909.019775,456
909.135864,465
909.251892,446
909.367859,446
909.483826,451
909.599854,461
909.715881,464
909.831848,446
909.947815,465
910.063782,436
910.179749,469
910.295776,460
910.411743,462
910.527649,471
910.643616,453
910.759583,467
910.875488,455
910.991455,449
911.107361,459
911.223267,470
911.339294,461
911.4552,455
911.571106,477
911.687073,459
911.802979,462
911.918823,461
912.034729,447
912.150635,445
912.266602,487
912.382446,468
912.498352,468
912.614197,446
912.730103,467
912.846008,471
792.44574,499
792.56488,531
792.68396,589
792.80304,558
792.92218,530
793.041199,480
793.160339,507
793.279419,509
793.398499,510
793.517578,504
793.636658,457
793.755737,500
793.874817,530
793.993896,501
794.112976,512
794.232056,498
794.351074,470
794.470215,499
794.589233,493
794.708313,476
794.827393,504
794.946411,494
795.065552,502
795.18457,477
795.303589,483
795.422668,490
795.541687,494
795.660767,494
795.779846,493
795.898865,492
796.017883,496
796.136963,472
796.255981,493
796.375061,495
796.49408,491
796.613037,490
796.732117,484
796.851135,474
796.970154,490
797.089233,476
797.208191,493
797.327271,493
797.446228,501
797.565186,469
797.684265,467
797.803223,487
797.922241,480
798.04126,470
798.160278,488
798.279297,495
798.398315,478
798.517273,486
798.636292,478
798.75531,486
798.874268,493
798.993286,490
799.112244,481
799.231323,477
799.350281,473
799.469238,477
799.588257,482
799.707153,502
799.826111,481
799.945129,481
800.064087,473
800.183044,481
800.302063,486
800.421021,483
800.539978,494
800.658936,495
800.777893,466
800.896912,496
801.015747,494
801.134705,494
801.253723,485
801.37262,488
801.491638,484
801.610535,497
801.729492,472
801.84845,469
801.967407,482
802.086243,463
802.205261,496
802.324158,463
802.443115,475
802.562073,472
802.680969,496
802.799927,459
802.918762,488
803.037659,467
803.156677,486
803.275574,464
803.39447,493
803.513428,484
803.632263,499
803.751221,471
803.870117,465
803.989014,474
804.107971,479
804.226746,496
804.345642,464
804.4646,456
804.583496,487
804.702393,476
804.821228,474
804.940125,470
805.059021,494
805.177917,501
805.296814,473
805.415649,508
805.534546,487
805.653442,478
805.772278,481
805.891113,466
806.01001,478
806.128906,471
806.247742,479
806.366577,469
806.485413,485
806.604309,491
806.723145,488
806.84198,464
806.960876,504
807.079712,456
807.198486,480
807.317383,479
807.436218,472
807.554993,471
807.673889,500
807.792725,474
807.91156,468
808.030396,492
808.14917,486
808.268005,484
808.386841,470
808.505676,487
808.624451,481
808.743286,483
808.862122,470
808.980896,456
809.099731,465
809.218506,494
809.337341,475
809.456116,451
809.57489,471
809.693726,461
809.8125,484
809.931274,473
810.050049,483
810.168884,469
810.287659,460
810.406372,482
810.525269,480
810.643982,494
810.762756,480
810.881531,462
811.000305,475
811.11908,487
811.237854,480
811.356567,474
811.475403,484
811.594116,467
811.71283,477
811.831604,481
811.950378,481
812.069153,468
812.187927,488
812.30658,471
812.425415,467
812.544128,488
812.662781,477
812.781616,479
812.900269,475
813.019043,463
813.137756,505
813.256531,462
813.375244,471
813.493896,476
813.612671,479
813.731384,475
813.850037,499
813.96875,467
814.087524,484
814.206238,481
814.324951,481
814.443604,461
814.562256,466
814.68103,470
814.799683,480
814.918335,454
815.037109,477
815.155762,466
815.274475,474
815.393188,470
815.511841,491
815.630554,462
815.749146,473
815.867859,459
815.986572,483
816.105164,490
816.223877,453
816.342529,465
816.461182,473
816.579895,486
816.698486,461
816.817139,488
816.935791,492
817.054504,477
817.173096,459
817.291748,466
817.4104,493
817.529053,460
817.647644,469
817.766235,470
817.884949,448
818.00354,473
818.122192,480
818.240845,462
818.359436,476
818.478088,465
818.59668,458
818.715271,483
818.833923,473
818.952515,472
819.071106,468
819.189758,477
819.30835,461
819.426941,465
819.545532,468
819.664124,459
819.782715,454
819.901306,471
820.019897,455
820.138489,465
820.25708,455
820.375671,464
820.494202,448
820.612732,452
820.731384,474
820.849915,455
820.968506,480
821.087097,465
821.205627,463
821.324158,463
821.442749,465
821.561279,449
821.679871,442
821.798401,467
821.916931,453
822.035461,445
822.154053,471
822.272583,444
822.391174,466
822.509583,447
822.628174,466
822.746704,441
822.865234,450
822.983765,479
823.102295,446
823.220825,444
823.339294,453
823.457825,442
823.576355,470
823.694824,465
823.813354,451
823.931885,442
824.050354,463
824.168884,449
824.287354,471
824.405823,447
824.524353,452
824.642822,460
824.761353,470
824.879822,464
824.998291,452
825.116699,455
825.235291,460
825.353699,453
825.472168,456
825.590637,452
825.709106,448
825.827576,451
825.946045,460
826.064453,448
826.182983,449
826.301392,468
826.4198,477
826.53833,457
826.656738,454
826.775208,450
826.893677,465
827.012024,443
827.130493,450
827.248962,450
827.36731,454
827.485779,465
827.604248,425
827.722595,454
827.841064,442
827.959412,466
828.077942,451
828.196289,454
828.314636,446
828.433105,472
828.551514,443
828.669861,454
828.78833,448
828.906677,443
829.025085,444
829.143433,427
829.261841,458
829.38031,478
829.498657,441
829.617004,454
829.735413,469
829.85376,446
829.972107,472
830.090515,435
830.208862,441
830.327209,440
830.445557,456
830.563904,448
830.682312,444
830.800659,449
830.919006,461
831.037354,433
831.155701,471
831.274048,450
831.392395,451
831.51062,450
831.629028,467
831.747314,457
831.865662,444
831.984009,453
832.102356,452
832.220642,445
832.338928,468
832.457275,442
832.575623,442
832.693909,448
832.812134,437
832.930481,453
833.048828,450
833.167114,450
833.2854,445
833.403687,445
833.521973,466
833.640259,439
833.758545,426
833.876831,436
833.995056,452
834.113281,452
834.231628,458
834.349915,429
834.468201,469
834.586426,445
834.704651,466
834.822998,442
834.941162,467
835.059448,449
835.177673,439
835.295959,471
835.414246,445
835.53241,460
835.650635,447
835.768921,436
835.887146,463
836.005371,442
836.123596,448
836.241821,449
836.360046,450
836.478271,437
836.596497,445
836.714722,449
836.832886,452
836.95105,443
837.069336,435
837.1875,444
837.305725,429
837.423889,431
837.542053,459
837.660339,455
837.778503,452
837.896667,437
838.014832,454
838.132996,454
838.25116,446
838.369385,429
838.487488,454
838.605713,463
838.723877,446
838.84198,429
838.960205,448
839.078308,459
839.196472,443
839.314636,458
839.4328,431
839.550964,454
839.669067,457
839.787231,443
839.905396,443
840.023499,456
840.141602,475
840.259766,444
840.377869,465
840.495972,458
840.614136,458
840.732239,455
840.850342,454
840.968445,449
841.086548,443
841.204651,457
841.322754,449
841.440918,449
841.55896,432
841.677002,451
841.795166,458
841.913208,456
842.031311,461
842.149353,452
842.267456,446
842.385498,459
842.503601,453
842.621643,427
842.739746,433
842.857788,440
842.97583,444
843.093933,450
843.211975,437
843.330017,458
843.44812,457
843.566101,445
843.684204,453
843.802246,452
843.920227,454
844.038269,441
844.156311,469
844.274292,439
844.392395,452
844.510376,448
844.628357,444
844.74646,446
844.864441,442
844.982422,436
845.100403,446
845.218384,449
845.336426,455
845.454468,436
845.572449,450
845.69043,441
845.808411,443
845.926453,419
846.044373,447
846.162354,439
846.280396,433
846.398315,442
846.516296,449
846.634216,448
846.752197,430
846.870178,447
846.988098,435
847.106079,449
847.22406,457
847.34198,437
847.4599,450
847.577881,438
847.695801,445
847.813782,453
847.931641,448
848.049561,459
848.167603,430
848.285461,474
848.403381,457
848.521362,433
848.639221,442
848.75708,438
848.875,458
848.99292,428
849.110901,438
849.22876,435
849.34668,439
849.464539,446
849.582458,446
849.700317,444
849.818176,447
849.936096,430
850.053955,466
850.171875,435
850.289673,446
850.407593,459
850.525452,451
850.643311,451
850.761169,454
850.878967,437
850.996887,454
851.114746,434
851.232544,455
851.350403,428
851.468262,438
851.58606,457
851.703979,460
851.821777,453
851.939636,457
852.057434,458
852.175232,440
852.293091,452
852.410889,450
852.528687,445
852.646545,433
852.764343,449
852.88208,475
852.999939,464
853.117676,463
853.235535,433
853.353271,448
853.471069,438
853.588928,443
853.706604,445
853.824402,442
853.9422,450
854.059998,444
854.177734,431
854.295532,457
854.413269,434
854.531006,430
854.648804,441
854.766541,436
854.884277,446
855.002014,437
855.119751,434
855.237549,427
855.355225,438
855.473022,452
855.590698,453
855.708435,451
855.826172,437
855.943848,454
856.061646,423
856.179321,455
856.296997,428
856.414795,456
856.53241,446
856.650085,455
856.767822,456
856.885559,444
857.003174,452
857.120911,440
857.238586,451
857.356201,446
857.473938,450
857.591614,449
857.709351,451
857.826965,442
857.944641,442
858.062317,463
858.179993,430
858.297668,452
858.415283,448
858.532959,454
858.650574,455
858.768188,456
858.885803,442
859.003479,463
859.121094,448
859.23877,457
859.356384,449
859.473999,448
859.591675,435
859.709229,453
859.826843,443
859.944458,456
860.062012,459
860.179626,444
860.297302,443
860.414856,445
860.532471,453
860.650024,429
860.767639,453
860.885193,447
861.002808,442
861.120361,449
861.237976,437
861.35553,455
861.473022,440
861.590698,440
861.708191,433
861.825745,453
861.943298,437
862.060852,434
862.178406,431
862.295959,457
862.413513,444
862.531006,455
862.64856,434
862.766113,469
862.883667,444
863.00116,478
863.118713,449
863.236206,457
863.353699,423
863.471252,443
863.588745,448
863.706177,448
863.82373,439
863.941162,450
864.058716,430
864.176208,464
864.29364,452
864.411194,466
864.528687,431
864.646118,440
864.763611,461
864.881042,464
864.998535,436
865.116028,462
865.233459,449
865.350891,452
865.468384,444
865.585754,461
865.703308,465
865.820679,434
865.938171,455
866.055542,445
866.173035,460
866.290466,441
866.407837,426
866.52533,470
866.6427,447
866.760071,456
866.877563,448
866.994934,454
867.112305,445
867.229736,454
867.347107,444
867.464539,467
867.58197,453
867.699341,451
867.81665,439
867.934082,444
868.051453,450
868.168823,446
868.286194,435
868.403564,464
868.520935,444
868.638306,458
868.755676,447
868.872986,456
868.990295,451
869.107727,465
869.225037,454
869.342346,457
869.459717,449
869.577026,447
869.694336,463
869.811707,450
869.929016,446
870.046326,442
870.163635,462
870.280945,444
870.398254,441
870.515564,460
870.632812,472
870.750183,459
870.867432,443
870.984741,447
871.102051,450
871.219299,455
871.336609,449
871.453918,467
871.571106,452
871.688416,443
871.805664,455
871.922852,466
872.040222,443
872.157471,443
872.274719,437
872.391968,455
872.509155,458
872.626465,426
872.743652,453
872.860962,474
872.978149,442
873.095337,426
873.212646,435
873.329834,449
873.44696,436
873.564209,448
873.681396,443
873.798645,457
873.915894,457
874.03302,452
874.150208,442
874.267456,463
874.384583,467
874.501831,453
874.618958,448
874.736145,479
874.853333,445
874.970459,463
875.087646,431
875.204834,441
875.32196,465
875.439148,469
875.556274,443
875.673401,438
875.790527,453
875.907715,466
876.024841,458
876.141968,464
876.259094,458
876.376282,455
876.493347,466
876.610474,456
876.7276,437
876.844727,457
876.961853,455
877.078918,462
877.195984,458
877.313171,441
877.430237,463
877.547302,452
877.664368,452
877.781433,473
877.898499,451
878.015625,433
878.13269,446
878.249695,452
878.366821,459
878.483887,429
878.600952,430
878.717957,449
878.834961,450
878.952087,442
879.069092,460
879.186157,435
879.303162,452
879.420227,466
879.537231,450
879.654236,441
879.77124,453
879.888306,463
880.005249,451
880.122314,455
880.239319,461
880.356323,464
880.473328,467
880.590271,458
880.707275,451
880.824341,443
880.941284,460
881.058228,466
881.175232,455
881.292236,456
881.40918,426
881.526123,466
881.643066,453
881.760071,458
881.877014,455
881.993958,447
882.11084,446
882.227783,470
882.344727,443
882.46167,479
882.578613,447
882.695618,445
882.812439,461
882.929382,459
883.046326,457
883.163208,457
883.280151,440
883.397034,455
883.513916,435
883.630798,462
883.747742,445
883.864563,446
883.981506,445
884.098389,464
884.21521,457
884.332153,458
884.448975,454
884.565796,449
884.682678,454
884.7995,458
884.916443,454
885.033264,460
885.150085,471
885.266968,477
885.383789,447
885.500671,453
885.617493,448
885.734314,481
885.851196,448
885.967896,477
886.084717,459
886.201599,457
886.318359,449
886.435181,459
886.552002,450
886.668762,475
886.785645,449
886.902344,461
887.019165,455
887.135925,462
887.252747,455
887.369446,456
887.486267,455
887.603027,459
887.719788,453
887.836548,469
887.953247,457
888.070068,460
888.186829,436
888.303528,440
888.420288,444
888.536987,462
888.653687,442
888.770447,452
888.887146,446
889.003967,451
889.120667,443
889.237305,476
889.354065,454
889.470703,462
889.587463,459
889.704163,469
889.820862,458
889.937561,453
890.054199,450
890.170837,447
890.287598,450
890.404236,460
890.520874,464
890.637634,445
890.754211,450
890.87085,446
890.987549,459
891.104187,464
891.220886,456
891.337463,454
891.454102,447
891.57074,451
891.687378,461
891.804077,471
891.920654,456
892.037231,468
892.15387,448
892.270447,440
892.387085,455
892.503723,456
892.6203,459
892.736877,454
892.853516,454
892.970032,466
893.08667,442
893.203186,469
893.319763,447
893.43634,444
893.552917,470
893.669556,463
893.786011,452
893.902588,443
894.019165,452
894.135681,477
894.252197,465
894.368835,453
894.485291,434
894.601868,452
894.718384,437
894.8349,451
894.951355,454
895.067932,460
895.184448,451
895.300964,478
895.417419,449
895.533936,479
895.650452,453
895.766907,464
895.883423,459
895.999878,454
896.116333,455
896.232849,457
896.349304,456
896.465759,456
896.582214,447
896.698669,470
896.815125,454
896.931641,462
897.048035,454
897.164551,429
897.280884,470
897.397339,457
897.513794,451
897.630249,461
897.746582,471
897.863098,460
897.979431,462
898.095886,448
898.212341,448
898.328674,466
898.445129,445
898.561462,456
898.677795,455
898.794312,467
898.910645,462
899.026978,478
899.143433,474
899.259766,460
899.37616,451
899.492493,442
899.608765,451
899.725159,458
899.841553,450
899.957947,469
900.07428,449
900.190552,471
900.306946,454
900.423157,477
900.53949,483
900.655884,476
900.772156,457
900.888489,479
901.004822,459
901.121033,477
901.237366,449
901.353699,457
901.46991,444
901.586304,464
901.702515,461
901.818787,424
901.93512,461
902.051331,466
902.167603,458
902.283875,461
902.400085,450
902.516418,481
902.632629,457
902.74884,471
902.865112,447
902.981384,460
903.097595,454
903.213867,465
903.330017,470
903.446289,462
903.5625,457
903.67865,472
903.794922,445
903.911072,470
904.027344,442
904.143494,448
904.259705,468
904.375916,481
904.492065,457
904.608215,458
904.724426,433
904.840576,472
904.956726,471
905.072876,464
905.189087,453
905.305176,436
905.421387,455
905.537537,477
905.653687,457
905.769775,452
905.885925,460
906.002014,462
906.118164,466
906.234314,471
906.350403,466
906.466492,469
906.582642,459
906.69873,470
906.814758,457
906.930908,450
907.046936,453
907.163086,473
907.279175,466
907.395264,483
907.511353,476
907.62738,479
907.743408,456
907.859497,467
907.975525,475
908.091553,470
908.207703,454
908.32373,467
908.439758,461
908.555786,458
908.671814,468
908.787842,464
908.90387,464
909.019775,455
909.135864,457
909.251892,463
909.367859,475
909.483826,469
909.599854,462
909.715881,469
909.831848,481
909.947815,451
910.063782,463
910.179749,480
910.295776,451
910.411743,485
910.527649,462
910.643616,467
910.759583,459
910.875488,484
910.991455,458
911.107361,467
911.223267,452
911.339294,451
911.4552,446
911.571106,450
911.687073,470
911.802979,457
911.918823,469
912.034729,443
912.150635,459
912.266602,470
912.382446,446
912.498352,466
912.614197,461
912.730103,473
912.846008,460
