792.44574,473
792.56488,515
792.68396,553
792.80304,530
792.92218,484
793.041199,477
793.160339,474
793.279419,470
793.398499,503
793.517578,470
793.636658,482
793.755737,492
793.874817,508
793.993896,499
794.112976,481
794.232056,481
794.351074,486
794.470215,470
794.589233,484
794.708313,466
794.827393,482
794.946411,477
795.065552,488
795.18457,476
795.303589,489
795.422668,484
795.541687,488
795.660767,499
795.779846,476
795.898865,473
796.017883,496
796.136963,474
796.255981,500
796.375061,468
796.49408,499
796.613037,507
796.732117,469
796.851135,471
796.970154,488
797.089233,474
797.208191,479
797.327271,475
797.446228,477
797.565186,483
797.684265,497
797.803223,494
797.922241,483
798.04126,461
798.160278,477
798.279297,468
798.398315,478
798.517273,491
798.636292,470
798.75531,484
798.874268,483
798.993286,472
799.112244,472
799.231323,476
799.350281,477
799.469238,484
799.588257,500
799.707153,485
799.826111,482
799.945129,494
800.064087,477
800.183044,462
800.302063,484
800.421021,480
800.539978,468
800.658936,482
800.777893,470
800.896912,465
801.015747,466
801.134705,481
801.253723,493
801.37262,482
801.491638,482
801.610535,461
801.729492,468
801.84845,471
801.967407,479
802.086243,481
802.205261,485
802.324158,483
802.443115,460
802.562073,475
802.680969,467
802.799927,471
802.918762,466
803.037659,470
803.156677,476
803.275574,479
803.39447,460
803.513428,490
803.632263,472
803.751221,485
803.870117,484
803.989014,472
804.107971,475
804.226746,455
804.345642,498
804.4646,464
804.583496,481
804.702393,469
804.821228,491
804.940125,481
805.059021,488
805.177917,447
805.296814,473
805.415649,479
805.534546,460
805.653442,483
805.772278,491
805.891113,445
806.01001,472
806.128906,479
806.247742,475
806.366577,475
806.485413,465
806.604309,458
806.723145,489
806.84198,469
806.960876,461
807.079712,471
807.198486,495
807.317383,480
807.436218,481
807.554993,479
807.673889,464
807.792725,480
807.91156,484
808.030396,483
808.14917,465
808.268005,486
808.386841,478
808.505676,466
808.624451,503
808.743286,474
808.862122,470
808.980896,459
809.099731,487
809.218506,468
809.337341,475
809.456116,482
809.57489,476
809.693726,477
809.8125,483
809.931274,466
810.050049,471
810.168884,474
810.287659,471
810.406372,464
810.525269,464
810.643982,463
810.762756,485
810.881531,482
811.000305,478
811.11908,469
811.237854,470
811.356567,471
811.475403,488
811.594116,457
811.71283,481
811.831604,477
811.950378,476
812.069153,488
812.187927,483
812.30658,468
812.425415,463
812.544128,492
812.662781,458
812.781616,467
812.900269,476
813.019043,478
813.137756,472
813.256531,467
813.375244,468
813.493896,460
813.612671,479
813.731384,480
813.850037,475
813.96875,466
814.087524,484
814.206238,484
814.324951,457
814.443604,465
814.562256,472
814.68103,473
814.799683,479
814.918335,495
815.037109,455
815.155762,465
815.274475,460
815.393188,488
815.511841,473
815.630554,487
815.749146,487
815.867859,458
815.986572,461
816.105164,458
816.223877,461
816.342529,472
816.461182,467
816.579895,472
816.698486,479
816.817139,471
816.935791,470
817.054504,458
817.173096,481
817.291748,458
817.4104,458
817.529053,456
817.647644,453
817.766235,461
817.884949,451
818.00354,462
818.122192,478
818.240845,456
818.359436,450
818.478088,438
818.59668,459
818.715271,458
818.833923,471
818.952515,439
819.071106,464
819.189758,444
819.30835,459
819.426941,455
819.545532,463
819.664124,449
819.782715,456
819.901306,449
820.019897,448
820.138489,463
820.25708,462
820.375671,449
820.494202,452
820.612732,446
820.731384,468
820.849915,463
820.968506,492
821.087097,458
821.205627,487
821.324158,455
821.442749,470
821.561279,470
821.679871,478
821.798401,448
821.916931,467
822.035461,459
822.154053,469
822.272583,442
822.391174,447
822.509583,453
822.628174,465
822.746704,455
822.865234,457
822.983765,451
823.102295,468
823.220825,463
823.339294,474
823.457825,449
823.576355,470
823.694824,426
823.813354,449
823.931885,445
824.050354,445
824.168884,452
824.287354,464
824.405823,443
824.524353,436
824.642822,452
824.761353,456
824.879822,447
824.998291,447
825.116699,447
825.235291,448
825.353699,447
825.472168,458
825.590637,422
825.709106,458
825.827576,454
825.946045,443
826.064453,461
826.182983,446
826.301392,444
826.4198,446
826.53833,456
826.656738,446
826.775208,431
826.893677,468
827.012024,446
827.130493,450
827.248962,441
827.36731,466
827.485779,456
827.604248,455
827.722595,427
827.841064,448
827.959412,437
828.077942,443
828.196289,446
828.314636,442
828.433105,441
828.551514,455
828.669861,442
828.78833,437
828.906677,446
829.025085,461
829.143433,450
829.261841,459
829.38031,440
829.498657,438
829.617004,440
829.735413,452
829.85376,452
829.972107,452
830.090515,432
830.208862,436
830.327209,464
830.445557,447
830.563904,459
830.682312,463
830.800659,428
830.919006,447
831.037354,439
831.155701,443
831.274048,425
831.392395,451
831.51062,445
831.629028,453
831.747314,454
831.865662,462
831.984009,438
832.102356,444
832.220642,439
832.338928,454
832.457275,439
832.575623,464
832.693909,437
832.812134,440
832.930481,437
833.048828,435
833.167114,441
833.2854,426
833.403687,442
833.521973,443
833.640259,440
833.758545,433
833.876831,437
833.995056,468
834.113281,438
834.231628,443
834.349915,432
834.468201,463
834.586426,438
834.704651,445
834.822998,438
834.941162,464
835.059448,436
835.177673,438
835.295959,441
835.414246,440
835.53241,434
835.650635,453
835.768921,450
835.887146,450
836.005371,452
836.123596,454
836.241821,440
836.360046,441
836.478271,454
836.596497,437
836.714722,442
836.832886,441
836.95105,443
837.069336,442
837.1875,461
837.305725,437
837.423889,441
837.542053,450
837.660339,425
837.778503,449
837.896667,445
838.014832,446
838.132996,442
838.25116,458
838.369385,434
838.487488,445
838.605713,435
838.723877,442
838.84198,431
838.960205,446
839.078308,429
839.196472,426
839.314636,443
839.4328,440
839.550964,451
839.669067,459
839.787231,438
839.905396,428
840.023499,452
840.141602,444
840.259766,461
840.377869,444
840.495972,450
840.614136,424
840.732239,429
840.850342,448
840.968445,445
841.086548,429
841.204651,448
841.322754,440
841.440918,444
841.55896,452
841.677002,440
841.795166,448
841.913208,448
842.031311,445
842.149353,451
842.267456,455
842.385498,434
842.503601,444
842.621643,450
842.739746,445
842.857788,427
842.97583,468
843.093933,450
843.211975,437
843.330017,436
843.44812,434
843.566101,431
843.684204,432
843.802246,449
843.920227,442
844.038269,446
844.156311,452
844.274292,434
844.392395,449
844.510376,432
844.628357,451
844.74646,445
844.864441,452
844.982422,428
845.100403,434
845.218384,443
845.336426,426
845.454468,437
845.572449,437
845.69043,425
845.808411,446
845.926453,434
846.044373,446
846.162354,454
846.280396,454
846.398315,453
846.516296,435
846.634216,439
846.752197,459
846.870178,441
846.988098,437
847.106079,437
847.22406,459
847.34198,445
847.4599,433
847.577881,440
847.695801,433
847.813782,441
847.931641,452
848.049561,437
848.167603,440
848.285461,423
848.403381,453
848.521362,434
848.639221,452
848.75708,434
848.875,445
848.99292,441
849.110901,435
849.22876,449
849.34668,449
849.464539,445
849.582458,435
849.700317,443
849.818176,442
849.936096,443
850.053955,445
850.171875,432
850.289673,447
850.407593,433
850.525452,453
850.643311,434
850.761169,419
850.878967,432
850.996887,438
851.114746,439
851.232544,463
851.350403,440
851.468262,447
851.58606,440
851.703979,449
851.821777,441
851.939636,436
852.057434,446
852.175232,457
852.293091,442
852.410889,447
852.528687,452
852.646545,456
852.764343,437
852.88208,444
852.999939,460
853.117676,448
853.235535,426
853.353271,453
853.471069,448
853.588928,453
853.706604,446
853.824402,442
853.9422,428
854.059998,453
854.177734,444
854.295532,428
854.413269,445
854.531006,455
854.648804,448
854.766541,476
854.884277,451
855.002014,440
855.119751,439
855.237549,437
855.355225,445
855.473022,435
855.590698,456
855.708435,451
855.826172,446
855.943848,453
856.061646,435
856.179321,430
856.296997,447
856.414795,451
856.53241,446
856.650085,430
856.767822,437
856.885559,438
857.003174,458
857.120911,443
857.238586,438
857.356201,458
857.473938,432
857.591614,462
857.709351,437
857.826965,440
857.944641,432
858.062317,445
858.179993,450
858.297668,452
858.415283,431
858.532959,448
858.650574,432
858.768188,448
858.885803,460
859.003479,453
859.121094,450
859.23877,455
859.356384,437
859.473999,445
859.591675,443
859.709229,445
859.826843,431
859.944458,468
860.062012,454
860.179626,441
860.297302,433
860.414856,434
860.532471,453
860.650024,458
860.767639,435
860.885193,452
861.002808,448
861.120361,459
861.237976,438
861.35553,429
861.473022,448
861.590698,459
861.708191,439
861.825745,440
861.943298,435
862.060852,458
862.178406,458
862.295959,451
862.413513,451
862.531006,444
862.64856,447
862.766113,440
862.883667,459
863.00116,458
863.118713,444
863.236206,447
863.353699,439
863.471252,465
863.588745,434
863.706177,436
863.82373,434
863.941162,420
864.058716,449
864.176208,446
864.29364,427
864.411194,465
864.528687,452
864.646118,450
864.763611,443
864.881042,450
864.998535,441
865.116028,416
865.233459,444
865.350891,441
865.468384,423
865.585754,449
865.703308,443
865.820679,462
865.938171,441
866.055542,447
866.173035,443
866.290466,446
866.407837,443
866.52533,451
866.6427,436
866.760071,454
866.877563,451
866.994934,457
867.112305,464
867.229736,438
867.347107,443
867.464539,428
867.58197,437
867.699341,442
867.81665,438
867.934082,450
868.051453,445
868.168823,453
868.286194,453
868.403564,450
868.520935,439
868.638306,448
868.755676,451
868.872986,458
868.990295,449
869.107727,451
869.225037,445
869.342346,451
869.459717,441
869.577026,457
869.694336,438
869.811707,444
869.929016,456
870.046326,459
870.163635,429
870.280945,449
870.398254,432
870.515564,473
870.632812,451
870.750183,457
870.867432,452
870.984741,448
871.102051,433
871.219299,456
871.336609,444
871.453918,455
871.571106,415
871.688416,468
871.805664,434
871.922852,445
872.040222,446
872.157471,452
872.274719,455
872.391968,460
872.509155,462
872.626465,451
872.743652,457
872.860962,445
872.978149,440
873.095337,446
873.212646,450
873.329834,449
873.44696,444
873.564209,448
873.681396,457
873.798645,470
873.915894,451
874.03302,455
874.150208,440
874.267456,451
874.384583,444
874.501831,465
874.618958,440
874.736145,450
874.853333,438
874.970459,457
875.087646,451
875.204834,466
875.32196,441
875.439148,446
875.556274,453
875.673401,447
875.790527,449
875.907715,465
876.024841,439
876.141968,439
876.259094,439
876.376282,465
876.493347,454
876.610474,443
876.7276,430
876.844727,453
876.961853,440
877.078918,436
877.195984,437
877.313171,451
877.430237,435
877.547302,469
877.664368,448
877.781433,431
877.898499,447
878.015625,455
878.13269,451
878.249695,458
878.366821,442
878.483887,453
878.600952,436
878.717957,438
878.834961,443
878.952087,461
879.069092,453
879.186157,461
879.303162,434
879.420227,449
879.537231,434
879.654236,439
879.77124,452
879.888306,443
880.005249,440
880.122314,452
880.239319,450
880.356323,456
880.473328,447
880.590271,451
880.707275,438
880.824341,463
880.941284,456
881.058228,460
881.175232,442
881.292236,458
881.40918,433
881.526123,468
881.643066,440
881.760071,451
881.877014,458
881.993958,458
882.11084,452
882.227783,471
882.344727,435
882.46167,435
882.578613,464
882.695618,465
882.812439,454
882.929382,453
883.046326,438
883.163208,449
883.280151,446
883.397034,455
883.513916,436
883.630798,439
883.747742,449
883.864563,440
883.981506,470
884.098389,456
884.21521,426
884.332153,437
884.448975,443
884.565796,449
884.682678,454
884.7995,450
884.916443,450
885.033264,466
885.150085,442
885.266968,451
885.383789,452
885.500671,436
885.617493,455
885.734314,452
885.851196,459
885.967896,457
886.084717,453
886.201599,448
886.318359,457
886.435181,449
886.552002,446
886.668762,461
886.785645,455
886.902344,451
887.019165,451
887.135925,467
887.252747,471
887.369446,446
887.486267,457
887.603027,458
887.719788,452
887.836548,463
887.953247,464
888.070068,451
888.186829,467
888.303528,469
888.420288,450
888.536987,446
888.653687,447
888.770447,461
888.887146,446
889.003967,456
889.120667,472
889.237305,470
889.354065,467
889.470703,467
889.587463,426
889.704163,469
889.820862,459
889.937561,469
890.054199,455
890.170837,461
890.287598,455
890.404236,473
890.520874,446
890.637634,477
890.754211,448
890.87085,437
890.987549,451
891.104187,467
891.220886,447
891.337463,450
891.454102,450
891.57074,455
891.687378,443
891.804077,466
891.920654,457
892.037231,471
892.15387,468
892.270447,450
892.387085,456
892.503723,477
892.6203,458
892.736877,470
892.853516,458
892.970032,453
893.08667,468
893.203186,469
893.319763,463
893.43634,473
893.552917,485
893.669556,456
893.786011,458
893.902588,446
894.019165,444
894.135681,455
894.252197,438
894.368835,462
894.485291,450
894.601868,456
894.718384,457
894.8349,455
894.951355,450
895.067932,451
895.184448,434
895.300964,469
895.417419,472
895.533936,466
895.650452,464
895.766907,480
895.883423,459
895.999878,472
896.116333,450
896.232849,452
896.349304,453
896.465759,466
896.582214,457
896.698669,463
896.815125,465
896.931641,452
897.048035,465
897.164551,479
897.280884,454
897.397339,475
897.513794,440
897.630249,474
897.746582,451
897.863098,466
897.979431,462
898.095886,472
898.212341,458
898.328674,459
898.445129,464
898.561462,464
898.677795,458
898.794312,456
898.910645,473
899.026978,454
899.143433,446
899.259766,466
899.37616,475
899.492493,463
899.608765,453
899.725159,469
899.841553,466
899.957947,471
900.07428,443
900.190552,483
900.306946,477
900.423157,463
900.53949,452
900.655884,460
900.772156,461
900.888489,460
901.004822,463
901.121033,464
901.237366,441
901.353699,454
901.46991,463
901.586304,467
901.702515,453
901.818787,465
901.93512,436
902.051331,468
902.167603,459
902.283875,466
902.400085,473
902.516418,450
902.632629,469
902.74884,467
902.865112,481
902.981384,481
903.097595,446
903.213867,459
903.330017,486
903.446289,482
903.5625,460
903.67865,465
903.794922,470
903.911072,483
904.027344,455
904.143494,463
904.259705,468
904.375916,469
904.492065,461
904.608215,457
904.724426,469
904.840576,453
904.956726,470
905.072876,450
905.189087,455
905.305176,458
905.421387,452
905.537537,475
905.653687,459
905.769775,456
905.885925,451
906.002014,476
906.118164,478
906.234314,462
906.350403,460
906.466492,468
906.582642,485
906.69873,470
906.814758,478
906.930908,461
907.046936,440
907.163086,466
907.279175,474
907.395264,475
907.511353,477
907.62738,456
907.743408,462
907.859497,456
907.975525,463
908.091553,459
908.207703,459
908.32373,450
908.439758,464
908.555786,491
908.671814,462
908.787842,469
908.90387,466
909.019775,456
909.135864,459
909.251892,473
909.367859,452
909.483826,486
909.599854,461
909.715881,459
909.831848,454
909.947815,481
910.063782,480
910.179749,470
910.295776,472
910.411743,476
910.527649,443
910.643616,459
910.759583,471
910.875488,468
910.991455,445
911.107361,474
911.223267,466
911.339294,490
911.4552,481
911.571106,472
911.687073,452
911.802979,481
911.918823,474
912.034729,464
912.150635,457
912.266602,469
912.382446,464
912.498352,462
912.614197,458
912.730103,454
912.846008,472
792.44574,496
792.56488,518
792.68396,564
792.80304,551
792.92218,506
793.041199,484
793.160339,476
793.279419,504
793.398499,478
793.517578,478
793.636658,504
793.755737,519
793.874817,501
793.993896,507
794.112976,475
794.232056,482
794.351074,492
794.470215,476
794.589233,472
794.708313,496
794.827393,486
794.946411,494
795.065552,501
795.18457,474
795.303589,494
795.422668,478
795.541687,501
795.660767,482
795.779846,476
795.898865,479
796.017883,484
796.136963,477
796.255981,497
796.375061,499
796.49408,473
796.613037,505
796.732117,482
796.851135,479
796.970154,479
797.089233,473
797.208191,487
797.327271,487
797.446228,477
797.565186,461
797.684265,492
797.803223,478
797.922241,471
798.04126,484
798.160278,500
798.279297,473
798.398315,479
798.517273,468
798.636292,464
798.75531,504
798.874268,490
798.993286,490
799.112244,473
799.231323,468
799.350281,498
799.469238,479
799.588257,467
799.707153,488
799.826111,505
799.945129,479
800.064087,481
800.183044,469
800.302063,471
800.421021,493
800.539978,459
800.658936,489
800.777893,468
800.896912,477
801.015747,496
801.134705,472
801.253723,469
801.37262,476
801.491638,466
801.610535,502
801.729492,483
801.84845,466
801.967407,500
802.086243,488
802.205261,472
802.324158,460
802.443115,470
802.562073,460
802.680969,474
802.799927,478
802.918762,486
803.037659,488
803.156677,474
803.275574,481
803.39447,482
803.513428,477
803.632263,477
803.751221,487
803.870117,472
803.989014,470
804.107971,486
804.226746,497
804.345642,480
804.4646,503
804.583496,478
804.702393,483
804.821228,489
804.940125,480
805.059021,476
805.177917,470
805.296814,476
805.415649,474
805.534546,487
805.653442,501
805.772278,479
805.891113,467
806.01001,477
806.128906,465
806.247742,480
806.366577,497
806.485413,473
806.604309,475
806.723145,485
806.84198,475
806.960876,465
807.079712,483
807.198486,492
807.317383,494
807.436218,480
807.554993,474
807.673889,480
807.792725,467
807.91156,468
808.030396,489
808.14917,479
808.268005,461
808.386841,464
808.505676,470
808.624451,462
808.743286,455
808.862122,478
808.980896,481
809.099731,469
809.218506,459
809.337341,478
809.456116,466
809.57489,492
809.693726,469
809.8125,488
809.931274,457
810.050049,488
810.168884,458
810.287659,480
810.406372,482
810.525269,474
810.643982,471
810.762756,470
810.881531,463
811.000305,460
811.11908,472
811.237854,484
811.356567,480
811.475403,474
811.594116,463
811.71283,480
811.831604,477
811.950378,472
812.069153,472
812.187927,487
812.30658,481
812.425415,467
812.544128,490
812.662781,484
812.781616,463
812.900269,489
813.019043,488
813.137756,463
813.256531,482
813.375244,460
813.493896,444
813.612671,469
813.731384,473
813.850037,474
813.96875,480
814.087524,483
814.206238,464
814.324951,491
814.443604,466
814.562256,498
814.68103,475
814.799683,476
814.918335,467
815.037109,466
815.155762,467
815.274475,484
815.393188,460
815.511841,472
815.630554,462
815.749146,500
815.867859,459
815.986572,465
816.105164,475
816.223877,483
816.342529,475
816.461182,461
816.579895,473
816.698486,476
816.817139,470
816.935791,470
817.054504,496
817.173096,465
817.291748,470
817.4104,465
817.529053,472
817.647644,466
817.766235,461
817.884949,469
818.00354,484
818.122192,473
818.240845,463
818.359436,463
818.478088,454
818.59668,465
818.715271,466
818.833923,467
818.952515,478
819.071106,454
819.189758,464
819.30835,460
819.426941,470
819.545532,444
819.664124,472
819.782715,463
819.901306,446
820.019897,469
820.138489,467
820.25708,457
820.375671,440
820.494202,446
820.612732,447
820.731384,451
820.849915,463
820.968506,451
821.087097,469
821.205627,452
821.324158,449
821.442749,448
821.561279,441
821.679871,444
821.798401,448
821.916931,447
822.035461,442
822.154053,441
822.272583,438
822.391174,444
822.509583,451
822.628174,461
822.746704,444
822.865234,455
822.983765,440
823.102295,473
823.220825,464
823.339294,450
823.457825,454
823.576355,441
823.694824,449
823.813354,457
823.931885,453
824.050354,459
824.168884,466
824.287354,458
824.405823,439
824.524353,457
824.642822,449
824.761353,444
824.879822,452
824.998291,447
825.116699,454
825.235291,448
825.353699,450
825.472168,461
825.590637,447
825.709106,447
825.827576,442
825.946045,468
826.064453,448
826.182983,466
826.301392,459
826.4198,453
826.53833,455
826.656738,439
826.775208,451
826.893677,452
827.012024,446
827.130493,469
827.248962,457
827.36731,446
827.485779,457
827.604248,440
827.722595,441
827.841064,454
827.959412,450
828.077942,452
828.196289,456
828.314636,464
828.433105,457
828.551514,454
828.669861,420
828.78833,461
828.906677,444
829.025085,447
829.143433,448
829.261841,444
829.38031,447
829.498657,470
829.617004,438
829.735413,462
829.85376,447
829.972107,446
830.090515,431
830.208862,456
830.327209,444
830.445557,437
830.563904,471
830.682312,444
830.800659,436
830.919006,451
831.037354,460
831.155701,454
831.274048,441
831.392395,445
831.51062,464
831.629028,458
831.747314,451
831.865662,452
831.984009,436
832.102356,450
832.220642,452
832.338928,454
832.457275,431
832.575623,474
832.693909,455
832.812134,427
832.930481,457
833.048828,447
833.167114,455
833.2854,449
833.403687,448
833.521973,436
833.640259,450
833.758545,446
833.876831,437
833.995056,446
834.113281,440
834.231628,464
834.349915,446
834.468201,445
834.586426,451
834.704651,444
834.822998,448
834.941162,444
835.059448,449
835.177673,448
835.295959,455
835.414246,446
835.53241,448
835.650635,452
835.768921,449
835.887146,444
836.005371,441
836.123596,421
836.241821,457
836.360046,456
836.478271,443
836.596497,467
836.714722,455
836.832886,447
836.95105,445
837.069336,450
837.1875,458
837.305725,436
837.423889,443
837.542053,430
837.660339,450
837.778503,443
837.896667,448
838.014832,433
838.132996,436
838.25116,442
838.369385,444
838.487488,449
838.605713,439
838.723877,441
838.84198,442
838.960205,434
839.078308,451
839.196472,438
839.314636,450
839.4328,435
839.550964,425
839.669067,467
839.787231,433
839.905396,457
840.023499,444
840.141602,430
840.259766,445
840.377869,445
840.495972,435
840.614136,432
840.732239,440
840.850342,440
840.968445,425
841.086548,443
841.204651,435
841.322754,444
841.440918,433
841.55896,453
841.677002,454
841.795166,454
841.913208,441
842.031311,447
842.149353,434
842.267456,433
842.385498,441
842.503601,433
842.621643,444
842.739746,449
842.857788,437
842.97583,432
843.093933,434
843.211975,434
843.330017,446
843.44812,431
843.566101,445
843.684204,456
843.802246,429
843.920227,449
844.038269,440
844.156311,440
844.274292,439
844.392395,439
844.510376,463
844.628357,441
844.74646,440
844.864441,466
844.982422,441
845.100403,443
845.218384,451
845.336426,440
845.454468,452
845.572449,449
845.69043,442
845.808411,453
845.926453,458
846.044373,459
846.162354,426
846.280396,435
846.398315,436
846.516296,436
846.634216,450
846.752197,437
846.870178,436
846.988098,444
847.106079,472
847.22406,441
847.34198,459
847.4599,422
847.577881,450
847.695801,459
847.813782,461
847.931641,421
848.049561,454
848.167603,438
848.285461,446
848.403381,458
848.521362,448
848.639221,435
848.75708,444
848.875,437
848.99292,434
849.110901,450
849.22876,447
849.34668,441
849.464539,443
849.582458,470
849.700317,443
849.818176,443
849.936096,454
850.053955,442
850.171875,441
850.289673,446
850.407593,439
850.525452,437
850.643311,413
850.761169,450
850.878967,450
850.996887,447
851.114746,433
851.232544,448
851.350403,434
851.468262,451
851.58606,443
851.703979,451
851.821777,452
851.939636,460
852.057434,450
852.175232,448
852.293091,432
852.410889,456
852.528687,432
852.646545,449
852.764343,465
852.88208,451
852.999939,462
853.117676,450
853.235535,446
853.353271,435
853.471069,427
853.588928,451
853.706604,440
853.824402,462
853.9422,443
854.059998,447
854.177734,450
854.295532,450
854.413269,437
854.531006,458
854.648804,456
854.766541,458
854.884277,439
855.002014,453
855.119751,459
855.237549,445
855.355225,456
855.473022,460
855.590698,429
855.708435,462
855.826172,432
855.943848,441
856.061646,431
856.179321,458
856.296997,444
856.414795,446
856.53241,459
856.650085,429
856.767822,437
856.885559,454
857.003174,459
857.120911,446
857.238586,451
857.356201,450
857.473938,459
857.591614,454
857.709351,439
857.826965,445
857.944641,425
858.062317,445
858.179993,455
858.297668,438
858.415283,442
858.532959,442
858.650574,438
858.768188,449
858.885803,450
859.003479,453
859.121094,438
859.23877,447
859.356384,449
859.473999,456
859.591675,456
859.709229,443
859.826843,449
859.944458,445
860.062012,434
860.179626,449
860.297302,450
860.414856,442
860.532471,452
860.650024,454
860.767639,455
860.885193,444
861.002808,451
861.120361,457
861.237976,438
861.35553,450
861.473022,441
861.590698,431
861.708191,440
861.825745,452
861.943298,448
862.060852,443
862.178406,441
862.295959,441
862.413513,447
862.531006,450
862.64856,457
862.766113,447
862.883667,441
863.00116,449
863.118713,442
863.236206,458
863.353699,429
863.471252,455
863.588745,447
863.706177,442
863.82373,429
863.941162,442
864.058716,450
864.176208,451
864.29364,455
864.411194,421
864.528687,445
864.646118,452
864.763611,444
864.881042,441
864.998535,449
865.116028,444
865.233459,448
865.350891,458
865.468384,454
865.585754,458
865.703308,438
865.820679,434
865.938171,431
866.055542,444
866.173035,453
866.290466,439
866.407837,441
866.52533,445
866.6427,459
866.760071,467
866.877563,439
866.994934,459
867.112305,433
867.229736,453
867.347107,460
867.464539,447
867.58197,453
867.699341,446
867.81665,430
867.934082,466
868.051453,447
868.168823,427
868.286194,442
868.403564,445
868.520935,458
868.638306,464
868.755676,447
868.872986,456
868.990295,447
869.107727,458
869.225037,423
869.342346,457
869.459717,448
869.577026,456
869.694336,441
869.811707,454
869.929016,452
870.046326,461
870.163635,434
870.280945,453
870.398254,428
870.515564,429
870.632812,440
870.750183,439
870.867432,449
870.984741,460
871.102051,441
871.219299,441
871.336609,444
871.453918,455
871.571106,457
871.688416,432
871.805664,458
871.922852,438
872.040222,439
872.157471,452
872.274719,435
872.391968,470
872.509155,464
872.626465,454
872.743652,451
872.860962,439
872.978149,447
873.095337,464
873.212646,454
873.329834,442
873.44696,453
873.564209,461
873.681396,436
873.798645,455
873.915894,462
874.03302,441
874.150208,452
874.267456,446
874.384583,441
874.501831,458
874.618958,461
874.736145,465
874.853333,444
874.970459,450
875.087646,460
875.204834,446
875.32196,451
875.439148,448
875.556274,440
875.673401,442
875.790527,440
875.907715,445
876.024841,464
876.141968,452
876.259094,449
876.376282,453
876.493347,439
876.610474,445
876.7276,446
876.844727,448
876.961853,442
877.078918,480
877.195984,452
877.313171,473
877.430237,452
877.547302,435
877.664368,429
877.781433,452
877.898499,437
878.015625,465
878.13269,431
878.249695,465
878.366821,459
878.483887,452
878.600952,445
878.717957,457
878.834961,442
878.952087,452
879.069092,449
879.186157,456
879.303162,459
879.420227,465
879.537231,437
879.654236,432
879.77124,428
879.888306,454
880.005249,443
880.122314,448
880.239319,462
880.356323,463
880.473328,456
880.590271,463
880.707275,456
880.824341,443
880.941284,459
881.058228,447
881.175232,450
881.292236,451
881.40918,446
881.526123,453
881.643066,432
881.760071,447
881.877014,430
881.993958,458
882.11084,467
882.227783,452
882.344727,460
882.46167,453
882.578613,441
882.695618,450
882.812439,463
882.929382,450
883.046326,443
883.163208,444
883.280151,456
883.397034,451
883.513916,448
883.630798,451
883.747742,454
883.864563,435
883.981506,434
884.098389,441
884.21521,443
884.332153,444
884.448975,456
884.565796,441
884.682678,473
884.7995,463
884.916443,441
885.033264,454
885.150085,447
885.266968,462
885.383789,444
885.500671,447
885.617493,455
885.734314,452
885.851196,450
885.967896,454
886.084717,451
886.201599,462
886.318359,449
886.435181,452
886.552002,464
886.668762,467
886.785645,456
886.902344,456
887.019165,457
887.135925,443
887.252747,465
887.369446,433
887.486267,464
887.603027,452
887.719788,457
887.836548,456
887.953247,453
888.070068,471
888.186829,474
888.303528,458
888.420288,441
888.536987,448
888.653687,437
888.770447,445
888.887146,454
889.003967,462
889.120667,465
889.237305,454
889.354065,443
889.470703,446
889.587463,448
889.704163,460
889.820862,451
889.937561,467
890.054199,448
890.170837,451
890.287598,462
890.404236,458
890.520874,457
890.637634,450
890.754211,459
890.87085,455
890.987549,447
891.104187,463
891.220886,451
891.337463,447
891.454102,464
891.57074,445
891.687378,472
891.804077,478
891.920654,439
892.037231,454
892.15387,467
892.270447,460
892.387085,449
892.503723,438
892.6203,458
892.736877,439
892.853516,445
892.970032,453
893.08667,456
893.203186,462
893.319763,466
893.43634,459
893.552917,440
893.669556,456
893.786011,447
893.902588,470
894.019165,454
894.135681,467
894.252197,436
894.368835,482
894.485291,476
894.601868,455
894.718384,475
894.8349,473
894.951355,471
895.067932,462
895.184448,453
895.300964,447
895.417419,451
895.533936,444
895.650452,467
895.766907,470
895.883423,479
895.999878,466
896.116333,461
896.232849,479
896.349304,478
896.465759,462
896.582214,464
896.698669,451
896.815125,454
896.931641,475
897.048035,470
897.164551,462
897.280884,472
897.397339,465
897.513794,453
897.630249,460
897.746582,465
897.863098,457
897.979431,461
898.095886,468
898.212341,450
898.328674,460
898.445129,473
898.561462,453
898.677795,457
898.794312,474
898.910645,451
899.026978,455
899.143433,455
899.259766,489
899.37616,478
899.492493,460
899.608765,461
899.725159,470
899.841553,461
899.957947,468
900.07428,458
900.190552,471
900.306946,468
900.423157,467
900.53949,446
900.655884,459
900.772156,448
900.888489,481
901.004822,447
901.121033,485
901.237366,460
901.353699,468
901.46991,463
901.586304,499
901.702515,467
901.818787,471
901.93512,445
902.051331,461
902.167603,468
902.283875,467
902.400085,443
902.516418,454
902.632629,459
902.74884,459
902.865112,470
902.981384,480
903.097595,462
903.213867,466
903.330017,486
903.446289,452
903.5625,458
903.67865,470
903.794922,462
903.911072,455
904.027344,470
904.143494,455
904.259705,462
904.375916,476
904.492065,468
904.608215,476
904.724426,476
904.840576,472
904.956726,475
905.072876,462
905.189087,451
905.305176,471
905.421387,478
905.537537,461
905.653687,472
905.769775,453
905.885925,477
906.002014,470
906.118164,465
906.234314,475
906.350403,463
906.466492,468
906.582642,467
906.69873,473
906.814758,469
906.930908,463
907.046936,445
907.163086,468
907.279175,456
907.395264,477
907.511353,475
907.62738,455
907.743408,442
907.859497,490
907.975525,465
908.091553,495
908.207703,463
908.32373,481
908.439758,483
908.555786,481
908.671814,486
908.787842,485
908.90387,481
909.019775,460
909.135864,457
909.251892,478
909.367859,452
909.483826,469
909.599854,458
909.715881,476
909.831848,464
909.947815,472
910.063782,466
910.179749,463
910.295776,461
910.411743,465
910.527649,471
910.643616,480
910.759583,478
910.875488,467
910.991455,475
911.107361,474
911.223267,460
911.339294,482
911.4552,484
911.571106,470
911.687073,461
911.802979,469
911.918823,472
912.034729,481
912.150635,461
912.266602,471
912.382446,476
912.498352,469
912.614197,466
912.730103,469
912.846008,470
792.44574,484
792.56488,511
792.68396,567
792.80304,530
792.92218,499
793.041199,501
793.160339,494
793.279419,486
793.398499,501
793.517578,469
793.636658,494
793.755737,488
793.874817,503
793.993896,518
794.112976,501
794.232056,482
794.351074,481
794.470215,493
794.589233,487
794.708313,477
794.827393,504
794.946411,484
795.065552,506
795.18457,475
795.303589,503
795.422668,508
795.541687,500
795.660767,501
795.779846,499
795.898865,470
796.017883,477
796.136963,492
796.255981,498
796.375061,485
796.49408,504
796.613037,488
796.732117,509
796.851135,488
796.970154,464
797.089233,465
797.208191,484
797.327271,499
797.446228,509
797.565186,475
797.684265,482
797.803223,486
797.922241,484
798.04126,482
798.160278,494
798.279297,477
798.398315,482
798.517273,499
798.636292,493
798.75531,484
798.874268,477
798.993286,470
799.112244,503
799.231323,484
799.350281,506
799.469238,486
799.588257,477
799.707153,480
799.826111,481
799.945129,475
800.064087,503
800.183044,483
800.302063,483
800.421021,485
800.539978,492
800.658936,463
800.777893,499
800.896912,473
801.015747,483
801.134705,474
801.253723,467
801.37262,475
801.491638,491
801.610535,484
801.729492,476
801.84845,464
801.967407,479
802.086243,491
802.205261,483
802.324158,490
802.443115,475
802.562073,484
802.680969,474
802.799927,477
802.918762,479
803.037659,497
803.156677,493
803.275574,454
803.39447,468
803.513428,474
803.632263,480
803.751221,474
803.870117,475
803.989014,497
804.107971,472
804.226746,446
804.345642,500
804.4646,486
804.583496,485
804.702393,506
804.821228,469
804.940125,492
805.059021,495
805.177917,498
805.296814,483
805.415649,488
805.534546,489
805.653442,471
805.772278,479
805.891113,487
806.01001,488
806.128906,474
806.247742,459
806.366577,498
806.485413,468
806.604309,507
806.723145,506
806.84198,478
806.960876,490
807.079712,476
807.198486,488
807.317383,490
807.436218,473
807.554993,482
807.673889,489
807.792725,482
807.91156,472
808.030396,471
808.14917,474
808.268005,475
808.386841,472
808.505676,475
808.624451,495
808.743286,474
808.862122,472
808.980896,477
809.099731,493
809.218506,477
809.337341,478
809.456116,454
809.57489,471
809.693726,492
809.8125,486
809.931274,465
810.050049,469
810.168884,484
810.287659,462
810.406372,506
810.525269,467
810.643982,489
810.762756,465
810.881531,489
811.000305,493
811.11908,485
811.237854,490
811.356567,479
811.475403,486
811.594116,472
811.71283,478
811.831604,459
811.950378,462
812.069153,478
812.187927,481
812.30658,460
812.425415,462
812.544128,473
812.662781,476
812.781616,491
812.900269,462
813.019043,473
813.137756,480
813.256531,475
813.375244,477
813.493896,474
813.612671,487
813.731384,475
813.850037,488
813.96875,472
814.087524,474
814.206238,486
814.324951,483
814.443604,487
814.562256,487
814.68103,488
814.799683,473
814.918335,460
815.037109,477
815.155762,477
815.274475,499
815.393188,472
815.511841,464
815.630554,468
815.749146,467
815.867859,472
815.986572,489
816.105164,462
816.223877,461
816.342529,473
816.461182,470
816.579895,481
816.698486,485
816.817139,471
816.935791,469
817.054504,476
817.173096,473
817.291748,472
817.4104,464
817.529053,458
817.647644,480
817.766235,474
817.884949,496
818.00354,461
818.122192,458
818.240845,469
818.359436,476
818.478088,455
818.59668,450
818.715271,457
818.833923,460
818.952515,463
819.071106,460
819.189758,462
819.30835,461
819.426941,448
819.545532,456
819.664124,478
819.782715,466
819.901306,457
820.019897,470
820.138489,441
820.25708,456
820.375671,464
820.494202,452
820.612732,461
820.731384,452
820.849915,465
820.968506,461
821.087097,470
821.205627,462
821.324158,458
821.442749,465
821.561279,453
821.679871,469
821.798401,431
821.916931,458
822.035461,442
822.154053,452
822.272583,471
822.391174,459
822.509583,471
822.628174,473
822.746704,454
822.865234,451
822.983765,447
823.102295,442
823.220825,470
823.339294,455
823.457825,450
823.576355,465
823.694824,426
823.813354,499
823.931885,479
824.050354,456
824.168884,457
824.287354,468
824.405823,455
824.524353,462
824.642822,439
824.761353,463
824.879822,465
824.998291,475
825.116699,465
825.235291,455
825.353699,443
825.472168,456
825.590637,444
825.709106,466
825.827576,458
825.946045,446
826.064453,464
826.182983,450
826.301392,460
826.4198,456
826.53833,454
826.656738,458
826.775208,439
826.893677,458
827.012024,454
827.130493,434
827.248962,454
827.36731,476
827.485779,447
827.604248,450
827.722595,482
827.841064,464
827.959412,452
828.077942,436
828.196289,458
828.314636,468
828.433105,460
828.551514,453
828.669861,450
828.78833,459
828.906677,452
829.025085,455
829.143433,455
829.261841,464
829.38031,456
829.498657,448
829.617004,442
829.735413,453
829.85376,458
829.972107,454
830.090515,436
830.208862,460
830.327209,450
830.445557,440
830.563904,457
830.682312,453
830.800659,450
830.919006,452
831.037354,443
831.155701,461
831.274048,440
831.392395,462
831.51062,454
831.629028,459
831.747314,440
831.865662,466
831.984009,445
832.102356,463
832.220642,456
832.338928,443
832.457275,445
832.575623,456
832.693909,462
832.812134,430
832.930481,441
833.048828,468
833.167114,445
833.2854,453
833.403687,457
833.521973,471
833.640259,462
833.758545,444
833.876831,446
833.995056,465
834.113281,454
834.231628,446
834.349915,442
834.468201,456
834.586426,437
834.704651,445
834.822998,448
834.941162,450
835.059448,454
835.177673,454
835.295959,424
835.414246,439
835.53241,442
835.650635,464
835.768921,435
835.887146,455
836.005371,456
836.123596,452
836.241821,444
836.360046,455
836.478271,436
836.596497,443
836.714722,447
836.832886,462
836.95105,438
837.069336,463
837.1875,451
837.305725,452
837.423889,461
837.542053,453
837.660339,444
837.778503,446
837.896667,457
838.014832,454
838.132996,452
838.25116,457
838.369385,433
838.487488,445
838.605713,434
838.723877,464
838.84198,456
838.960205,452
839.078308,446
839.196472,452
839.314636,449
839.4328,432
839.550964,443
839.669067,461
839.787231,421
839.905396,467
840.023499,437
840.141602,426
840.259766,440
840.377869,438
840.495972,450
840.614136,459
840.732239,458
840.850342,440
840.968445,457
841.086548,440
841.204651,454
841.322754,457
841.440918,437
841.55896,444
841.677002,462
841.795166,440
841.913208,448
842.031311,458
842.149353,439
842.267456,457
842.385498,449
842.503601,446
842.621643,442
842.739746,464
842.857788,458
842.97583,443
843.093933,440
843.211975,456
843.330017,446
843.44812,444
843.566101,458
843.684204,458
843.802246,443
843.920227,451
844.038269,452
844.156311,456
844.274292,452
844.392395,435
844.510376,452
844.628357,445
844.74646,440
844.864441,451
844.982422,452
845.100403,441
845.218384,431
845.336426,444
845.454468,435
845.572449,459
845.69043,454
845.808411,432
845.926453,434
846.044373,447
846.162354,437
846.280396,446
846.398315,445
846.516296,461
846.634216,420
846.752197,450
846.870178,438
846.988098,471
847.106079,449
847.22406,449
847.34198,447
847.4599,445
847.577881,450
847.695801,459
847.813782,437
847.931641,454
848.049561,450
848.167603,455
848.285461,426
848.403381,457
848.521362,440
848.639221,459
848.75708,450
848.875,439
848.99292,439
849.110901,447
849.22876,441
849.34668,473
849.464539,441
849.582458,437
849.700317,447
849.818176,448
849.936096,469
850.053955,451
850.171875,441
850.289673,441
850.407593,432
850.525452,440
850.643311,447
850.761169,438
850.878967,456
850.996887,444
851.114746,445
851.232544,458
851.350403,439
851.468262,453
851.58606,454
851.703979,437
851.821777,448
851.939636,436
852.057434,459
852.175232,463
852.293091,451
852.410889,443
852.528687,453
852.646545,429
852.764343,444
852.88208,461
852.999939,445
853.117676,439
853.235535,442
853.353271,454
853.471069,450
853.588928,433
853.706604,433
853.824402,457
853.9422,428
854.059998,427
854.177734,449
854.295532,439
854.413269,441
854.531006,443
854.648804,449
854.766541,441
854.884277,454
855.002014,462
855.119751,450
855.237549,441
855.355225,459
855.473022,450
855.590698,446
855.708435,457
855.826172,458
855.943848,443
856.061646,444
856.179321,481
856.296997,442
856.414795,477
856.53241,469
856.650085,427
856.767822,471
856.885559,442
857.003174,436
857.120911,456
857.238586,447
857.356201,456
857.473938,449
857.591614,434
857.709351,443
857.826965,448
857.944641,437
858.062317,442
858.179993,433
858.297668,466
858.415283,464
858.532959,453
858.650574,440
858.768188,462
858.885803,450
859.003479,448
859.121094,432
859.23877,440
859.356384,453
859.473999,450
859.591675,446
859.709229,449
859.826843,476
859.944458,462
860.062012,443
860.179626,457
860.297302,455
860.414856,447
860.532471,452
860.650024,450
860.767639,434
860.885193,443
861.002808,424
861.120361,454
861.237976,440
861.35553,459
861.473022,451
861.590698,437
861.708191,444
861.825745,447
861.943298,446
862.060852,470
862.178406,452
862.295959,457
862.413513,450
862.531006,436
862.64856,459
862.766113,448
862.883667,451
863.00116,452
863.118713,450
863.236206,459
863.353699,480
863.471252,464
863.588745,446
863.706177,436
863.82373,441
863.941162,447
864.058716,445
864.176208,462
864.29364,425
864.411194,456
864.528687,447
864.646118,448
864.763611,450
864.881042,443
864.998535,465
865.116028,439
865.233459,450
865.350891,462
865.468384,456
865.585754,458
865.703308,446
865.820679,450
865.938171,454
866.055542,475
866.173035,444
866.290466,457
866.407837,452
866.52533,446
866.6427,439
866.760071,450
866.877563,447
866.994934,475
867.112305,431
867.229736,438
867.347107,458
867.464539,459
867.58197,470
867.699341,445
867.81665,448
867.934082,467
868.051453,446
868.168823,456
868.286194,433
868.403564,461
868.520935,438
868.638306,444
868.755676,444
868.872986,463
868.990295,459
869.107727,458
869.225037,465
869.342346,488
869.459717,467
869.577026,447
869.694336,463
869.811707,471
869.929016,449
870.046326,444
870.163635,449
870.280945,444
870.398254,437
870.515564,468
870.632812,451
870.750183,456
870.867432,447
870.984741,451
871.102051,454
871.219299,453
871.336609,425
871.453918,450
871.571106,454
871.688416,449
871.805664,468
871.922852,451
872.040222,450
872.157471,453
872.274719,444
872.391968,462
872.509155,454
872.626465,446
872.743652,455
872.860962,484
872.978149,450
873.095337,474
873.212646,446
873.329834,446
873.44696,448
873.564209,474
873.681396,481
873.798645,455
873.915894,447
874.03302,470
874.150208,455
874.267456,452
874.384583,450
874.501831,460
874.618958,452
874.736145,449
874.853333,457
874.970459,453
875.087646,444
875.204834,473
875.32196,462
875.439148,433
875.556274,452
875.673401,445
875.790527,442
875.907715,458
876.024841,456
876.141968,439
876.259094,457
876.376282,425
876.493347,441
876.610474,463
876.7276,440
876.844727,452
876.961853,453
877.078918,468
877.195984,445
877.313171,452
877.430237,458
877.547302,459
877.664368,466
877.781433,460
877.898499,443
878.015625,438
878.13269,457
878.249695,455
878.366821,451
878.483887,456
878.600952,454
878.717957,447
878.834961,449
878.952087,459
879.069092,457
879.186157,463
879.303162,477
879.420227,459
879.537231,454
879.654236,469
879.77124,452
879.888306,457
880.005249,463
880.122314,467
880.239319,452
880.356323,444
880.473328,450
880.590271,437
880.707275,454
880.824341,435
880.941284,458
881.058228,467
881.175232,448
881.292236,463
881.40918,487
881.526123,483
881.643066,452
881.760071,437
881.877014,459
881.993958,460
882.11084,431
882.227783,454
882.344727,458
882.46167,449
882.578613,451
882.695618,469
882.812439,453
882.929382,473
883.046326,463
883.163208,445
883.280151,454
883.397034,465
883.513916,441
883.630798,449
883.747742,472
883.864563,469
883.981506,456
884.098389,456
884.21521,452
884.332153,472
884.448975,455
884.565796,458
884.682678,474
884.7995,452
884.916443,453
885.033264,454
885.150085,470
885.266968,466
885.383789,448
885.500671,475
885.617493,442
885.734314,472
885.851196,468
885.967896,459
886.084717,469
886.201599,483
886.318359,459
886.435181,457
886.552002,448
886.668762,466
886.785645,445
886.902344,464
887.019165,470
887.135925,462
887.252747,453
887.369446,469
887.486267,459
887.603027,466
887.719788,469
887.836548,464
887.953247,457
888.070068,460
888.186829,458
888.303528,442
888.420288,464
888.536987,451
888.653687,449
888.770447,471
888.887146,447
889.003967,471
889.120667,460
889.237305,485
889.354065,462
889.470703,456
889.587463,461
889.704163,469
889.820862,467
889.937561,465
890.054199,470
890.170837,462
890.287598,433
890.404236,466
890.520874,458
890.637634,471
890.754211,468
890.87085,469
890.987549,464
891.104187,464
891.220886,475
891.337463,468
891.454102,461
891.57074,475
891.687378,447
891.804077,455
891.920654,467
892.037231,454
892.15387,469
892.270447,473
892.387085,451
892.503723,458
892.6203,464
892.736877,467
892.853516,453
892.970032,461
893.08667,462
893.203186,485
893.319763,463
893.43634,490
893.552917,445
893.669556,469
893.786011,478
893.902588,466
894.019165,435
894.135681,467
894.252197,482
894.368835,466
894.485291,443
894.601868,458
894.718384,456
894.8349,484
894.951355,461
895.067932,470
895.184448,466
895.300964,454
895.417419,464
895.533936,464
895.650452,452
895.766907,470
895.883423,455
895.999878,460
896.116333,452
896.232849,466
896.349304,449
896.465759,475
896.582214,454
896.698669,467
896.815125,443
896.931641,478
897.048035,472
897.164551,485
897.280884,451
897.397339,489
897.513794,473
897.630249,493
897.746582,464
897.863098,488
897.979431,474
898.095886,464
898.212341,479
898.328674,476
898.445129,454
898.561462,495
898.677795,474
898.794312,464
898.910645,467
899.026978,456
899.143433,486
899.259766,454
899.37616,463
899.492493,463
899.608765,463
899.725159,470
899.841553,462
899.957947,461
900.07428,454
900.190552,468
900.306946,468
900.423157,481
900.53949,474
900.655884,480
900.772156,478
900.888489,479
901.004822,469
901.121033,482
901.237366,467
901.353699,459
901.46991,452
901.586304,494
901.702515,462
901.818787,487
901.93512,457
902.051331,466
902.167603,448
902.283875,473
902.400085,457
902.516418,482
902.632629,468
902.74884,464
902.865112,462
902.981384,476
903.097595,450
903.213867,456
903.330017,470
903.446289,475
903.5625,458
903.67865,459
903.794922,460
903.911072,475
904.027344,476
904.143494,460
904.259705,475
904.375916,464
904.492065,464
904.608215,470
904.724426,478
904.840576,471
904.956726,459
905.072876,482
905.189087,456
905.305176,460
905.421387,472
905.537537,464
905.653687,475
905.769775,480
905.885925,459
906.002014,464
906.118164,468
906.234314,487
906.350403,478
906.466492,471
906.582642,459
906.69873,485
906.814758,477
906.930908,466
907.046936,471
907.163086,465
907.279175,482
907.395264,450
907.511353,460
907.62738,470
907.743408,466
907.859497,481
907.975525,466
908.091553,471
908.207703,470
908.32373,465
908.439758,464
908.555786,468
908.671814,478
908.787842,485
908.90387,464
909.019775,468
909.135864,465
909.251892,477
909.367859,450
909.483826,465
909.599854,478
909.715881,480
909.831848,466
909.947815,468
910.063782,471
910.179749,488
910.295776,472
910.411743,489
910.527649,474
910.643616,463
910.759583,457
910.875488,462
910.991455,477
911.107361,484
911.223267,489
911.339294,482
911.4552,463
911.571106,470
911.687073,469
911.802979,458
911.918823,478
912.034729,468
912.150635,469
912.266602,487
912.382446,452
912.498352,479
912.614197,468
912.730103,465
912.846008,477
