792.44574,766
792.56488,810
792.68396,817
792.80304,793
792.92218,757
793.041199,702
793.160339,691
793.279419,728
793.398499,724
793.517578,673
793.636658,685
793.755737,687
793.874817,704
793.993896,709
794.112976,659
794.232056,657
794.351074,660
794.470215,659
794.589233,664
794.708313,645
794.827393,639
794.946411,629
795.065552,638
795.18457,633
795.303589,622
795.422668,646
795.541687,610
795.660767,613
795.779846,644
795.898865,591
796.017883,597
796.136963,589
796.255981,598
796.375061,594
796.49408,608
796.613037,596
796.732117,591
796.851135,601
796.970154,586
797.089233,575
797.208191,574
797.327271,577
797.446228,567
797.565186,573
797.684265,579
797.803223,564
797.922241,565
798.04126,559
798.160278,578
798.279297,552
798.398315,565
798.517273,554
798.636292,549
798.75531,558
798.874268,557
798.993286,544
799.112244,552
799.231323,534
799.350281,547
799.469238,547
799.588257,587
799.707153,527
799.826111,551
799.945129,545
800.064087,544
800.183044,527
800.302063,561
800.421021,539
800.539978,522
800.658936,559
800.777893,536
800.896912,552
801.015747,557
801.134705,528
801.253723,549
801.37262,537
801.491638,548
801.610535,551
801.729492,530
801.84845,532
801.967407,549
802.086243,524
802.205261,544
802.324158,547
802.443115,521
802.562073,532
802.680969,535
802.799927,529
802.918762,530
803.037659,519
803.156677,539
803.275574,526
803.39447,534
803.513428,517
803.632263,522
803.751221,505
803.870117,527
803.989014,527
804.107971,535
804.226746,548
804.345642,539
804.4646,540
804.583496,529
804.702393,506
804.821228,540
804.940125,520
805.059021,517
805.177917,527
805.296814,545
805.415649,513
805.534546,524
805.653442,531
805.772278,533
805.891113,510
806.01001,533
806.128906,530
806.247742,523
806.366577,517
806.485413,516
806.604309,527
806.723145,507
806.84198,519
806.960876,538
807.079712,540
807.198486,535
807.317383,532
807.436218,530
807.554993,517
807.673889,535
807.792725,525
807.91156,533
808.030396,521
808.14917,544
808.268005,501
808.386841,517
808.505676,535
808.624451,526
808.743286,525
808.862122,514
808.980896,512
809.099731,516
809.218506,525
809.337341,518
809.456116,509
809.57489,540
809.693726,508
809.8125,524
809.931274,517
810.050049,510
810.168884,506
810.287659,511
810.406372,528
810.525269,521
810.643982,493
810.762756,535
810.881531,519
811.000305,544
811.11908,523
811.237854,521
811.356567,528
811.475403,544
811.594116,528
811.71283,523
811.831604,511
811.950378,544
812.069153,508
812.187927,515
812.30658,521
812.425415,516
812.544128,516
812.662781,513
812.781616,535
812.900269,534
813.019043,502
813.137756,515
813.256531,499
813.375244,532
813.493896,514
813.612671,514
813.731384,516
813.850037,521
813.96875,507
814.087524,522
814.206238,515
814.324951,515
814.443604,519
814.562256,525
814.68103,508
814.799683,536
814.918335,511
815.037109,497
815.155762,506
815.274475,499
815.393188,485
815.511841,503
815.630554,496
815.749146,492
815.867859,511
815.986572,507
816.105164,498
816.223877,491
816.342529,510
816.461182,508
816.579895,491
816.698486,514
816.817139,514
816.935791,490
817.054504,512
817.173096,514
817.291748,517
817.4104,512
817.529053,499
817.647644,490
817.766235,489
817.884949,503
818.00354,493
818.122192,504
818.240845,496
818.359436,487
818.478088,500
818.59668,492
818.715271,497
818.833923,513
818.952515,489
819.071106,499
819.189758,486
819.30835,478
819.426941,486
819.545532,467
819.664124,482
819.782715,497
819.901306,476
820.019897,481
820.138489,485
820.25708,482
820.375671,471
820.494202,500
820.612732,479
820.731384,470
820.849915,470
820.968506,479
821.087097,470
821.205627,492
821.324158,491
821.442749,471
821.561279,487
821.679871,478
821.798401,476
821.916931,485
822.035461,481
822.154053,472
822.272583,449
822.391174,479
822.509583,477
822.628174,477
822.746704,484
822.865234,474
822.983765,476
823.102295,475
823.220825,464
823.339294,451
823.457825,461
823.576355,475
823.694824,452
823.813354,481
823.931885,478
824.050354,488
824.168884,450
824.287354,469
824.405823,483
824.524353,472
824.642822,471
824.761353,482
824.879822,477
824.998291,467
825.116699,468
825.235291,472
825.353699,461
825.472168,471
825.590637,472
825.709106,470
825.827576,449
825.946045,452
826.064453,452
826.182983,468
826.301392,474
826.4198,478
826.53833,446
826.656738,480
826.775208,456
826.893677,470
827.012024,465
827.130493,479
827.248962,462
827.36731,472
827.485779,483
827.604248,481
827.722595,456
827.841064,449
827.959412,460
828.077942,460
828.196289,469
828.314636,464
828.433105,459
828.551514,471
828.669861,451
828.78833,456
828.906677,460
829.025085,468
829.143433,468
829.261841,457
829.38031,466
829.498657,468
829.617004,449
829.735413,471
829.85376,450
829.972107,460
830.090515,450
830.208862,452
830.327209,459
830.445557,453
830.563904,460
830.682312,465
830.800659,472
830.919006,466
831.037354,461
831.155701,473
831.274048,460
831.392395,469
831.51062,461
831.629028,449
831.747314,493
831.865662,458
831.984009,465
832.102356,466
832.220642,463
832.338928,476
832.457275,455
832.575623,465
832.693909,461
832.812134,457
832.930481,478
833.048828,472
833.167114,476
833.2854,467
833.403687,454
833.521973,458
833.640259,469
833.758545,476
833.876831,472
833.995056,481
834.113281,476
834.231628,452
834.349915,448
834.468201,435
834.586426,461
834.704651,461
834.822998,470
834.941162,437
835.059448,461
835.177673,479
835.295959,462
835.414246,469
835.53241,459
835.650635,481
835.768921,455
835.887146,459
836.005371,465
836.123596,460
836.241821,458
836.360046,460
836.478271,459
836.596497,459
836.714722,461
836.832886,458
836.95105,456
837.069336,474
837.1875,444
837.305725,455
837.423889,474
837.542053,465
837.660339,442
837.778503,452
837.896667,468
838.014832,471
838.132996,441
838.25116,457
838.369385,477
838.487488,462
838.605713,461
838.723877,478
838.84198,480
838.960205,473
839.078308,475
839.196472,473
839.314636,474
839.4328,478
839.550964,465
839.669067,461
839.787231,483
839.905396,458
840.023499,477
840.141602,473
840.259766,480
840.377869,485
840.495972,466
840.614136,506
840.732239,464
840.850342,486
840.968445,485
841.086548,473
841.204651,464
841.322754,481
841.440918,477
841.55896,470
841.677002,482
841.795166,486
841.913208,481
842.031311,484
842.149353,489
842.267456,486
842.385498,465
842.503601,467
842.621643,459
842.739746,472
842.857788,454
842.97583,462
843.093933,483
843.211975,478
843.330017,453
843.44812,481
843.566101,471
843.684204,477
843.802246,469
843.920227,474
844.038269,477
844.156311,492
844.274292,476
844.392395,481
844.510376,471
844.628357,491
844.74646,466
844.864441,480
844.982422,460
845.100403,470
845.218384,460
845.336426,497
845.454468,452
845.572449,480
845.69043,449
845.808411,462
845.926453,474
846.044373,475
846.162354,462
846.280396,480
846.398315,465
846.516296,477
846.634216,482
846.752197,461
846.870178,467
846.988098,469
847.106079,473
847.22406,487
847.34198,472
847.4599,479
847.577881,468
847.695801,486
847.813782,481
847.931641,458
848.049561,475
848.167603,475
848.285461,471
848.403381,472
848.521362,460
848.639221,462
848.75708,460
848.875,459
848.99292,473
849.110901,473
849.22876,463
849.34668,493
849.464539,472
849.582458,496
849.700317,474
849.818176,466
849.936096,476
850.053955,478
850.171875,482
850.289673,479
850.407593,488
850.525452,480
850.643311,470
850.761169,470
850.878967,438
850.996887,483
851.114746,473
851.232544,480
851.350403,464
851.468262,460
851.58606,474
851.703979,470
851.821777,483
851.939636,477
852.057434,473
852.175232,475
852.293091,467
852.410889,459
852.528687,491
852.646545,488
852.764343,480
852.88208,493
852.999939,488
853.117676,481
853.235535,465
853.353271,482
853.471069,461
853.588928,470
853.706604,493
853.824402,478
853.9422,488
854.059998,445
854.177734,475
854.295532,483
854.413269,473
854.531006,472
854.648804,479
854.766541,463
854.884277,483
855.002014,487
855.119751,481
855.237549,474
855.355225,498
855.473022,488
855.590698,472
855.708435,477
855.826172,458
855.943848,475
856.061646,491
856.179321,473
856.296997,477
856.414795,487
856.53241,476
856.650085,481
856.767822,475
856.885559,484
857.003174,480
857.120911,484
857.238586,489
857.356201,490
857.473938,479
857.591614,492
857.709351,489
857.826965,485
857.944641,473
858.062317,494
858.179993,473
858.297668,502
858.415283,471
858.532959,472
858.650574,493
858.768188,489
858.885803,463
859.003479,493
859.121094,501
859.23877,489
859.356384,452
859.473999,460
859.591675,476
859.709229,461
859.826843,498
859.944458,467
860.062012,481
860.179626,465
860.297302,479
860.414856,473
860.532471,462
860.650024,484
860.767639,476
860.885193,465
861.002808,467
861.120361,460
861.237976,473
861.35553,459
861.473022,486
861.590698,471
861.708191,475
861.825745,479
861.943298,458
862.060852,474
862.178406,475
862.295959,466
862.413513,456
862.531006,480
862.64856,466
862.766113,472
862.883667,462
863.00116,466
863.118713,468
863.236206,470
863.353699,469
863.471252,458
863.588745,475
863.706177,477
863.82373,469
863.941162,472
864.058716,466
864.176208,470
864.29364,447
864.411194,492
864.528687,464
864.646118,466
864.763611,458
864.881042,454
864.998535,453
865.116028,449
865.233459,453
865.350891,471
865.468384,463
865.585754,472
865.703308,455
865.820679,466
865.938171,484
866.055542,455
866.173035,468
866.290466,477
866.407837,458
866.52533,461
866.6427,457
866.760071,471
866.877563,467
866.994934,459
867.112305,473
867.229736,470
867.347107,463
867.464539,458
867.58197,458
867.699341,465
867.81665,477
867.934082,476
868.051453,469
868.168823,460
868.286194,456
868.403564,468
868.520935,468
868.638306,478
868.755676,436
868.872986,477
868.990295,465
869.107727,492
869.225037,480
869.342346,471
869.459717,471
869.577026,490
869.694336,473
869.811707,497
869.929016,456
870.046326,486
870.163635,466
870.280945,478
870.398254,477
870.515564,451
870.632812,493
870.750183,471
870.867432,479
870.984741,484
871.102051,474
871.219299,477
871.336609,484
871.453918,472
871.571106,480
871.688416,485
871.805664,473
871.922852,501
872.040222,487
872.157471,468
872.274719,491
872.391968,478
872.509155,485
872.626465,470
872.743652,483
872.860962,489
872.978149,465
873.095337,486
873.212646,492
873.329834,496
873.44696,481
873.564209,481
873.681396,506
873.798645,484
873.915894,479
874.03302,483
874.150208,508
874.267456,497
874.384583,484
874.501831,491
874.618958,481
874.736145,483
874.853333,499
874.970459,487
875.087646,469
875.204834,499
875.32196,494
875.439148,485
875.556274,484
875.673401,477
875.790527,491
875.907715,484
876.024841,474
876.141968,489
876.259094,475
876.376282,483
876.493347,475
876.610474,481
876.7276,476
876.844727,488
876.961853,468
877.078918,470
877.195984,467
877.313171,481
877.430237,469
877.547302,479
877.664368,460
877.781433,471
877.898499,483
878.015625,494
878.13269,472
878.249695,487
878.366821,464
878.483887,477
878.600952,472
878.717957,465
878.834961,465
878.952087,467
879.069092,467
879.186157,482
879.303162,454
879.420227,464
879.537231,464
879.654236,449
879.77124,467
879.888306,459
880.005249,464
880.122314,466
880.239319,468
880.356323,461
880.473328,449
880.590271,482
880.707275,468
880.824341,456
880.941284,461
881.058228,481
881.175232,480
881.292236,473
881.40918,470
881.526123,467
881.643066,470
881.760071,498
881.877014,471
881.993958,460
882.11084,451
882.227783,472
882.344727,475
882.46167,461
882.578613,462
882.695618,465
882.812439,468
882.929382,462
883.046326,482
883.163208,468
883.280151,454
883.397034,480
883.513916,463
883.630798,481
883.747742,454
883.864563,461
883.981506,461
884.098389,477
884.21521,474
884.332153,473
884.448975,478
884.565796,500
884.682678,484
884.7995,496
884.916443,512
885.033264,514
885.150085,510
885.266968,513
885.383789,516
885.500671,515
885.617493,518
885.734314,534
885.851196,496
885.967896,507
886.084717,516
886.201599,519
886.318359,527
886.435181,504
886.552002,523
886.668762,506
886.785645,487
886.902344,486
887.019165,497
887.135925,485
887.252747,494
887.369446,512
887.486267,475
887.603027,491
887.719788,486
887.836548,490
887.953247,456
888.070068,485
888.186829,471
888.303528,488
888.420288,479
888.536987,470
888.653687,467
888.770447,471
888.887146,455
889.003967,480
889.120667,476
889.237305,459
889.354065,452
889.470703,451
889.587463,461
889.704163,466
889.820862,464
889.937561,471
890.054199,463
890.170837,475
890.287598,446
890.404236,476
890.520874,459
890.637634,457
890.754211,460
890.87085,458
890.987549,452
891.104187,488
891.220886,484
891.337463,457
891.454102,443
891.57074,470
891.687378,465
891.804077,458
891.920654,447
892.037231,473
892.15387,468
892.270447,461
892.387085,475
892.503723,468
892.6203,466
892.736877,459
892.853516,465
892.970032,475
893.08667,463
893.203186,480
893.319763,458
893.43634,469
893.552917,456
893.669556,478
893.786011,481
893.902588,474
894.019165,463
894.135681,466
894.252197,449
894.368835,476
894.485291,464
894.601868,469
894.718384,472
894.8349,470
894.951355,472
895.067932,469
895.184448,457
895.300964,466
895.417419,450
895.533936,464
895.650452,446
895.766907,472
895.883423,480
895.999878,448
896.116333,451
896.232849,458
896.349304,439
896.465759,477
896.582214,474
896.698669,473
896.815125,460
896.931641,480
897.048035,479
897.164551,469
897.280884,455
897.397339,455
897.513794,454
897.630249,478
897.746582,456
897.863098,456
897.979431,462
898.095886,486
898.212341,448
898.328674,469
898.445129,470
898.561462,453
898.677795,480
898.794312,455
898.910645,453
899.026978,461
899.143433,496
899.259766,472
899.37616,448
899.492493,465
899.608765,455
899.725159,462
899.841553,455
899.957947,480
900.07428,460
900.190552,432
900.306946,483
900.423157,468
900.53949,466
900.655884,473
900.772156,472
900.888489,493
901.004822,470
901.121033,460
901.237366,474
901.353699,470
901.46991,482
901.586304,478
901.702515,465
901.818787,473
901.93512,477
902.051331,475
902.167603,475
902.283875,476
902.400085,489
902.516418,492
902.632629,485
902.74884,494
902.865112,498
902.981384,491
903.097595,480
903.213867,493
903.330017,508
903.446289,509
903.5625,500
903.67865,492
903.794922,489
903.911072,484
904.027344,490
904.143494,484
904.259705,477
904.375916,478
904.492065,478
904.608215,482
904.724426,488
904.840576,468
904.956726,488
905.072876,492
905.189087,463
905.305176,472
905.421387,484
905.537537,461
905.653687,471
905.769775,467
905.885925,466
906.002014,461
906.118164,469
906.234314,477
906.350403,480
906.466492,453
906.582642,472
906.69873,482
906.814758,463
906.930908,457
907.046936,467
907.163086,466
907.279175,450
907.395264,469
907.511353,475
907.62738,462
907.743408,465
907.859497,459
907.975525,466
908.091553,481
908.207703,466
908.32373,482
908.439758,454
908.555786,454
908.671814,475
908.787842,473
908.90387,467
909.019775,469
909.135864,466
909.251892,473
909.367859,461
909.483826,462
909.599854,459
909.715881,481
909.831848,456
909.947815,439
910.063782,467
910.179749,478
910.295776,470
910.411743,465
910.527649,474
910.643616,489
910.759583,456
910.875488,472
910.991455,465
911.107361,459
911.223267,460
911.339294,475
911.4552,466
911.571106,448
911.687073,451
911.802979,483
911.918823,475
912.034729,467
912.150635,479
912.266602,459
912.382446,479
912.498352,466
912.614197,454
912.730103,487
912.846008,471
792.44574,763
792.56488,789
792.68396,841
792.80304,802
792.92218,748
793.041199,732
793.160339,729
793.279419,722
793.398499,706
793.517578,709
793.636658,683
793.755737,686
793.874817,705
793.993896,676
794.112976,707
794.232056,651
794.351074,678
794.470215,661
794.589233,667
794.708313,637
794.827393,637
794.946411,614
795.065552,629
795.18457,635
795.303589,632
795.422668,623
795.541687,614
795.660767,616
795.779846,610
795.898865,604
796.017883,587
796.136963,629
796.255981,593
796.375061,612
796.49408,591
796.613037,565
796.732117,575
796.851135,597
796.970154,570
797.089233,577
797.208191,580
797.327271,568
797.446228,571
797.565186,579
797.684265,549
797.803223,548
797.922241,550
798.04126,569
798.160278,559
798.279297,560
798.398315,561
798.517273,552
798.636292,570
798.75531,561
798.874268,546
798.993286,555
799.112244,575
799.231323,557
799.350281,552
799.469238,559
799.588257,563
799.707153,546
799.826111,551
799.945129,554
800.064087,570
800.183044,550
800.302063,552
800.421021,554
800.539978,563
800.658936,534
800.777893,517
800.896912,539
801.015747,572
801.134705,539
801.253723,544
801.37262,521
801.491638,547
801.610535,536
801.729492,534
801.84845,547
801.967407,556
802.086243,545
802.205261,558
802.324158,552
802.443115,534
802.562073,541
802.680969,541
802.799927,528
802.918762,530
803.037659,540
803.156677,529
803.275574,536
803.39447,532
803.513428,534
803.632263,541
803.751221,542
803.870117,524
803.989014,549
804.107971,529
804.226746,552
804.345642,530
804.4646,519
804.583496,518
804.702393,504
804.821228,524
804.940125,515
805.059021,544
805.177917,521
805.296814,520
805.415649,490
805.534546,519
805.653442,522
805.772278,533
805.891113,540
806.01001,527
806.128906,533
806.247742,515
806.366577,517
806.485413,520
806.604309,548
806.723145,509
806.84198,503
806.960876,506
807.079712,553
807.198486,536
807.317383,511
807.436218,522
807.554993,512
807.673889,514
807.792725,538
807.91156,517
808.030396,523
808.14917,517
808.268005,532
808.386841,544
808.505676,510
808.624451,537
808.743286,528
808.862122,519
808.980896,555
809.099731,521
809.218506,522
809.337341,516
809.456116,506
809.57489,531
809.693726,506
809.8125,539
809.931274,534
810.050049,536
810.168884,531
810.287659,506
810.406372,514
810.525269,529
810.643982,524
810.762756,509
810.881531,505
811.000305,530
811.11908,517
811.237854,506
811.356567,520
811.475403,534
811.594116,524
811.71283,522
811.831604,512
811.950378,511
812.069153,524
812.187927,523
812.30658,517
812.425415,524
812.544128,521
812.662781,532
812.781616,521
812.900269,533
813.019043,525
813.137756,526
813.256531,534
813.375244,522
813.493896,511
813.612671,523
813.731384,512
813.850037,523
813.96875,526
814.087524,520
814.206238,509
814.324951,513
814.443604,497
814.562256,510
814.68103,522
814.799683,534
814.918335,534
815.037109,489
815.155762,513
815.274475,518
815.393188,517
815.511841,525
815.630554,508
815.749146,500
815.867859,498
815.986572,501
816.105164,493
816.223877,505
816.342529,512
816.461182,509
816.579895,522
816.698486,520
816.817139,516
816.935791,518
817.054504,543
817.173096,543
817.291748,498
817.4104,516
817.529053,510
817.647644,520
817.766235,489
817.884949,508
818.00354,509
818.122192,493
818.240845,480
818.359436,494
818.478088,498
818.59668,500
818.715271,498
818.833923,509
818.952515,500
819.071106,500
819.189758,474
819.30835,488
819.426941,503
819.545532,487
819.664124,502
819.782715,493
819.901306,470
820.019897,490
820.138489,472
820.25708,468
820.375671,487
820.494202,475
820.612732,505
820.731384,484
820.849915,481
820.968506,477
821.087097,471
821.205627,485
821.324158,432
821.442749,478
821.561279,478
821.679871,479
821.798401,477
821.916931,474
822.035461,494
822.154053,488
822.272583,475
822.391174,494
822.509583,480
822.628174,461
822.746704,481
822.865234,456
822.983765,468
823.102295,472
823.220825,475
823.339294,481
823.457825,471
823.576355,489
823.694824,462
823.813354,469
823.931885,451
824.050354,486
824.168884,483
824.287354,480
824.405823,463
824.524353,480
824.642822,461
824.761353,490
824.879822,487
824.998291,464
825.116699,463
825.235291,468
825.353699,471
825.472168,466
825.590637,456
825.709106,474
825.827576,466
825.946045,469
826.064453,474
826.182983,479
826.301392,461
826.4198,456
826.53833,454
826.656738,473
826.775208,464
826.893677,459
827.012024,466
827.130493,477
827.248962,449
827.36731,469
827.485779,478
827.604248,480
827.722595,471
827.841064,474
827.959412,464
828.077942,464
828.196289,469
828.314636,469
828.433105,458
828.551514,470
828.669861,447
828.78833,456
828.906677,468
829.025085,472
829.143433,451
829.261841,450
829.38031,483
829.498657,459
829.617004,485
829.735413,471
829.85376,455
829.972107,457
830.090515,452
830.208862,476
830.327209,454
830.445557,479
830.563904,461
830.682312,451
830.800659,463
830.919006,470
831.037354,465
831.155701,475
831.274048,476
831.392395,458
831.51062,442
831.629028,473
831.747314,461
831.865662,474
831.984009,477
832.102356,460
832.220642,447
832.338928,487
832.457275,472
832.575623,457
832.693909,470
832.812134,466
832.930481,463
833.048828,464
833.167114,458
833.2854,458
833.403687,461
833.521973,468
833.640259,470
833.758545,470
833.876831,464
833.995056,478
834.113281,441
834.231628,479
834.349915,454
834.468201,471
834.586426,481
834.704651,460
834.822998,444
834.941162,456
835.059448,463
835.177673,468
835.295959,472
835.414246,488
835.53241,464
835.650635,464
835.768921,446
835.887146,460
836.005371,445
836.123596,468
836.241821,461
836.360046,450
836.478271,449
836.596497,455
836.714722,455
836.832886,480
836.95105,459
837.069336,466
837.1875,469
837.305725,465
837.423889,450
837.542053,461
837.660339,460
837.778503,459
837.896667,465
838.014832,458
838.132996,459
838.25116,492
838.369385,454
838.487488,490
838.605713,459
838.723877,471
838.84198,448
838.960205,475
839.078308,464
839.196472,462
839.314636,467
839.4328,469
839.550964,453
839.669067,482
839.787231,464
839.905396,476
840.023499,478
840.141602,477
840.259766,473
840.377869,484
840.495972,470
840.614136,485
840.732239,491
840.850342,475
840.968445,473
841.086548,475
841.204651,463
841.322754,496
841.440918,487
841.55896,479
841.677002,464
841.795166,465
841.913208,476
842.031311,474
842.149353,476
842.267456,479
842.385498,486
842.503601,496
842.621643,468
842.739746,476
842.857788,476
842.97583,476
843.093933,474
843.211975,491
843.330017,471
843.44812,492
843.566101,466
843.684204,473
843.802246,490
843.920227,484
844.038269,458
844.156311,487
844.274292,466
844.392395,475
844.510376,463
844.628357,479
844.74646,457
844.864441,473
844.982422,486
845.100403,483
845.218384,478
845.336426,480
845.454468,485
845.572449,478
845.69043,475
845.808411,483
845.926453,487
846.044373,470
846.162354,482
846.280396,472
846.398315,471
846.516296,487
846.634216,469
846.752197,470
846.870178,442
846.988098,475
847.106079,483
847.22406,474
847.34198,462
847.4599,468
847.577881,474
847.695801,471
847.813782,478
847.931641,458
848.049561,473
848.167603,452
848.285461,479
848.403381,473
848.521362,471
848.639221,487
848.75708,468
848.875,466
848.99292,473
849.110901,472
849.22876,454
849.34668,491
849.464539,466
849.582458,480
849.700317,476
849.818176,483
849.936096,493
850.053955,493
850.171875,480
850.289673,469
850.407593,475
850.525452,450
850.643311,472
850.761169,476
850.878967,479
850.996887,481
851.114746,480
851.232544,476
851.350403,482
851.468262,487
851.58606,492
851.703979,470
851.821777,471
851.939636,492
852.057434,465
852.175232,488
852.293091,477
852.410889,496
852.528687,481
852.646545,472
852.764343,481
852.88208,486
852.999939,476
853.117676,479
853.235535,487
853.353271,491
853.471069,462
853.588928,485
853.706604,482
853.824402,475
853.9422,480
854.059998,479
854.177734,481
854.295532,477
854.413269,498
854.531006,498
854.648804,486
854.766541,481
854.884277,505
855.002014,505
855.119751,473
855.237549,472
855.355225,461
855.473022,474
855.590698,484
855.708435,488
855.826172,476
855.943848,484
856.061646,467
856.179321,491
856.296997,463
856.414795,472
856.53241,476
856.650085,485
856.767822,483
856.885559,489
857.003174,481
857.120911,481
857.238586,477
857.356201,479
857.473938,468
857.591614,481
857.709351,485
857.826965,467
857.944641,485
858.062317,493
858.179993,493
858.297668,482
858.415283,486
858.532959,477
858.650574,474
858.768188,499
858.885803,491
859.003479,480
859.121094,483
859.23877,498
859.356384,487
859.473999,483
859.591675,484
859.709229,471
859.826843,482
859.944458,457
860.062012,467
860.179626,477
860.297302,456
860.414856,464
860.532471,480
860.650024,466
860.767639,454
860.885193,478
861.002808,482
861.120361,498
861.237976,455
861.35553,490
861.473022,446
861.590698,466
861.708191,475
861.825745,473
861.943298,484
862.060852,486
862.178406,487
862.295959,489
862.413513,469
862.531006,458
862.64856,457
862.766113,462
862.883667,475
863.00116,476
863.118713,464
863.236206,473
863.353699,463
863.471252,466
863.588745,466
863.706177,479
863.82373,478
863.941162,477
864.058716,468
864.176208,476
864.29364,461
864.411194,463
864.528687,457
864.646118,474
864.763611,454
864.881042,483
864.998535,471
865.116028,490
865.233459,483
865.350891,493
865.468384,465
865.585754,469
865.703308,451
865.820679,484
865.938171,468
866.055542,445
866.173035,477
866.290466,472
866.407837,475
866.52533,470
866.6427,463
866.760071,455
866.877563,472
866.994934,481
867.112305,462
867.229736,485
867.347107,465
867.464539,471
867.58197,454
867.699341,483
867.81665,481
867.934082,492
868.051453,474
868.168823,460
868.286194,471
868.403564,466
868.520935,467
868.638306,486
868.755676,460
868.872986,479
868.990295,472
869.107727,481
869.225037,457
869.342346,493
869.459717,482
869.577026,479
869.694336,493
869.811707,470
869.929016,486
870.046326,491
870.163635,473
870.280945,501
870.398254,480
870.515564,471
870.632812,477
870.750183,489
870.867432,491
870.984741,469
871.102051,496
871.219299,480
871.336609,494
871.453918,486
871.571106,477
871.688416,493
871.805664,506
871.922852,493
872.040222,518
872.157471,481
872.274719,489
872.391968,494
872.509155,480
872.626465,493
872.743652,504
872.860962,498
872.978149,495
873.095337,490
873.212646,480
873.329834,478
873.44696,484
873.564209,464
873.681396,492
873.798645,501
873.915894,502
874.03302,501
874.150208,472
874.267456,524
874.384583,485
874.501831,505
874.618958,493
874.736145,492
874.853333,512
874.970459,490
875.087646,487
875.204834,513
875.32196,481
875.439148,488
875.556274,477
875.673401,490
875.790527,489
875.907715,494
876.024841,467
876.141968,493
876.259094,492
876.376282,489
876.493347,489
876.610474,464
876.7276,452
876.844727,473
876.961853,482
877.078918,484
877.195984,465
877.313171,483
877.430237,499
877.547302,482
877.664368,490
877.781433,475
877.898499,471
878.015625,463
878.13269,471
878.249695,492
878.366821,471
878.483887,463
878.600952,460
878.717957,467
878.834961,454
878.952087,461
879.069092,486
879.186157,469
879.303162,475
879.420227,477
879.537231,470
879.654236,480
879.77124,491
879.888306,485
880.005249,468
880.122314,486
880.239319,485
880.356323,476
880.473328,457
880.590271,480
880.707275,452
880.824341,477
880.941284,468
881.058228,478
881.175232,474
881.292236,463
881.40918,469
881.526123,485
881.643066,470
881.760071,470
881.877014,457
881.993958,469
882.11084,461
882.227783,475
882.344727,472
882.46167,458
882.578613,451
882.695618,464
882.812439,471
882.929382,472
883.046326,479
883.163208,451
883.280151,461
883.397034,460
883.513916,464
883.630798,482
883.747742,497
883.864563,482
883.981506,488
884.098389,486
884.21521,478
884.332153,506
884.448975,458
884.565796,494
884.682678,513
884.7995,503
884.916443,491
885.033264,501
885.150085,501
885.266968,536
885.383789,517
885.500671,518
885.617493,522
885.734314,528
885.851196,505
885.967896,528
886.084717,518
886.201599,536
886.318359,510
886.435181,501
886.552002,505
886.668762,524
886.785645,506
886.902344,512
887.019165,493
887.135925,503
887.252747,504
887.369446,496
887.486267,491
887.603027,514
887.719788,494
887.836548,500
887.953247,475
888.070068,498
888.186829,478
888.303528,475
888.420288,468
888.536987,465
888.653687,466
888.770447,486
888.887146,475
889.003967,462
889.120667,476
889.237305,480
889.354065,460
889.470703,458
889.587463,469
889.704163,483
889.820862,472
889.937561,488
890.054199,456
890.170837,480
890.287598,462
890.404236,479
890.520874,467
890.637634,475
890.754211,470
890.87085,488
890.987549,463
891.104187,492
891.220886,467
891.337463,484
891.454102,495
891.57074,475
891.687378,464
891.804077,470
891.920654,471
892.037231,482
892.15387,475
892.270447,473
892.387085,457
892.503723,450
892.6203,461
892.736877,479
892.853516,462
892.970032,471
893.08667,458
893.203186,466
893.319763,435
893.43634,473
893.552917,467
893.669556,456
893.786011,476
893.902588,466
894.019165,457
894.135681,455
894.252197,473
894.368835,492
894.485291,460
894.601868,461
894.718384,491
894.8349,469
894.951355,471
895.067932,463
895.184448,460
895.300964,455
895.417419,461
895.533936,463
895.650452,468
895.766907,466
895.883423,440
895.999878,483
896.116333,471
896.232849,478
896.349304,462
896.465759,465
896.582214,456
896.698669,491
896.815125,458
896.931641,457
897.048035,476
897.164551,476
897.280884,449
897.397339,472
897.513794,473
897.630249,479
897.746582,458
897.863098,476
897.979431,455
898.095886,505
898.212341,465
898.328674,485
898.445129,458
898.561462,470
898.677795,474
898.794312,451
898.910645,463
899.026978,480
899.143433,473
899.259766,482
899.37616,474
899.492493,464
899.608765,473
899.725159,485
899.841553,477
899.957947,489
900.07428,469
900.190552,472
900.306946,469
900.423157,471
900.53949,491
900.655884,482
900.772156,485
900.888489,470
901.004822,493
901.121033,471
901.237366,455
901.353699,478
901.46991,479
901.586304,476
901.702515,482
901.818787,473
901.93512,472
902.051331,487
902.167603,497
902.283875,491
902.400085,481
902.516418,509
902.632629,505
902.74884,522
902.865112,490
902.981384,509
903.097595,497
903.213867,492
903.330017,489
903.446289,491
903.5625,489
903.67865,488
903.794922,479
903.911072,486
904.027344,482
904.143494,484
904.259705,494
904.375916,486
904.492065,472
904.608215,505
904.724426,479
904.840576,485
904.956726,464
905.072876,506
905.189087,456
905.305176,495
905.421387,474
905.537537,461
905.653687,484
905.769775,471
905.885925,485
906.002014,464
906.118164,472
906.234314,473
906.350403,469
906.466492,481
906.582642,465
906.69873,490
906.814758,458
906.930908,484
907.046936,473
907.163086,479
907.279175,481
907.395264,468
907.511353,454
907.62738,482
907.743408,468
907.859497,468
907.975525,479
908.091553,463
908.207703,463
908.32373,463
908.439758,465
908.555786,451
908.671814,476
908.787842,465
908.90387,489
909.019775,457
909.135864,486
909.251892,483
909.367859,478
909.483826,482
909.599854,476
909.715881,468
909.831848,472
909.947815,483
910.063782,486
910.179749,477
910.295776,479
910.411743,481
910.527649,464
910.643616,484
910.759583,467
910.875488,468
910.991455,472
911.107361,482
911.223267,467
911.339294,496
911.4552,462
911.571106,486
911.687073,477
911.802979,474
911.918823,472
912.034729,480
912.150635,457
912.266602,475
912.382446,477
912.498352,451
912.614197,484
912.730103,473
912.846008,455
792.44574,780
792.56488,821
792.68396,821
792.80304,811
792.92218,741
793.041199,725
793.160339,730
793.279419,719
793.398499,735
793.517578,689
793.636658,703
793.755737,682
793.874817,696
793.993896,702
794.112976,676
794.232056,654
794.351074,670
794.470215,654
794.589233,661
794.708313,662
794.827393,616
794.946411,644
795.065552,625
795.18457,651
795.303589,632
795.422668,629
795.541687,639
795.660767,612
795.779846,608
795.898865,617
796.017883,592
796.136963,600
796.255981,595
796.375061,589
796.49408,580
796.613037,599
796.732117,572
796.851135,596
796.970154,586
797.089233,578
797.208191,570
797.327271,602
797.446228,587
797.565186,583
797.684265,573
797.803223,598
797.922241,570
798.04126,582
798.160278,581
798.279297,580
798.398315,560
798.517273,567
798.636292,582
798.75531,570
798.874268,544
798.993286,550
799.112244,564
799.231323,572
799.350281,576
799.469238,554
799.588257,557
799.707153,551
799.826111,585
799.945129,566
800.064087,568
800.183044,555
800.302063,558
800.421021,535
800.539978,549
800.658936,536
800.777893,558
800.896912,556
801.015747,539
801.134705,536
801.253723,536
801.37262,557
801.491638,527
801.610535,566
801.729492,541
801.84845,538
801.967407,547
802.086243,542
802.205261,561
802.324158,542
802.443115,532
802.562073,548
802.680969,545
802.799927,540
802.918762,542
803.037659,531
803.156677,528
803.275574,511
803.39447,531
803.513428,519
803.632263,530
803.751221,535
803.870117,530
803.989014,531
804.107971,522
804.226746,514
804.345642,540
804.4646,537
804.583496,521
804.702393,535
804.821228,528
804.940125,525
805.059021,527
805.177917,541
805.296814,528
805.415649,525
805.534546,525
805.653442,500
805.772278,520
805.891113,527
806.01001,522
806.128906,525
806.247742,541
806.366577,521
806.485413,541
806.604309,541
806.723145,515
806.84198,515
806.960876,513
807.079712,531
807.198486,545
807.317383,540
807.436218,541
807.554993,533
807.673889,556
807.792725,526
807.91156,525
808.030396,528
808.14917,538
808.268005,490
808.386841,533
808.505676,536
808.624451,528
808.743286,522
808.862122,525
808.980896,523
809.099731,534
809.218506,535
809.337341,527
809.456116,515
809.57489,517
809.693726,516
809.8125,517
809.931274,528
810.050049,535
810.168884,536
810.287659,510
810.406372,531
810.525269,539
810.643982,547
810.762756,526
810.881531,509
811.000305,525
811.11908,516
811.237854,527
811.356567,540
811.475403,540
811.594116,507
811.71283,541
811.831604,509
811.950378,526
812.069153,539
812.187927,519
812.30658,533
812.425415,512
812.544128,519
812.662781,523
812.781616,524
812.900269,518
813.019043,517
813.137756,519
813.256531,525
813.375244,534
813.493896,517
813.612671,519
813.731384,516
813.850037,511
813.96875,506
814.087524,530
814.206238,516
814.324951,512
814.443604,536
814.562256,513
814.68103,538
814.799683,538
814.918335,530
815.037109,511
815.155762,526
815.274475,522
815.393188,516
815.511841,528
815.630554,505
815.749146,508
815.867859,515
815.986572,503
816.105164,498
816.223877,500
816.342529,517
816.461182,516
816.579895,491
816.698486,517
816.817139,514
816.935791,514
817.054504,521
817.173096,511
817.291748,521
817.4104,527
817.529053,491
817.647644,503
817.766235,496
817.884949,505
818.00354,508
818.122192,500
818.240845,517
818.359436,508
818.478088,507
818.59668,506
818.715271,492
818.833923,466
818.952515,489
819.071106,483
819.189758,499
819.30835,494
819.426941,473
819.545532,498
819.664124,472
819.782715,471
819.901306,497
820.019897,483
820.138489,494
820.25708,495
820.375671,482
820.494202,469
820.612732,473
820.731384,510
820.849915,469
820.968506,485
821.087097,481
821.205627,503
821.324158,489
821.442749,467
821.561279,474
821.679871,475
821.798401,484
821.916931,465
822.035461,492
822.154053,480
822.272583,459
822.391174,496
822.509583,468
822.628174,488
822.746704,476
822.865234,477
822.983765,498
823.102295,475
823.220825,478
823.339294,492
823.457825,501
823.576355,488
823.694824,481
823.813354,492
823.931885,473
824.050354,483
824.168884,480
824.287354,461
824.405823,456
824.524353,471
824.642822,490
824.761353,498
824.879822,464
824.998291,479
825.116699,482
825.235291,472
825.353699,468
825.472168,454
825.590637,485
825.709106,471
825.827576,485
825.946045,469
826.064453,482
826.182983,454
826.301392,463
826.4198,470
826.53833,484
826.656738,474
826.775208,477
826.893677,454
827.012024,479
827.130493,490
827.248962,501
827.36731,456
827.485779,460
827.604248,465
827.722595,476
827.841064,472
827.959412,460
828.077942,452
828.196289,482
828.314636,457
828.433105,460
828.551514,475
828.669861,460
828.78833,459
828.906677,464
829.025085,480
829.143433,454
829.261841,484
829.38031,472
829.498657,459
829.617004,466
829.735413,462
829.85376,467
829.972107,468
830.090515,482
830.208862,456
830.327209,470
830.445557,454
830.563904,478
830.682312,462
830.800659,453
830.919006,481
831.037354,491
831.155701,471
831.274048,456
831.392395,458
831.51062,472
831.629028,467
831.747314,461
831.865662,444
831.984009,469
832.102356,475
832.220642,464
832.338928,457
832.457275,487
832.575623,450
832.693909,469
832.812134,467
832.930481,464
833.048828,455
833.167114,466
833.2854,456
833.403687,464
833.521973,468
833.640259,469
833.758545,487
833.876831,440
833.995056,470
834.113281,452
834.231628,467
834.349915,465
834.468201,472
834.586426,478
834.704651,462
834.822998,477
834.941162,475
835.059448,485
835.177673,438
835.295959,467
835.414246,463
835.53241,466
835.650635,472
835.768921,458
835.887146,452
836.005371,474
836.123596,459
836.241821,459
836.360046,443
836.478271,483
836.596497,457
836.714722,476
836.832886,462
836.95105,462
837.069336,473
837.1875,478
837.305725,460
837.423889,464
837.542053,470
837.660339,466
837.778503,485
837.896667,492
838.014832,470
838.132996,477
838.25116,471
838.369385,455
838.487488,472
838.605713,479
838.723877,454
838.84198,481
838.960205,482
839.078308,459
839.196472,443
839.314636,474
839.4328,473
839.550964,466
839.669067,485
839.787231,477
839.905396,471
840.023499,479
840.141602,485
840.259766,471
840.377869,484
840.495972,474
840.614136,485
840.732239,473
840.850342,481
840.968445,493
841.086548,495
841.204651,477
841.322754,484
841.440918,473
841.55896,477
841.677002,480
841.795166,478
841.913208,487
842.031311,495
842.149353,495
842.267456,479
842.385498,477
842.503601,485
842.621643,473
842.739746,482
842.857788,473
842.97583,460
843.093933,471
843.211975,455
843.330017,481
843.44812,467
843.566101,486
843.684204,481
843.802246,492
843.920227,484
844.038269,483
844.156311,483
844.274292,480
844.392395,488
844.510376,478
844.628357,466
844.74646,470
844.864441,471
844.982422,486
845.100403,474
845.218384,481
845.336426,467
845.454468,484
845.572449,468
845.69043,491
845.808411,470
845.926453,464
846.044373,481
846.162354,481
846.280396,481
846.398315,499
846.516296,473
846.634216,476
846.752197,474
846.870178,470
846.988098,484
847.106079,475
847.22406,461
847.34198,500
847.4599,458
847.577881,482
847.695801,485
847.813782,479
847.931641,477
848.049561,475
848.167603,479
848.285461,462
848.403381,472
848.521362,481
848.639221,465
848.75708,462
848.875,476
848.99292,472
849.110901,477
849.22876,470
849.34668,505
849.464539,497
849.582458,453
849.700317,482
849.818176,470
849.936096,476
850.053955,488
850.171875,497
850.289673,495
850.407593,465
850.525452,482
850.643311,486
850.761169,475
850.878967,464
850.996887,479
851.114746,479
851.232544,482
851.350403,469
851.468262,469
851.58606,480
851.703979,472
851.821777,491
851.939636,464
852.057434,464
852.175232,498
852.293091,480
852.410889,502
852.528687,474
852.646545,509
852.764343,509
852.88208,464
852.999939,468
853.117676,471
853.235535,486
853.353271,493
853.471069,471
853.588928,487
853.706604,480
853.824402,469
853.9422,464
854.059998,473
854.177734,499
854.295532,488
854.413269,487
854.531006,457
854.648804,486
854.766541,464
854.884277,497
855.002014,478
855.119751,501
855.237549,463
855.355225,479
855.473022,478
855.590698,486
855.708435,482
855.826172,480
855.943848,468
856.061646,505
856.179321,463
856.296997,474
856.414795,464
856.53241,494
856.650085,466
856.767822,485
856.885559,477
857.003174,475
857.120911,468
857.238586,494
857.356201,479
857.473938,488
857.591614,485
857.709351,477
857.826965,503
857.944641,485
858.062317,480
858.179993,522
858.297668,482
858.415283,511
858.532959,512
858.650574,488
858.768188,482
858.885803,483
859.003479,486
859.121094,481
859.23877,478
859.356384,501
859.473999,492
859.591675,478
859.709229,474
859.826843,473
859.944458,484
860.062012,474
860.179626,470
860.297302,488
860.414856,467
860.532471,456
860.650024,460
860.767639,482
860.885193,461
861.002808,472
861.120361,481
861.237976,477
861.35553,470
861.473022,484
861.590698,473
861.708191,486
861.825745,478
861.943298,456
862.060852,484
862.178406,486
862.295959,459
862.413513,476
862.531006,457
862.64856,476
862.766113,453
862.883667,469
863.00116,462
863.118713,479
863.236206,463
863.353699,462
863.471252,491
863.588745,476
863.706177,462
863.82373,456
863.941162,474
864.058716,471
864.176208,474
864.29364,505
864.411194,473
864.528687,463
864.646118,478
864.763611,453
864.881042,455
864.998535,463
865.116028,487
865.233459,462
865.350891,460
865.468384,480
865.585754,488
865.703308,472
865.820679,481
865.938171,485
866.055542,488
866.173035,484
866.290466,472
866.407837,462
866.52533,466
866.6427,469
866.760071,493
866.877563,458
866.994934,468
867.112305,466
867.229736,485
867.347107,482
867.464539,462
867.58197,491
867.699341,488
867.81665,485
867.934082,472
868.051453,474
868.168823,482
868.286194,466
868.403564,483
868.520935,478
868.638306,455
868.755676,468
868.872986,471
868.990295,486
869.107727,465
869.225037,483
869.342346,476
869.459717,483
869.577026,502
869.694336,493
869.811707,489
869.929016,489
870.046326,475
870.163635,473
870.280945,486
870.398254,474
870.515564,497
870.632812,475
870.750183,494
870.867432,479
870.984741,488
871.102051,485
871.219299,495
871.336609,496
871.453918,485
871.571106,498
871.688416,497
871.805664,488
871.922852,498
872.040222,486
872.157471,497
872.274719,501
872.391968,488
872.509155,491
872.626465,514
872.743652,510
872.860962,492
872.978149,469
873.095337,486
873.212646,497
873.329834,475
873.44696,501
873.564209,464
873.681396,486
873.798645,487
873.915894,479
874.03302,473
874.150208,475
874.267456,495
874.384583,494
874.501831,479
874.618958,498
874.736145,512
874.853333,485
874.970459,493
875.087646,494
875.204834,492
875.32196,508
875.439148,476
875.556274,481
875.673401,497
875.790527,505
875.907715,482
876.024841,494
876.141968,497
876.259094,486
876.376282,490
876.493347,473
876.610474,483
876.7276,482
876.844727,485
876.961853,488
877.078918,484
877.195984,483
877.313171,503
877.430237,496
877.547302,478
877.664368,492
877.781433,485
877.898499,503
878.015625,467
878.13269,470
878.249695,479
878.366821,480
878.483887,480
878.600952,481
878.717957,482
878.834961,468
878.952087,459
879.069092,479
879.186157,479
879.303162,473
879.420227,467
879.537231,463
879.654236,453
879.77124,460
879.888306,482
880.005249,466
880.122314,471
880.239319,472
880.356323,468
880.473328,485
880.590271,473
880.707275,460
880.824341,468
880.941284,474
881.058228,458
881.175232,469
881.292236,456
881.40918,477
881.526123,474
881.643066,475
881.760071,460
881.877014,479
881.993958,484
882.11084,490
882.227783,473
882.344727,482
882.46167,474
882.578613,459
882.695618,463
882.812439,450
882.929382,474
883.046326,479
883.163208,464
883.280151,468
883.397034,461
883.513916,461
883.630798,477
883.747742,482
883.864563,490
883.981506,477
884.098389,474
884.21521,473
884.332153,475
884.448975,494
884.565796,493
884.682678,500
884.7995,495
884.916443,505
885.033264,506
885.150085,503
885.266968,503
885.383789,547
885.500671,522
885.617493,529
885.734314,514
885.851196,521
885.967896,508
886.084717,530
886.201599,509
886.318359,515
886.435181,522
886.552002,512
886.668762,507
886.785645,507
886.902344,527
887.019165,503
887.135925,496
887.252747,495
887.369446,497
887.486267,502
887.603027,510
887.719788,489
887.836548,506
887.953247,479
888.070068,485
888.186829,468
888.303528,489
888.420288,477
888.536987,450
888.653687,456
888.770447,462
888.887146,480
889.003967,476
889.120667,482
889.237305,472
889.354065,477
889.470703,462
889.587463,461
889.704163,467
889.820862,474
889.937561,463
890.054199,460
890.170837,464
890.287598,477
890.404236,458
890.520874,455
890.637634,471
890.754211,462
890.87085,481
890.987549,475
891.104187,480
891.220886,476
891.337463,476
891.454102,474
891.57074,471
891.687378,457
891.804077,480
891.920654,469
892.037231,480
892.15387,478
892.270447,477
892.387085,466
892.503723,458
892.6203,475
892.736877,483
892.853516,483
892.970032,493
893.08667,455
893.203186,458
893.319763,481
893.43634,466
893.552917,469
893.669556,465
893.786011,489
893.902588,461
894.019165,469
894.135681,473
894.252197,482
894.368835,468
894.485291,462
894.601868,493
894.718384,447
894.8349,463
894.951355,465
895.067932,480
895.184448,469
895.300964,482
895.417419,476
895.533936,468
895.650452,462
895.766907,484
895.883423,485
895.999878,478
896.116333,487
896.232849,464
896.349304,483
896.465759,467
896.582214,484
896.698669,468
896.815125,489
896.931641,470
897.048035,478
897.164551,465
897.280884,462
897.397339,480
897.513794,461
897.630249,471
897.746582,476
897.863098,468
897.979431,452
898.095886,454
898.212341,486
898.328674,473
898.445129,471
898.561462,464
898.677795,485
898.794312,479
898.910645,468
899.026978,468
899.143433,467
899.259766,466
899.37616,472
899.492493,479
899.608765,476
899.725159,466
899.841553,477
899.957947,469
900.07428,485
900.190552,469
900.306946,479
900.423157,470
900.53949,482
900.655884,487
900.772156,488
900.888489,477
901.004822,473
901.121033,461
901.237366,477
901.353699,482
901.46991,455
901.586304,479
901.702515,465
901.818787,481
901.93512,491
902.051331,486
902.167603,480
902.283875,519
902.400085,518
902.516418,510
902.632629,515
902.74884,502
902.865112,519
902.981384,513
903.097595,504
903.213867,496
903.330017,503
903.446289,485
903.5625,506
903.67865,505
903.794922,510
903.911072,470
904.027344,502
904.143494,501
904.259705,487
904.375916,477
904.492065,459
904.608215,484
904.724426,501
904.840576,478
904.956726,496
905.072876,462
905.189087,475
905.305176,483
905.421387,479
905.537537,472
905.653687,475
905.769775,463
905.885925,475
906.002014,501
906.118164,469
906.234314,469
906.350403,480
906.466492,481
906.582642,472
906.69873,475
906.814758,473
906.930908,479
907.046936,484
907.163086,484
907.279175,470
907.395264,487
907.511353,483
907.62738,468
907.743408,464
907.859497,467
907.975525,457
908.091553,471
908.207703,486
908.32373,448
908.439758,459
908.555786,485
908.671814,482
908.787842,458
908.90387,479
909.019775,461
909.135864,463
909.251892,486
909.367859,472
909.483826,480
909.599854,473
909.715881,463
909.831848,501
909.947815,467
910.063782,470
910.179749,502
910.295776,466
910.411743,472
910.527649,493
910.643616,473
910.759583,466
910.875488,475
910.991455,464
911.107361,488
911.223267,471
911.339294,459
911.4552,474
911.571106,460
911.687073,489
911.802979,484
911.918823,495
912.034729,477
912.150635,470
912.266602,492
912.382446,465
912.498352,458
912.614197,464
912.730103,469
912.846008,484
