792.44574,786
792.56488,781
792.68396,818
792.80304,774
792.92218,722
793.041199,721
793.160339,716
793.279419,698
793.398499,697
793.517578,665
793.636658,702
793.755737,677
793.874817,689
793.993896,680
794.112976,633
794.232056,649
794.351074,661
794.470215,653
794.589233,633
794.708313,625
794.827393,597
794.946411,601
795.065552,620
795.18457,621
795.303589,610
795.422668,597
795.541687,630
795.660767,623
795.779846,638
795.898865,599
796.017883,621
796.136963,581
796.255981,582
796.375061,599
796.49408,592
796.613037,587
796.732117,571
796.851135,557
796.970154,590
797.089233,566
797.208191,577
797.327271,550
797.446228,557
797.565186,557
797.684265,559
797.803223,558
797.922241,563
798.04126,579
798.160278,546
798.279297,541
798.398315,556
798.517273,534
798.636292,554
798.75531,545
798.874268,547
798.993286,548
799.112244,554
799.231323,545
799.350281,545
799.469238,528
799.588257,565
799.707153,525
799.826111,551
799.945129,549
800.064087,531
800.183044,545
800.302063,539
800.421021,525
800.539978,558
800.658936,533
800.777893,545
800.896912,520
801.015747,552
801.134705,509
801.253723,513
801.37262,536
801.491638,550
801.610535,552
801.729492,542
801.84845,529
801.967407,537
802.086243,536
802.205261,550
802.324158,544
802.443115,537
802.562073,540
802.680969,538
802.799927,523
802.918762,519
803.037659,521
803.156677,502
803.275574,529
803.39447,512
803.513428,516
803.632263,537
803.751221,534
803.870117,519
803.989014,535
804.107971,553
804.226746,527
804.345642,507
804.4646,522
804.583496,514
804.702393,528
804.821228,528
804.940125,517
805.059021,539
805.177917,529
805.296814,519
805.415649,517
805.534546,538
805.653442,519
805.772278,544
805.891113,498
806.01001,510
806.128906,531
806.247742,534
806.366577,506
806.485413,500
806.604309,497
806.723145,527
806.84198,517
806.960876,505
807.079712,508
807.198486,512
807.317383,526
807.436218,526
807.554993,514
807.673889,505
807.792725,522
807.91156,511
808.030396,525
808.14917,528
808.268005,518
808.386841,526
808.505676,513
808.624451,532
808.743286,516
808.862122,515
808.980896,514
809.099731,506
809.218506,538
809.337341,518
809.456116,514
809.57489,521
809.693726,513
809.8125,493
809.931274,513
810.050049,534
810.168884,515
810.287659,533
810.406372,502
810.525269,526
810.643982,507
810.762756,507
810.881531,513
811.000305,523
811.11908,534
811.237854,527
811.356567,523
811.475403,502
811.594116,520
811.71283,516
811.831604,533
811.950378,519
812.069153,500
812.187927,514
812.30658,528
812.425415,515
812.544128,515
812.662781,541
812.781616,518
812.900269,515
813.019043,516
813.137756,526
813.256531,530
813.375244,520
813.493896,498
813.612671,493
813.731384,515
813.850037,525
813.96875,515
814.087524,510
814.206238,528
814.324951,503
814.443604,488
814.562256,522
814.68103,505
814.799683,505
814.918335,502
815.037109,491
815.155762,496
815.274475,538
815.393188,500
815.511841,494
815.630554,506
815.749146,521
815.867859,488
815.986572,490
816.105164,498
816.223877,518
816.342529,497
816.461182,506
816.579895,492
816.698486,506
816.817139,498
816.935791,509
817.054504,515
817.173096,495
817.291748,494
817.4104,491
817.529053,492
817.647644,494
817.766235,507
817.884949,499
818.00354,493
818.122192,488
818.240845,496
818.359436,491
818.478088,488
818.59668,504
818.715271,480
818.833923,498
818.952515,484
819.071106,504
819.189758,488
819.30835,471
819.426941,498
819.545532,479
819.664124,457
819.782715,492
819.901306,481
820.019897,492
820.138489,483
820.25708,483
820.375671,483
820.494202,507
820.612732,476
820.731384,477
820.849915,459
820.968506,478
821.087097,487
821.205627,497
821.324158,467
821.442749,487
821.561279,476
821.679871,476
821.798401,478
821.916931,475
822.035461,487
822.154053,487
822.272583,453
822.391174,472
822.509583,453
822.628174,481
822.746704,468
822.865234,466
822.983765,464
823.102295,475
823.220825,449
823.339294,483
823.457825,463
823.576355,475
823.694824,456
823.813354,468
823.931885,462
824.050354,480
824.168884,479
824.287354,485
824.405823,478
824.524353,477
824.642822,472
824.761353,482
824.879822,475
824.998291,483
825.116699,485
825.235291,484
825.353699,464
825.472168,467
825.590637,473
825.709106,451
825.827576,485
825.946045,471
826.064453,473
826.182983,477
826.301392,452
826.4198,460
826.53833,471
826.656738,462
826.775208,466
826.893677,469
827.012024,470
827.130493,453
827.248962,462
827.36731,479
827.485779,451
827.604248,488
827.722595,461
827.841064,461
827.959412,468
828.077942,462
828.196289,466
828.314636,437
828.433105,462
828.551514,477
828.669861,462
828.78833,457
828.906677,474
829.025085,465
829.143433,471
829.261841,471
829.38031,437
829.498657,454
829.617004,466
829.735413,475
829.85376,455
829.972107,458
830.090515,473
830.208862,457
830.327209,450
830.445557,470
830.563904,452
830.682312,446
830.800659,453
830.919006,473
831.037354,451
831.155701,464
831.274048,454
831.392395,484
831.51062,455
831.629028,457
831.747314,461
831.865662,470
831.984009,468
832.102356,483
832.220642,468
832.338928,475
832.457275,454
832.575623,460
832.693909,462
832.812134,474
832.930481,472
833.048828,468
833.167114,470
833.2854,466
833.403687,461
833.521973,461
833.640259,448
833.758545,473
833.876831,498
833.995056,461
834.113281,463
834.231628,470
834.349915,456
834.468201,469
834.586426,455
834.704651,461
834.822998,442
834.941162,478
835.059448,463
835.177673,466
835.295959,451
835.414246,491
835.53241,467
835.650635,466
835.768921,464
835.887146,475
836.005371,465
836.123596,459
836.241821,439
836.360046,452
836.478271,462
836.596497,458
836.714722,460
836.832886,474
836.95105,457
837.069336,478
837.1875,458
837.305725,470
837.423889,443
837.542053,470
837.660339,455
837.778503,461
837.896667,472
838.014832,467
838.132996,467
838.25116,461
838.369385,467
838.487488,467
838.605713,476
838.723877,455
838.84198,459
838.960205,464
839.078308,471
839.196472,457
839.314636,454
839.4328,462
839.550964,471
839.669067,456
839.787231,468
839.905396,483
840.023499,454
840.141602,482
840.259766,471
840.377869,472
840.495972,470
840.614136,462
840.732239,472
840.850342,471
840.968445,476
841.086548,462
841.204651,474
841.322754,474
841.440918,472
841.55896,492
841.677002,485
841.795166,477
841.913208,468
842.031311,480
842.149353,472
842.267456,482
842.385498,490
842.503601,490
842.621643,477
842.739746,492
842.857788,466
842.97583,474
843.093933,463
843.211975,477
843.330017,493
843.44812,492
843.566101,474
843.684204,501
843.802246,456
843.920227,484
844.038269,490
844.156311,479
844.274292,482
844.392395,486
844.510376,461
844.628357,468
844.74646,474
844.864441,472
844.982422,475
845.100403,475
845.218384,470
845.336426,470
845.454468,485
845.572449,469
845.69043,464
845.808411,456
845.926453,471
846.044373,462
846.162354,468
846.280396,474
846.398315,460
846.516296,487
846.634216,474
846.752197,492
846.870178,465
846.988098,487
847.106079,471
847.22406,481
847.34198,462
847.4599,502
847.577881,479
847.695801,443
847.813782,461
847.931641,489
848.049561,475
848.167603,473
848.285461,465
848.403381,478
848.521362,464
848.639221,477
848.75708,459
848.875,466
848.99292,472
849.110901,474
849.22876,469
849.34668,496
849.464539,474
849.582458,483
849.700317,463
849.818176,478
849.936096,470
850.053955,476
850.171875,469
850.289673,463
850.407593,459
850.525452,474
850.643311,482
850.761169,483
850.878967,442
850.996887,460
851.114746,466
851.232544,462
851.350403,488
851.468262,493
851.58606,470
851.703979,471
851.821777,475
851.939636,485
852.057434,478
852.175232,463
852.293091,479
852.410889,463
852.528687,467
852.646545,472
852.764343,496
852.88208,502
852.999939,471
853.117676,488
853.235535,467
853.353271,475
853.471069,477
853.588928,456
853.706604,488
853.824402,472
853.9422,455
854.059998,490
854.177734,473
854.295532,474
854.413269,467
854.531006,478
854.648804,471
854.766541,489
854.884277,502
855.002014,490
855.119751,460
855.237549,471
855.355225,457
855.473022,483
855.590698,464
855.708435,470
855.826172,452
855.943848,490
856.061646,466
856.179321,471
856.296997,485
856.414795,479
856.53241,461
856.650085,490
856.767822,472
856.885559,480
857.003174,467
857.120911,503
857.238586,508
857.356201,475
857.473938,468
857.591614,479
857.709351,462
857.826965,481
857.944641,485
858.062317,456
858.179993,490
858.297668,490
858.415283,497
858.532959,497
858.650574,478
858.768188,471
858.885803,474
859.003479,463
859.121094,460
859.23877,475
859.356384,475
859.473999,471
859.591675,499
859.709229,457
859.826843,471
859.944458,488
860.062012,470
860.179626,461
860.297302,474
860.414856,460
860.532471,473
860.650024,470
860.767639,469
860.885193,470
861.002808,457
861.120361,479
861.237976,465
861.35553,480
861.473022,471
861.590698,478
861.708191,465
861.825745,483
861.943298,484
862.060852,478
862.178406,450
862.295959,482
862.413513,466
862.531006,492
862.64856,490
862.766113,471
862.883667,461
863.00116,484
863.118713,472
863.236206,481
863.353699,473
863.471252,481
863.588745,451
863.706177,492
863.82373,453
863.941162,471
864.058716,458
864.176208,468
864.29364,463
864.411194,456
864.528687,460
864.646118,456
864.763611,455
864.881042,479
864.998535,454
865.116028,463
865.233459,465
865.350891,463
865.468384,457
865.585754,473
865.703308,459
865.820679,464
865.938171,473
866.055542,477
866.173035,456
866.290466,463
866.407837,448
866.52533,454
866.6427,464
866.760071,467
866.877563,465
866.994934,471
867.112305,477
867.229736,475
867.347107,458
867.464539,484
867.58197,470
867.699341,474
867.81665,469
867.934082,494
868.051453,458
868.168823,486
868.286194,464
868.403564,478
868.520935,471
868.638306,487
868.755676,467
868.872986,465
868.990295,475
869.107727,496
869.225037,466
869.342346,483
869.459717,462
869.577026,476
869.694336,484
869.811707,487
869.929016,484
870.046326,464
870.163635,503
870.280945,470
870.398254,486
870.515564,488
870.632812,469
870.750183,493
870.867432,501
870.984741,479
871.102051,479
871.219299,477
871.336609,489
871.453918,496
871.571106,498
871.688416,484
871.805664,499
871.922852,473
872.040222,481
872.157471,492
872.274719,488
872.391968,494
872.509155,482
872.626465,481
872.743652,473
872.860962,482
872.978149,483
873.095337,487
873.212646,476
873.329834,460
873.44696,462
873.564209,485
873.681396,490
873.798645,484
873.915894,480
874.03302,462
874.150208,480
874.267456,487
874.384583,486
874.501831,491
874.618958,485
874.736145,502
874.853333,488
874.970459,488
875.087646,495
875.204834,505
875.32196,477
875.439148,478
875.556274,486
875.673401,478
875.790527,478
875.907715,481
876.024841,451
876.141968,483
876.259094,501
876.376282,482
876.493347,452
876.610474,492
876.7276,475
876.844727,476
876.961853,461
877.078918,467
877.195984,478
877.313171,498
877.430237,482
877.547302,476
877.664368,478
877.781433,462
877.898499,484
878.015625,482
878.13269,453
878.249695,495
878.366821,466
878.483887,471
878.600952,452
878.717957,474
878.834961,459
878.952087,467
879.069092,466
879.186157,467
879.303162,457
879.420227,486
879.537231,457
879.654236,474
879.77124,454
879.888306,470
880.005249,455
880.122314,483
880.239319,471
880.356323,452
880.473328,465
880.590271,459
880.707275,477
880.824341,461
880.941284,483
881.058228,477
881.175232,452
881.292236,456
881.40918,466
881.526123,459
881.643066,466
881.760071,477
881.877014,475
881.993958,482
882.11084,487
882.227783,479
882.344727,462
882.46167,462
882.578613,473
882.695618,467
882.812439,483
882.929382,457
883.046326,472
883.163208,460
883.280151,451
883.397034,480
883.513916,462
883.630798,485
883.747742,471
883.864563,470
883.981506,465
884.098389,466
884.21521,495
884.332153,490
884.448975,454
884.565796,490
884.682678,480
884.7995,484
884.916443,496
885.033264,476
885.150085,499
885.266968,505
885.383789,513
885.500671,517
885.617493,519
885.734314,506
885.851196,517
885.967896,525
886.084717,523
886.201599,512
886.318359,501
886.435181,520
886.552002,515
886.668762,496
886.785645,501
886.902344,500
887.019165,480
887.135925,512
887.252747,513
887.369446,497
887.486267,494
887.603027,502
887.719788,493
887.836548,490
887.953247,486
888.070068,474
888.186829,470
888.303528,464
888.420288,480
888.536987,471
888.653687,480
888.770447,476
888.887146,460
889.003967,472
889.120667,449
889.237305,474
889.354065,466
889.470703,455
889.587463,476
889.704163,458
889.820862,462
889.937561,461
890.054199,453
890.170837,471
890.287598,468
890.404236,471
890.520874,447
890.637634,473
890.754211,480
890.87085,455
890.987549,462
891.104187,489
891.220886,453
891.337463,465
891.454102,467
891.57074,474
891.687378,465
891.804077,496
891.920654,459
892.037231,459
892.15387,466
892.270447,461
892.387085,471
892.503723,457
892.6203,454
892.736877,455
892.853516,450
892.970032,452
893.08667,470
893.203186,461
893.319763,459
893.43634,480
893.552917,459
893.669556,481
893.786011,457
893.902588,470
894.019165,456
894.135681,464
894.252197,458
894.368835,480
894.485291,462
894.601868,452
894.718384,462
894.8349,484
894.951355,460
895.067932,478
895.184448,446
895.300964,465
895.417419,478
895.533936,461
895.650452,469
895.766907,477
895.883423,461
895.999878,472
896.116333,453
896.232849,483
896.349304,438
896.465759,463
896.582214,470
896.698669,452
896.815125,471
896.931641,458
897.048035,464
897.164551,473
897.280884,465
897.397339,464
897.513794,463
897.630249,496
897.746582,456
897.863098,480
897.979431,478
898.095886,475
898.212341,448
898.328674,474
898.445129,453
898.561462,468
898.677795,457
898.794312,451
898.910645,450
899.026978,457
899.143433,446
899.259766,472
899.37616,458
899.492493,463
899.608765,450
899.725159,490
899.841553,465
899.957947,456
900.07428,453
900.190552,472
900.306946,455
900.423157,474
900.53949,469
900.655884,467
900.772156,474
900.888489,469
901.004822,457
901.121033,479
901.237366,484
901.353699,462
901.46991,485
901.586304,459
901.702515,465
901.818787,489
901.93512,474
902.051331,485
902.167603,494
902.283875,503
902.400085,499
902.516418,491
902.632629,520
902.74884,489
902.865112,477
902.981384,507
903.097595,500
903.213867,519
903.330017,488
903.446289,478
903.5625,486
903.67865,507
903.794922,498
903.911072,464
904.027344,494
904.143494,486
904.259705,488
904.375916,482
904.492065,499
904.608215,477
904.724426,470
904.840576,481
904.956726,457
905.072876,487
905.189087,472
905.305176,466
905.421387,466
905.537537,481
905.653687,453
905.769775,472
905.885925,489
906.002014,472
906.118164,459
906.234314,466
906.350403,486
906.466492,478
906.582642,448
906.69873,482
906.814758,481
906.930908,464
907.046936,469
907.163086,467
907.279175,457
907.395264,458
907.511353,467
907.62738,473
907.743408,464
907.859497,459
907.975525,462
908.091553,475
908.207703,463
908.32373,459
908.439758,456
908.555786,473
908.671814,486
908.787842,459
908.90387,474
909.019775,470
909.135864,463
909.251892,471
909.367859,458
909.483826,468
909.599854,472
909.715881,474
909.831848,471
909.947815,456
910.063782,476
910.179749,491
910.295776,482
910.411743,471
910.527649,479
910.643616,472
910.759583,485
910.875488,467
910.991455,455
911.107361,490
911.223267,473
911.339294,474
911.4552,459
911.571106,495
911.687073,494
911.802979,500
911.918823,465
912.034729,485
912.150635,488
912.266602,473
912.382446,468
912.498352,482
912.614197,484
912.730103,488
912.846008,462
792.44574,777
792.56488,815
792.68396,845
792.80304,802
792.92218,761
793.041199,737
793.160339,701
793.279419,727
793.398499,706
793.517578,667
793.636658,677
793.755737,688
793.874817,692
793.993896,680
794.112976,653
794.232056,637
794.351074,658
794.470215,634
794.589233,653
794.708313,629
794.827393,642
794.946411,640
795.065552,611
795.18457,637
795.303589,619
795.422668,604
795.541687,629
795.660767,623
795.779846,617
795.898865,601
796.017883,608
796.136963,606
796.255981,611
796.375061,580
796.49408,605
796.613037,570
796.732117,586
796.851135,576
796.970154,594
797.089233,572
797.208191,585
797.327271,551
797.446228,560
797.565186,571
797.684265,596
797.803223,572
797.922241,561
798.04126,547
798.160278,575
798.279297,555
798.398315,563
798.517273,563
798.636292,561
798.75531,567
798.874268,559
798.993286,553
799.112244,564
799.231323,549
799.350281,563
799.469238,536
799.588257,555
799.707153,548
799.826111,563
799.945129,549
800.064087,564
800.183044,541
800.302063,536
800.421021,534
800.539978,538
800.658936,549
800.777893,562
800.896912,536
801.015747,545
801.134705,528
801.253723,531
801.37262,533
801.491638,536
801.610535,533
801.729492,551
801.84845,527
801.967407,568
802.086243,528
802.205261,511
802.324158,508
802.443115,541
802.562073,529
802.680969,549
802.799927,532
802.918762,548
803.037659,509
803.156677,524
803.275574,531
803.39447,525
803.513428,512
803.632263,535
803.751221,510
803.870117,543
803.989014,530
804.107971,534
804.226746,514
804.345642,536
804.4646,549
804.583496,529
804.702393,521
804.821228,526
804.940125,532
805.059021,538
805.177917,526
805.296814,525
805.415649,532
805.534546,532
805.653442,520
805.772278,519
805.891113,523
806.01001,539
806.128906,523
806.247742,531
806.366577,516
806.485413,538
806.604309,534
806.723145,518
806.84198,539
806.960876,501
807.079712,516
807.198486,535
807.317383,518
807.436218,515
807.554993,525
807.673889,522
807.792725,509
807.91156,524
808.030396,516
808.14917,509
808.268005,519
808.386841,511
808.505676,522
808.624451,522
808.743286,526
808.862122,521
808.980896,507
809.099731,526
809.218506,511
809.337341,528
809.456116,504
809.57489,526
809.693726,513
809.8125,535
809.931274,515
810.050049,518
810.168884,523
810.287659,524
810.406372,525
810.525269,496
810.643982,504
810.762756,521
810.881531,523
811.000305,514
811.11908,534
811.237854,518
811.356567,513
811.475403,525
811.594116,511
811.71283,520
811.831604,526
811.950378,530
812.069153,512
812.187927,512
812.30658,518
812.425415,525
812.544128,509
812.662781,523
812.781616,517
812.900269,520
813.019043,537
813.137756,517
813.256531,521
813.375244,526
813.493896,506
813.612671,495
813.731384,514
813.850037,539
813.96875,516
814.087524,546
814.206238,495
814.324951,514
814.443604,505
814.562256,519
814.68103,498
814.799683,523
814.918335,518
815.037109,509
815.155762,514
815.274475,495
815.393188,501
815.511841,510
815.630554,509
815.749146,511
815.867859,506
815.986572,514
816.105164,502
816.223877,513
816.342529,516
816.461182,508
816.579895,528
816.698486,523
816.817139,504
816.935791,502
817.054504,507
817.173096,512
817.291748,515
817.4104,509
817.529053,485
817.647644,508
817.766235,522
817.884949,503
818.00354,473
818.122192,496
818.240845,475
818.359436,511
818.478088,483
818.59668,495
818.715271,470
818.833923,492
818.952515,482
819.071106,483
819.189758,501
819.30835,481
819.426941,464
819.545532,489
819.664124,467
819.782715,480
819.901306,477
820.019897,460
820.138489,466
820.25708,478
820.375671,480
820.494202,492
820.612732,483
820.731384,493
820.849915,470
820.968506,482
821.087097,465
821.205627,497
821.324158,474
821.442749,485
821.561279,486
821.679871,491
821.798401,492
821.916931,463
822.035461,477
822.154053,472
822.272583,473
822.391174,469
822.509583,466
822.628174,470
822.746704,464
822.865234,465
822.983765,463
823.102295,462
823.220825,461
823.339294,488
823.457825,467
823.576355,468
823.694824,459
823.813354,465
823.931885,474
824.050354,460
824.168884,460
824.287354,467
824.405823,479
824.524353,478
824.642822,450
824.761353,462
824.879822,487
824.998291,463
825.116699,473
825.235291,491
825.353699,463
825.472168,468
825.590637,474
825.709106,455
825.827576,437
825.946045,468
826.064453,470
826.182983,471
826.301392,476
826.4198,453
826.53833,447
826.656738,490
826.775208,470
826.893677,469
827.012024,479
827.130493,484
827.248962,457
827.36731,491
827.485779,481
827.604248,477
827.722595,444
827.841064,489
827.959412,483
828.077942,460
828.196289,465
828.314636,449
828.433105,457
828.551514,469
828.669861,454
828.78833,470
828.906677,456
829.025085,457
829.143433,451
829.261841,476
829.38031,449
829.498657,476
829.617004,487
829.735413,457
829.85376,458
829.972107,453
830.090515,458
830.208862,461
830.327209,467
830.445557,467
830.563904,477
830.682312,487
830.800659,469
830.919006,474
831.037354,449
831.155701,458
831.274048,464
831.392395,479
831.51062,459
831.629028,465
831.747314,469
831.865662,487
831.984009,473
832.102356,464
832.220642,483
832.338928,463
832.457275,461
832.575623,500
832.693909,472
832.812134,469
832.930481,458
833.048828,466
833.167114,457
833.2854,453
833.403687,467
833.521973,468
833.640259,441
833.758545,482
833.876831,482
833.995056,456
834.113281,469
834.231628,463
834.349915,455
834.468201,466
834.586426,456
834.704651,442
834.822998,464
834.941162,464
835.059448,477
835.177673,477
835.295959,449
835.414246,466
835.53241,481
835.650635,459
835.768921,458
835.887146,478
836.005371,472
836.123596,465
836.241821,449
836.360046,483
836.478271,448
836.596497,461
836.714722,470
836.832886,469
836.95105,457
837.069336,463
837.1875,453
837.305725,472
837.423889,457
837.542053,465
837.660339,464
837.778503,457
837.896667,458
838.014832,461
838.132996,465
838.25116,479
838.369385,472
838.487488,473
838.605713,468
838.723877,468
838.84198,477
838.960205,465
839.078308,455
839.196472,472
839.314636,475
839.4328,490
839.550964,462
839.669067,475
839.787231,453
839.905396,482
840.023499,475
840.141602,464
840.259766,483
840.377869,493
840.495972,479
840.614136,475
840.732239,473
840.850342,461
840.968445,474
841.086548,480
841.204651,475
841.322754,500
841.440918,470
841.55896,479
841.677002,478
841.795166,488
841.913208,471
842.031311,495
842.149353,482
842.267456,484
842.385498,462
842.503601,476
842.621643,467
842.739746,479
842.857788,487
842.97583,480
843.093933,470
843.211975,485
843.330017,481
843.44812,488
843.566101,466
843.684204,468
843.802246,491
843.920227,461
844.038269,496
844.156311,482
844.274292,491
844.392395,475
844.510376,484
844.628357,464
844.74646,479
844.864441,483
844.982422,473
845.100403,475
845.218384,453
845.336426,497
845.454468,484
845.572449,461
845.69043,458
845.808411,477
845.926453,468
846.044373,469
846.162354,458
846.280396,477
846.398315,478
846.516296,456
846.634216,462
846.752197,496
846.870178,478
846.988098,466
847.106079,457
847.22406,474
847.34198,475
847.4599,490
847.577881,463
847.695801,488
847.813782,480
847.931641,461
848.049561,476
848.167603,471
848.285461,464
848.403381,475
848.521362,490
848.639221,475
848.75708,472
848.875,481
848.99292,485
849.110901,481
849.22876,471
849.34668,486
849.464539,476
849.582458,484
849.700317,468
849.818176,460
849.936096,476
850.053955,485
850.171875,483
850.289673,471
850.407593,457
850.525452,472
850.643311,488
850.761169,488
850.878967,484
850.996887,488
851.114746,477
851.232544,465
851.350403,463
851.468262,461
851.58606,465
851.703979,479
851.821777,448
851.939636,474
852.057434,486
852.175232,480
852.293091,471
852.410889,488
852.528687,499
852.646545,507
852.764343,486
852.88208,514
852.999939,483
853.117676,479
853.235535,476
853.353271,469
853.471069,475
853.588928,478
853.706604,471
853.824402,487
853.9422,499
854.059998,475
854.177734,457
854.295532,475
854.413269,488
854.531006,483
854.648804,463
854.766541,485
854.884277,460
855.002014,482
855.119751,477
855.237549,489
855.355225,473
855.473022,502
855.590698,469
855.708435,487
855.826172,482
855.943848,493
856.061646,481
856.179321,485
856.296997,478
856.414795,498
856.53241,489
856.650085,485
856.767822,469
856.885559,472
857.003174,479
857.120911,491
857.238586,458
857.356201,465
857.473938,492
857.591614,497
857.709351,490
857.826965,503
857.944641,464
858.062317,471
858.179993,497
858.297668,502
858.415283,489
858.532959,487
858.650574,482
858.768188,492
858.885803,494
859.003479,471
859.121094,481
859.23877,505
859.356384,473
859.473999,481
859.591675,467
859.709229,497
859.826843,486
859.944458,469
860.062012,473
860.179626,482
860.297302,466
860.414856,451
860.532471,474
860.650024,469
860.767639,463
860.885193,478
861.002808,474
861.120361,467
861.237976,445
861.35553,487
861.473022,474
861.590698,491
861.708191,478
861.825745,475
861.943298,466
862.060852,490
862.178406,461
862.295959,476
862.413513,467
862.531006,452
862.64856,459
862.766113,471
862.883667,458
863.00116,478
863.118713,464
863.236206,479
863.353699,462
863.471252,468
863.588745,475
863.706177,474
863.82373,471
863.941162,482
864.058716,469
864.176208,470
864.29364,460
864.411194,485
864.528687,451
864.646118,497
864.763611,485
864.881042,484
864.998535,476
865.116028,466
865.233459,470
865.350891,476
865.468384,461
865.585754,482
865.703308,460
865.820679,479
865.938171,469
866.055542,460
866.173035,469
866.290466,486
866.407837,471
866.52533,454
866.6427,455
866.760071,479
866.877563,465
866.994934,487
867.112305,477
867.229736,453
867.347107,483
867.464539,477
867.58197,475
867.699341,496
867.81665,477
867.934082,485
868.051453,482
868.168823,465
868.286194,460
868.403564,473
868.520935,461
868.638306,490
868.755676,472
868.872986,466
868.990295,464
869.107727,489
869.225037,463
869.342346,469
869.459717,453
869.577026,486
869.694336,465
869.811707,458
869.929016,475
870.046326,490
870.163635,474
870.280945,508
870.398254,475
870.515564,501
870.632812,473
870.750183,473
870.867432,462
870.984741,510
871.102051,480
871.219299,495
871.336609,484
871.453918,483
871.571106,503
871.688416,489
871.805664,493
871.922852,509
872.040222,481
872.157471,487
872.274719,503
872.391968,486
872.509155,467
872.626465,498
872.743652,485
872.860962,493
872.978149,481
873.095337,478
873.212646,486
873.329834,479
873.44696,476
873.564209,476
873.681396,507
873.798645,489
873.915894,494
874.03302,482
874.150208,482
874.267456,490
874.384583,493
874.501831,501
874.618958,501
874.736145,509
874.853333,473
874.970459,509
875.087646,495
875.204834,514
875.32196,498
875.439148,488
875.556274,475
875.673401,481
875.790527,495
875.907715,474
876.024841,467
876.141968,493
876.259094,491
876.376282,491
876.493347,473
876.610474,478
876.7276,457
876.844727,487
876.961853,483
877.078918,476
877.195984,460
877.313171,497
877.430237,481
877.547302,492
877.664368,469
877.781433,480
877.898499,480
878.015625,466
878.13269,472
878.249695,477
878.366821,473
878.483887,481
878.600952,472
878.717957,483
878.834961,464
878.952087,457
879.069092,477
879.186157,484
879.303162,459
879.420227,475
879.537231,471
879.654236,483
879.77124,480
879.888306,461
880.005249,474
880.122314,457
880.239319,451
880.356323,476
880.473328,451
880.590271,462
880.707275,467
880.824341,469
880.941284,476
881.058228,482
881.175232,463
881.292236,466
881.40918,464
881.526123,471
881.643066,465
881.760071,477
881.877014,482
881.993958,464
882.11084,444
882.227783,482
882.344727,455
882.46167,474
882.578613,472
882.695618,480
882.812439,474
882.929382,475
883.046326,464
883.163208,460
883.280151,450
883.397034,478
883.513916,472
883.630798,472
883.747742,492
883.864563,479
883.981506,465
884.098389,478
884.21521,475
884.332153,485
884.448975,475
884.565796,475
884.682678,503
884.7995,498
884.916443,510
885.033264,509
885.150085,500
885.266968,534
885.383789,522
885.500671,531
885.617493,511
885.734314,540
885.851196,532
885.967896,517
886.084717,507
886.201599,496
886.318359,499
886.435181,503
886.552002,507
886.668762,507
886.785645,502
886.902344,513
887.019165,508
887.135925,507
887.252747,509
887.369446,489
887.486267,504
887.603027,500
887.719788,469
887.836548,487
887.953247,473
888.070068,494
888.186829,454
888.303528,500
888.420288,457
888.536987,484
888.653687,481
888.770447,480
888.887146,462
889.003967,466
889.120667,456
889.237305,483
889.354065,464
889.470703,481
889.587463,452
889.704163,478
889.820862,457
889.937561,477
890.054199,459
890.170837,452
890.287598,462
890.404236,470
890.520874,473
890.637634,483
890.754211,471
890.87085,469
890.987549,441
891.104187,486
891.220886,462
891.337463,462
891.454102,459
891.57074,473
891.687378,466
891.804077,481
891.920654,471
892.037231,483
892.15387,474
892.270447,479
892.387085,461
892.503723,470
892.6203,474
892.736877,444
892.853516,480
892.970032,474
893.08667,465
893.203186,470
893.319763,468
893.43634,476
893.552917,454
893.669556,479
893.786011,466
893.902588,478
894.019165,457
894.135681,477
894.252197,478
894.368835,482
894.485291,479
894.601868,456
894.718384,477
894.8349,477
894.951355,466
895.067932,483
895.184448,470
895.300964,470
895.417419,457
895.533936,476
895.650452,469
895.766907,473
895.883423,496
895.999878,485
896.116333,480
896.232849,458
896.349304,479
896.465759,463
896.582214,451
896.698669,471
896.815125,470
896.931641,474
897.048035,475
897.164551,474
897.280884,463
897.397339,474
897.513794,484
897.630249,484
897.746582,463
897.863098,471
897.979431,474
898.095886,464
898.212341,447
898.328674,467
898.445129,462
898.561462,478
898.677795,451
898.794312,473
898.910645,470
899.026978,484
899.143433,478
899.259766,481
899.37616,458
899.492493,481
899.608765,453
899.725159,451
899.841553,472
899.957947,483
900.07428,484
900.190552,483
900.306946,464
900.423157,461
900.53949,480
900.655884,477
900.772156,473
900.888489,478
901.004822,470
901.121033,484
901.237366,452
901.353699,465
901.46991,467
901.586304,484
901.702515,475
901.818787,500
901.93512,485
902.051331,484
902.167603,492
902.283875,494
902.400085,491
902.516418,501
902.632629,492
902.74884,500
902.865112,483
902.981384,502
903.097595,489
903.213867,514
903.330017,501
903.446289,479
903.5625,509
903.67865,492
903.794922,475
903.911072,509
904.027344,495
904.143494,490
904.259705,490
904.375916,492
904.492065,485
904.608215,473
904.724426,498
904.840576,480
904.956726,452
905.072876,493
905.189087,470
905.305176,479
905.421387,487
905.537537,478
905.653687,466
905.769775,497
905.885925,460
906.002014,468
906.118164,471
906.234314,489
906.350403,465
906.466492,488
906.582642,487
906.69873,480
906.814758,461
906.930908,456
907.046936,478
907.163086,477
907.279175,492
907.395264,479
907.511353,471
907.62738,469
907.743408,458
907.859497,476
907.975525,462
908.091553,480
908.207703,458
908.32373,479
908.439758,482
908.555786,461
908.671814,459
908.787842,465
908.90387,481
909.019775,478
909.135864,468
909.251892,477
909.367859,474
909.483826,477
909.599854,474
909.715881,474
909.831848,478
909.947815,474
910.063782,476
910.179749,486
910.295776,474
910.411743,468
910.527649,460
910.643616,511
910.759583,459
910.875488,466
910.991455,475
911.107361,499
911.223267,458
911.339294,479
911.4552,480
911.571106,473
911.687073,446
911.802979,473
911.918823,473
912.034729,454
912.150635,472
912.266602,484
912.382446,455
912.498352,486
912.614197,475
912.730103,461
912.846008,469
792.44574,788
792.56488,779
792.68396,830
792.80304,773
792.92218,746
793.041199,710
793.160339,711
793.279419,714
793.398499,718
793.517578,675
793.636658,680
793.755737,657
793.874817,693
793.993896,671
794.112976,669
794.232056,625
794.351074,650
794.470215,652
794.589233,654
794.708313,637
794.827393,606
794.946411,618
795.065552,628
795.18457,595
795.303589,633
795.422668,609
795.541687,611
795.660767,589
795.779846,613
795.898865,588
796.017883,620
796.136963,597
796.255981,581
796.375061,586
796.49408,592
796.613037,611
796.732117,600
796.851135,588
796.970154,582
797.089233,586
797.208191,585
797.327271,559
797.446228,588
797.565186,563
797.684265,572
797.803223,577
797.922241,573
798.04126,535
798.160278,553
798.279297,528
798.398315,564
798.517273,571
798.636292,568
798.75531,558
798.874268,549
798.993286,577
799.112244,554
799.231323,558
799.350281,556
799.469238,563
799.588257,569
799.707153,528
799.826111,540
799.945129,559
800.064087,551
800.183044,541
800.302063,547
800.421021,554
800.539978,549
800.658936,546
800.777893,566
800.896912,552
801.015747,543
801.134705,548
801.253723,535
801.37262,526
801.491638,546
801.610535,547
801.729492,549
801.84845,541
801.967407,539
802.086243,544
802.205261,534
802.324158,524
802.443115,516
802.562073,539
802.680969,534
802.799927,519
802.918762,535
803.037659,519
803.156677,512
803.275574,531
803.39447,538
803.513428,506
803.632263,537
803.751221,519
803.870117,535
803.989014,524
804.107971,520
804.226746,517
804.345642,514
804.4646,514
804.583496,528
804.702393,519
804.821228,532
804.940125,519
805.059021,530
805.177917,508
805.296814,524
805.415649,512
805.534546,514
805.653442,528
805.772278,506
805.891113,515
806.01001,505
806.128906,539
806.247742,529
806.366577,528
806.485413,523
806.604309,508
806.723145,527
806.84198,523
806.960876,514
807.079712,531
807.198486,526
807.317383,500
807.436218,502
807.554993,491
807.673889,536
807.792725,533
807.91156,526
808.030396,499
808.14917,499
808.268005,527
808.386841,513
808.505676,529
808.624451,535
808.743286,506
808.862122,525
808.980896,553
809.099731,527
809.218506,502
809.337341,534
809.456116,537
809.57489,545
809.693726,528
809.8125,533
809.931274,521
810.050049,534
810.168884,523
810.287659,552
810.406372,506
810.525269,524
810.643982,543
810.762756,522
810.881531,504
811.000305,525
811.11908,540
811.237854,509
811.356567,528
811.475403,515
811.594116,528
811.71283,516
811.831604,502
811.950378,525
812.069153,514
812.187927,519
812.30658,500
812.425415,525
812.544128,524
812.662781,527
812.781616,518
812.900269,532
813.019043,544
813.137756,523
813.256531,504
813.375244,516
813.493896,514
813.612671,517
813.731384,511
813.850037,538
813.96875,481
814.087524,515
814.206238,497
814.324951,527
814.443604,511
814.562256,491
814.68103,501
814.799683,519
814.918335,528
815.037109,509
815.155762,505
815.274475,514
815.393188,504
815.511841,508
815.630554,499
815.749146,496
815.867859,494
815.986572,508
816.105164,493
816.223877,515
816.342529,508
816.461182,514
816.579895,509
816.698486,523
816.817139,492
816.935791,506
817.054504,512
817.173096,500
817.291748,529
817.4104,504
817.529053,495
817.647644,500
817.766235,509
817.884949,506
818.00354,483
818.122192,490
818.240845,499
818.359436,506
818.478088,480
818.59668,487
818.715271,486
818.833923,480
818.952515,483
819.071106,485
819.189758,487
819.30835,467
819.426941,499
819.545532,479
819.664124,472
819.782715,488
819.901306,477
820.019897,486
820.138489,482
820.25708,461
820.375671,488
820.494202,494
820.612732,477
820.731384,485
820.849915,497
820.968506,499
821.087097,489
821.205627,467
821.324158,488
821.442749,499
821.561279,476
821.679871,480
821.798401,479
821.916931,488
822.035461,478
822.154053,478
822.272583,479
822.391174,479
822.509583,471
822.628174,445
822.746704,487
822.865234,470
822.983765,463
823.102295,485
823.220825,484
823.339294,475
823.457825,477
823.576355,483
823.694824,460
823.813354,481
823.931885,474
824.050354,493
824.168884,491
824.287354,474
824.405823,464
824.524353,482
824.642822,477
824.761353,478
824.879822,484
824.998291,490
825.116699,471
825.235291,471
825.353699,489
825.472168,457
825.590637,481
825.709106,480
825.827576,473
825.946045,463
826.064453,469
826.182983,486
826.301392,472
826.4198,464
826.53833,468
826.656738,479
826.775208,464
826.893677,465
827.012024,469
827.130493,479
827.248962,475
827.36731,471
827.485779,481
827.604248,478
827.722595,454
827.841064,477
827.959412,476
828.077942,457
828.196289,470
828.314636,471
828.433105,484
828.551514,484
828.669861,482
828.78833,459
828.906677,469
829.025085,461
829.143433,461
829.261841,468
829.38031,494
829.498657,471
829.617004,475
829.735413,452
829.85376,472
829.972107,453
830.090515,465
830.208862,456
830.327209,464
830.445557,474
830.563904,466
830.682312,482
830.800659,452
830.919006,479
831.037354,475
831.155701,481
831.274048,478
831.392395,471
831.51062,468
831.629028,476
831.747314,472
831.865662,463
831.984009,459
832.102356,469
832.220642,480
832.338928,467
832.457275,484
832.575623,473
832.693909,454
832.812134,461
832.930481,481
833.048828,473
833.167114,462
833.2854,466
833.403687,453
833.521973,466
833.640259,450
833.758545,474
833.876831,464
833.995056,472
834.113281,469
834.231628,465
834.349915,451
834.468201,481
834.586426,460
834.704651,469
834.822998,475
834.941162,477
835.059448,468
835.177673,468
835.295959,480
835.414246,471
835.53241,489
835.650635,464
835.768921,454
835.887146,481
836.005371,473
836.123596,460
836.241821,459
836.360046,460
836.478271,454
836.596497,464
836.714722,482
836.832886,460
836.95105,476
837.069336,466
837.1875,447
837.305725,455
837.423889,458
837.542053,465
837.660339,461
837.778503,467
837.896667,465
838.014832,459
838.132996,470
838.25116,475
838.369385,473
838.487488,463
838.605713,476
838.723877,477
838.84198,486
838.960205,490
839.078308,478
839.196472,481
839.314636,467
839.4328,458
839.550964,457
839.669067,467
839.787231,479
839.905396,454
840.023499,466
840.141602,477
840.259766,463
840.377869,473
840.495972,472
840.614136,500
840.732239,477
840.850342,470
840.968445,485
841.086548,502
841.204651,483
841.322754,491
841.440918,479
841.55896,500
841.677002,491
841.795166,463
841.913208,479
842.031311,469
842.149353,469
842.267456,494
842.385498,491
842.503601,474
842.621643,471
842.739746,487
842.857788,465
842.97583,493
843.093933,473
843.211975,484
843.330017,467
843.44812,481
843.566101,487
843.684204,506
843.802246,483
843.920227,484
844.038269,488
844.156311,483
844.274292,466
844.392395,496
844.510376,464
844.628357,497
844.74646,467
844.864441,483
844.982422,474
845.100403,490
845.218384,459
845.336426,488
845.454468,469
845.572449,490
845.69043,479
845.808411,463
845.926453,461
846.044373,477
846.162354,468
846.280396,478
846.398315,470
846.516296,472
846.634216,482
846.752197,473
846.870178,475
846.988098,482
847.106079,470
847.22406,471
847.34198,472
847.4599,459
847.577881,496
847.695801,478
847.813782,464
847.931641,480
848.049561,477
848.167603,484
848.285461,455
848.403381,500
848.521362,464
848.639221,480
848.75708,475
848.875,479
848.99292,470
849.110901,481
849.22876,472
849.34668,474
849.464539,471
849.582458,492
849.700317,474
849.818176,475
849.936096,458
850.053955,486
850.171875,477
850.289673,487
850.407593,473
850.525452,480
850.643311,466
850.761169,466
850.878967,458
850.996887,485
851.114746,467
851.232544,469
851.350403,481
851.468262,495
851.58606,474
851.703979,498
851.821777,460
851.939636,456
852.057434,477
852.175232,474
852.293091,460
852.410889,501
852.528687,488
852.646545,476
852.764343,501
852.88208,492
852.999939,480
853.117676,502
853.235535,473
853.353271,461
853.471069,473
853.588928,481
853.706604,484
853.824402,481
853.9422,478
854.059998,495
854.177734,485
854.295532,492
854.413269,474
854.531006,479
854.648804,457
854.766541,472
854.884277,478
855.002014,478
855.119751,488
855.237549,486
855.355225,486
855.473022,478
855.590698,468
855.708435,471
855.826172,477
855.943848,483
856.061646,469
856.179321,478
856.296997,448
856.414795,464
856.53241,470
856.650085,482
856.767822,479
856.885559,504
857.003174,470
857.120911,471
857.238586,498
857.356201,484
857.473938,478
857.591614,468
857.709351,478
857.826965,493
857.944641,477
858.062317,483
858.179993,481
858.297668,515
858.415283,472
858.532959,492
858.650574,463
858.768188,457
858.885803,491
859.003479,491
859.121094,469
859.23877,476
859.356384,491
859.473999,478
859.591675,463
859.709229,470
859.826843,467
859.944458,473
860.062012,481
860.179626,488
860.297302,466
860.414856,472
860.532471,470
860.650024,463
860.767639,467
860.885193,484
861.002808,476
861.120361,482
861.237976,487
861.35553,481
861.473022,468
861.590698,476
861.708191,481
861.825745,481
861.943298,477
862.060852,480
862.178406,453
862.295959,477
862.413513,481
862.531006,458
862.64856,473
862.766113,462
862.883667,459
863.00116,467
863.118713,466
863.236206,480
863.353699,456
863.471252,472
863.588745,477
863.706177,470
863.82373,473
863.941162,472
864.058716,488
864.176208,464
864.29364,464
864.411194,473
864.528687,456
864.646118,476
864.763611,473
864.881042,486
864.998535,469
865.116028,457
865.233459,475
865.350891,480
865.468384,473
865.585754,480
865.703308,472
865.820679,467
865.938171,467
866.055542,476
866.173035,472
866.290466,477
866.407837,472
866.52533,477
866.6427,486
866.760071,489
866.877563,465
866.994934,465
867.112305,470
867.229736,472
867.347107,467
867.464539,488
867.58197,478
867.699341,479
867.81665,476
867.934082,480
868.051453,480
868.168823,485
868.286194,474
868.403564,487
868.520935,471
868.638306,486
868.755676,494
868.872986,463
868.990295,453
869.107727,499
869.225037,465
869.342346,483
869.459717,460
869.577026,491
869.694336,491
869.811707,464
869.929016,464
870.046326,486
870.163635,508
870.280945,499
870.398254,498
870.515564,486
870.632812,501
870.750183,496
870.867432,497
870.984741,490
871.102051,491
871.219299,492
871.336609,481
871.453918,495
871.571106,470
871.688416,507
871.805664,494
871.922852,474
872.040222,494
872.157471,505
872.274719,493
872.391968,496
872.509155,476
872.626465,500
872.743652,487
872.860962,512
872.978149,478
873.095337,473
873.212646,485
873.329834,502
873.44696,500
873.564209,484
873.681396,495
873.798645,476
873.915894,487
874.03302,487
874.150208,491
874.267456,491
874.384583,491
874.501831,504
874.618958,487
874.736145,499
874.853333,501
874.970459,500
875.087646,478
875.204834,509
875.32196,490
875.439148,507
875.556274,470
875.673401,500
875.790527,459
875.907715,485
876.024841,492
876.141968,490
876.259094,483
876.376282,500
876.493347,486
876.610474,493
876.7276,466
876.844727,507
876.961853,476
877.078918,479
877.195984,487
877.313171,478
877.430237,485
877.547302,491
877.664368,462
877.781433,466
877.898499,491
878.015625,488
878.13269,468
878.249695,467
878.366821,464
878.483887,494
878.600952,481
878.717957,476
878.834961,474
878.952087,466
879.069092,468
879.186157,469
879.303162,482
879.420227,485
879.537231,477
879.654236,468
879.77124,458
879.888306,490
880.005249,472
880.122314,482
880.239319,478
880.356323,491
880.473328,464
880.590271,493
880.707275,461
880.824341,469
880.941284,474
881.058228,473
881.175232,466
881.292236,465
881.40918,472
881.526123,496
881.643066,453
881.760071,482
881.877014,465
881.993958,474
882.11084,468
882.227783,477
882.344727,479
882.46167,465
882.578613,470
882.695618,469
882.812439,483
882.929382,472
883.046326,458
883.163208,474
883.280151,469
883.397034,474
883.513916,455
883.630798,471
883.747742,468
883.864563,463
883.981506,464
884.098389,486
884.21521,476
884.332153,485
884.448975,454
884.565796,500
884.682678,494
884.7995,484
884.916443,499
885.033264,517
885.150085,501
885.266968,496
885.383789,528
885.500671,531
885.617493,507
885.734314,519
885.851196,523
885.967896,523
886.084717,513
886.201599,513
886.318359,521
886.435181,517
886.552002,506
886.668762,511
886.785645,511
886.902344,494
887.019165,516
887.135925,517
887.252747,487
887.369446,499
887.486267,492
887.603027,494
887.719788,504
887.836548,507
887.953247,485
888.070068,486
888.186829,506
888.303528,491
888.420288,470
888.536987,485
888.653687,481
888.770447,463
888.887146,475
889.003967,466
889.120667,464
889.237305,473
889.354065,459
889.470703,481
889.587463,461
889.704163,474
889.820862,450
889.937561,460
890.054199,459
890.170837,465
890.287598,463
890.404236,481
890.520874,465
890.637634,472
890.754211,473
890.87085,477
890.987549,451
891.104187,474
891.220886,470
891.337463,477
891.454102,472
891.57074,479
891.687378,478
891.804077,468
891.920654,468
892.037231,484
892.15387,468
892.270447,476
892.387085,456
892.503723,479
892.6203,489
892.736877,471
892.853516,471
892.970032,481
893.08667,470
893.203186,471
893.319763,463
893.43634,461
893.552917,464
893.669556,451
893.786011,475
893.902588,462
894.019165,465
894.135681,467
894.252197,453
894.368835,479
894.485291,459
894.601868,474
894.718384,478
894.8349,476
894.951355,472
895.067932,479
895.184448,476
895.300964,463
895.417419,471
895.533936,466
895.650452,466
895.766907,472
895.883423,463
895.999878,446
896.116333,476
896.232849,470
896.349304,447
896.465759,499
896.582214,467
896.698669,477
896.815125,487
896.931641,474
897.048035,471
897.164551,472
897.280884,481
897.397339,474
897.513794,472
897.630249,481
897.746582,462
897.863098,458
897.979431,483
898.095886,480
898.212341,490
898.328674,479
898.445129,480
898.561462,453
898.677795,466
898.794312,474
898.910645,467
899.026978,474
899.143433,464
899.259766,459
899.37616,471
899.492493,472
899.608765,453
899.725159,492
899.841553,481
899.957947,491
900.07428,473
900.190552,478
900.306946,469
900.423157,486
900.53949,483
900.655884,472
900.772156,470
900.888489,480
901.004822,463
901.121033,492
901.237366,489
901.353699,481
901.46991,483
901.586304,499
901.702515,470
901.818787,493
901.93512,496
902.051331,472
902.167603,492
902.283875,489
902.400085,495
902.516418,497
902.632629,497
902.74884,497
902.865112,505
902.981384,499
903.097595,495
903.213867,508
903.330017,484
903.446289,498
903.5625,501
903.67865,514
903.794922,496
903.911072,498
904.027344,492
904.143494,482
904.259705,486
904.375916,490
904.492065,482
904.608215,508
904.724426,461
904.840576,469
904.956726,487
905.072876,478
905.189087,477
905.305176,476
905.421387,490
905.537537,480
905.653687,460
905.769775,471
905.885925,484
906.002014,481
906.118164,468
906.234314,463
906.350403,460
906.466492,487
906.582642,485
906.69873,473
906.814758,483
906.930908,472
907.046936,486
907.163086,484
907.279175,474
907.395264,462
907.511353,471
907.62738,474
907.743408,472
907.859497,490
907.975525,453
908.091553,481
908.207703,458
908.32373,492
908.439758,458
908.555786,475
908.671814,460
908.787842,467
908.90387,462
909.019775,487
909.135864,465
909.251892,479
909.367859,483
909.483826,482
909.599854,476
909.715881,477
909.831848,492
909.947815,455
910.063782,477
910.179749,483
910.295776,471
910.411743,490
910.527649,450
910.643616,507
910.759583,473
910.875488,502
910.991455,461
911.107361,485
911.223267,466
911.339294,470
911.4552,452
911.571106,454
911.687073,460
911.802979,476
911.918823,463
912.034729,472
912.150635,478
912.266602,468
912.382446,468
912.498352,476
912.614197,478
912.730103,480
912.846008,472
