792.44574,642
792.56488,662
792.68396,738
792.80304,701
792.92218,668
793.041199,632
793.160339,635
793.279419,631
793.398499,607
793.517578,607
793.636658,585
793.755737,621
793.874817,616
793.993896,597
794.112976,584
794.232056,597
794.351074,583
794.470215,583
794.589233,589
794.708313,547
794.827393,567
794.946411,576
795.065552,591
795.18457,569
795.303589,569
795.422668,570
795.541687,571
795.660767,563
795.779846,570
795.898865,535
796.017883,560
796.136963,554
796.255981,560
796.375061,560
796.49408,571
796.613037,557
796.732117,560
796.851135,544
796.970154,556
797.089233,527
797.208191,542
797.327271,536
797.446228,542
797.565186,514
797.684265,534
797.803223,522
797.922241,551
798.04126,554
798.160278,525
798.279297,526
798.398315,539
798.517273,534
798.636292,507
798.75531,546
798.874268,524
798.993286,526
799.112244,540
799.231323,533
799.350281,516
799.469238,513
799.588257,534
799.707153,529
799.826111,532
799.945129,509
800.064087,508
800.183044,515
800.302063,515
800.421021,535
800.539978,499
800.658936,514
800.777893,507
800.896912,497
801.015747,499
801.134705,517
801.253723,498
801.37262,526
801.491638,500
801.610535,503
801.729492,523
801.84845,502
801.967407,503
802.086243,529
802.205261,512
802.324158,533
802.443115,526
802.562073,512
802.680969,522
802.799927,509
802.918762,508
803.037659,507
803.156677,507
803.275574,508
803.39447,540
803.513428,514
803.632263,494
803.751221,483
803.870117,524
803.989014,486
804.107971,521
804.226746,486
804.345642,499
804.4646,495
804.583496,508
804.702393,491
804.821228,495
804.940125,497
805.059021,498
805.177917,506
805.296814,513
805.415649,504
805.534546,498
805.653442,519
805.772278,506
805.891113,500
806.01001,497
806.128906,507
806.247742,485
806.366577,513
806.485413,499
806.604309,506
806.723145,505
806.84198,509
806.960876,510
807.079712,503
807.198486,491
807.317383,503
807.436218,499
807.554993,497
807.673889,510
807.792725,508
807.91156,512
808.030396,471
808.14917,498
808.268005,507
808.386841,502
808.505676,523
808.624451,513
808.743286,507
808.862122,510
808.980896,509
809.099731,512
809.218506,483
809.337341,501
809.456116,502
809.57489,494
809.693726,487
809.8125,499
809.931274,498
810.050049,509
810.168884,496
810.287659,501
810.406372,518
810.525269,503
810.643982,513
810.762756,481
810.881531,496
811.000305,486
811.11908,513
811.237854,478
811.356567,481
811.475403,500
811.594116,501
811.71283,499
811.831604,509
811.950378,500
812.069153,503
812.187927,505
812.30658,487
812.425415,505
812.544128,512
812.662781,506
812.781616,502
812.900269,495
813.019043,497
813.137756,501
813.256531,500
813.375244,494
813.493896,499
813.612671,499
813.731384,517
813.850037,487
813.96875,501
814.087524,513
814.206238,502
814.324951,515
814.443604,491
814.562256,498
814.68103,506
814.799683,514
814.918335,518
815.037109,482
815.155762,507
815.274475,504
815.393188,505
815.511841,493
815.630554,475
815.749146,510
815.867859,485
815.986572,522
816.105164,490
816.223877,491
816.342529,473
816.461182,516
816.579895,483
816.698486,495
816.817139,501
816.935791,501
817.054504,493
817.173096,500
817.291748,499
817.4104,499
817.529053,463
817.647644,466
817.766235,476
817.884949,497
818.00354,487
818.122192,485
818.240845,451
818.359436,496
818.478088,470
818.59668,493
818.715271,476
818.833923,477
818.952515,476
819.071106,465
819.189758,465
819.30835,469
819.426941,467
819.545532,470
819.664124,487
819.782715,477
819.901306,485
820.019897,466
820.138489,477
820.25708,484
820.375671,476
820.494202,474
820.612732,472
820.731384,483
820.849915,463
820.968506,466
821.087097,483
821.205627,477
821.324158,464
821.442749,460
821.561279,480
821.679871,485
821.798401,455
821.916931,479
822.035461,468
822.154053,466
822.272583,472
822.391174,471
822.509583,468
822.628174,481
822.746704,457
822.865234,469
822.983765,465
823.102295,443
823.220825,452
823.339294,477
823.457825,464
823.576355,451
823.694824,480
823.813354,466
823.931885,480
824.050354,463
824.168884,456
824.287354,462
824.405823,461
824.524353,469
824.642822,475
824.761353,463
824.879822,474
824.998291,453
825.116699,454
825.235291,474
825.353699,465
825.472168,477
825.590637,460
825.709106,472
825.827576,455
825.946045,465
826.064453,442
826.182983,456
826.301392,461
826.4198,446
826.53833,454
826.656738,462
826.775208,474
826.893677,461
827.012024,441
827.130493,453
827.248962,469
827.36731,453
827.485779,430
827.604248,469
827.722595,450
827.841064,483
827.959412,464
828.077942,452
828.196289,461
828.314636,441
828.433105,452
828.551514,454
828.669861,443
828.78833,461
828.906677,466
829.025085,465
829.143433,475
829.261841,454
829.38031,458
829.498657,467
829.617004,455
829.735413,438
829.85376,451
829.972107,451
830.090515,453
830.208862,472
830.327209,458
830.445557,449
830.563904,456
830.682312,482
830.800659,440
830.919006,474
831.037354,461
831.155701,486
831.274048,460
831.392395,466
831.51062,450
831.629028,462
831.747314,470
831.865662,456
831.984009,472
832.102356,478
832.220642,454
832.338928,477
832.457275,449
832.575623,445
832.693909,465
832.812134,458
832.930481,475
833.048828,462
833.167114,457
833.2854,447
833.403687,454
833.521973,473
833.640259,443
833.758545,477
833.876831,451
833.995056,451
834.113281,447
834.231628,454
834.349915,463
834.468201,440
834.586426,460
834.704651,471
834.822998,436
834.941162,455
835.059448,428
835.177673,449
835.295959,459
835.414246,454
835.53241,458
835.650635,451
835.768921,445
835.887146,455
836.005371,445
836.123596,451
836.241821,470
836.360046,461
836.478271,445
836.596497,483
836.714722,456
836.832886,445
836.95105,443
837.069336,462
837.1875,447
837.305725,443
837.423889,458
837.542053,467
837.660339,461
837.778503,474
837.896667,459
838.014832,449
838.132996,464
838.25116,465
838.369385,455
838.487488,458
838.605713,456
838.723877,451
838.84198,458
838.960205,466
839.078308,478
839.196472,458
839.314636,476
839.4328,470
839.550964,464
839.669067,466
839.787231,455
839.905396,460
840.023499,452
840.141602,475
840.259766,473
840.377869,489
840.495972,454
840.614136,472
840.732239,443
840.850342,478
840.968445,476
841.086548,467
841.204651,451
841.322754,479
841.440918,455
841.55896,467
841.677002,461
841.795166,468
841.913208,461
842.031311,464
842.149353,456
842.267456,478
842.385498,461
842.503601,444
842.621643,472
842.739746,456
842.857788,447
842.97583,483
843.093933,482
843.211975,474
843.330017,472
843.44812,480
843.566101,478
843.684204,460
843.802246,466
843.920227,442
844.038269,446
844.156311,481
844.274292,456
844.392395,465
844.510376,464
844.628357,460
844.74646,467
844.864441,467
844.982422,462
845.100403,468
845.218384,450
845.336426,454
845.454468,477
845.572449,465
845.69043,462
845.808411,471
845.926453,457
846.044373,484
846.162354,479
846.280396,464
846.398315,457
846.516296,461
846.634216,457
846.752197,461
846.870178,445
846.988098,474
847.106079,468
847.22406,472
847.34198,472
847.4599,464
847.577881,465
847.695801,458
847.813782,458
847.931641,474
848.049561,467
848.167603,480
848.285461,480
848.403381,458
848.521362,464
848.639221,455
848.75708,457
848.875,467
848.99292,448
849.110901,471
849.22876,469
849.34668,474
849.464539,472
849.582458,469
849.700317,477
849.818176,459
849.936096,464
850.053955,459
850.171875,467
850.289673,474
850.407593,480
850.525452,463
850.643311,459
850.761169,458
850.878967,466
850.996887,483
851.114746,469
851.232544,448
851.350403,460
851.468262,461
851.58606,459
851.703979,465
851.821777,465
851.939636,472
852.057434,467
852.175232,450
852.293091,472
852.410889,477
852.528687,458
852.646545,488
852.764343,466
852.88208,477
852.999939,476
853.117676,476
853.235535,457
853.353271,477
853.471069,476
853.588928,477
853.706604,454
853.824402,458
853.9422,438
854.059998,463
854.177734,477
854.295532,461
854.413269,476
854.531006,461
854.648804,443
854.766541,478
854.884277,455
855.002014,473
855.119751,472
855.237549,468
855.355225,471
855.473022,447
855.590698,468
855.708435,474
855.826172,456
855.943848,462
856.061646,463
856.179321,454
856.296997,469
856.414795,469
856.53241,470
856.650085,460
856.767822,472
856.885559,470
857.003174,467
857.120911,471
857.238586,477
857.356201,492
857.473938,469
857.591614,465
857.709351,449
857.826965,479
857.944641,471
858.062317,486
858.179993,461
858.297668,474
858.415283,468
858.532959,486
858.650574,462
858.768188,470
858.885803,464
859.003479,470
859.121094,458
859.23877,459
859.356384,468
859.473999,476
859.591675,452
859.709229,469
859.826843,454
859.944458,468
860.062012,445
860.179626,468
860.297302,470
860.414856,485
860.532471,457
860.650024,477
860.767639,477
860.885193,450
861.002808,448
861.120361,458
861.237976,453
861.35553,452
861.473022,460
861.590698,473
861.708191,459
861.825745,474
861.943298,454
862.060852,471
862.178406,474
862.295959,450
862.413513,463
862.531006,460
862.64856,451
862.766113,464
862.883667,460
863.00116,461
863.118713,447
863.236206,449
863.353699,468
863.471252,467
863.588745,460
863.706177,467
863.82373,466
863.941162,452
864.058716,472
864.176208,464
864.29364,472
864.411194,450
864.528687,440
864.646118,444
864.763611,452
864.881042,456
864.998535,454
865.116028,464
865.233459,448
865.350891,453
865.468384,458
865.585754,497
865.703308,461
865.820679,450
865.938171,450
866.055542,456
866.173035,454
866.290466,456
866.407837,462
866.52533,458
866.6427,446
866.760071,460
866.877563,470
866.994934,475
867.112305,445
867.229736,445
867.347107,466
867.464539,469
867.58197,447
867.699341,482
867.81665,457
867.934082,449
868.051453,451
868.168823,459
868.286194,480
868.403564,482
868.520935,448
868.638306,462
868.755676,477
868.872986,464
868.990295,457
869.107727,465
869.225037,448
869.342346,479
869.459717,456
869.577026,476
869.694336,478
869.811707,470
869.929016,452
870.046326,465
870.163635,471
870.280945,451
870.398254,480
870.515564,459
870.632812,454
870.750183,474
870.867432,473
870.984741,478
871.102051,487
871.219299,462
871.336609,476
871.453918,474
871.571106,483
871.688416,491
871.805664,482
871.922852,474
872.040222,472
872.157471,487
872.274719,482
872.391968,480
872.509155,469
872.626465,445
872.743652,466
872.860962,483
872.978149,474
873.095337,447
873.212646,460
873.329834,484
873.44696,469
873.564209,481
873.681396,464
873.798645,487
873.915894,465
874.03302,485
874.150208,473
874.267456,454
874.384583,466
874.501831,480
874.618958,482
874.736145,472
874.853333,487
874.970459,463
875.087646,493
875.204834,467
875.32196,476
875.439148,470
875.556274,466
875.673401,496
875.790527,478
875.907715,474
876.024841,480
876.141968,475
876.259094,479
876.376282,463
876.493347,462
876.610474,470
876.7276,469
876.844727,492
876.961853,475
877.078918,482
877.195984,468
877.313171,480
877.430237,484
877.547302,470
877.664368,475
877.781433,490
877.898499,471
878.015625,458
878.13269,459
878.249695,483
878.366821,452
878.483887,471
878.600952,461
878.717957,469
878.834961,462
878.952087,478
879.069092,448
879.186157,448
879.303162,445
879.420227,472
879.537231,452
879.654236,468
879.77124,461
879.888306,467
880.005249,452
880.122314,464
880.239319,438
880.356323,461
880.473328,464
880.590271,468
880.707275,456
880.824341,468
880.941284,445
881.058228,461
881.175232,465
881.292236,449
881.40918,471
881.526123,463
881.643066,465
881.760071,461
881.877014,452
881.993958,482
882.11084,445
882.227783,484
882.344727,457
882.46167,450
882.578613,450
882.695618,478
882.812439,454
882.929382,471
883.046326,461
883.163208,474
883.280151,454
883.397034,454
883.513916,449
883.630798,465
883.747742,481
883.864563,459
883.981506,460
884.098389,473
884.21521,451
884.332153,468
884.448975,467
884.565796,453
884.682678,480
884.7995,459
884.916443,478
885.033264,488
885.150085,483
885.266968,486
885.383789,482
885.500671,497
885.617493,493
885.734314,476
885.851196,476
885.967896,486
886.084717,509
886.201599,498
886.318359,500
886.435181,502
886.552002,495
886.668762,485
886.785645,480
886.902344,486
887.019165,471
887.135925,478
887.252747,468
887.369446,485
887.486267,483
887.603027,481
887.719788,471
887.836548,492
887.953247,465
888.070068,459
888.186829,469
888.303528,477
888.420288,457
888.536987,452
888.653687,456
888.770447,476
888.887146,471
889.003967,463
889.120667,455
889.237305,469
889.354065,467
889.470703,475
889.587463,480
889.704163,479
889.820862,448
889.937561,458
890.054199,472
890.170837,460
890.287598,463
890.404236,465
890.520874,470
890.637634,478
890.754211,459
890.87085,469
890.987549,462
891.104187,475
891.220886,455
891.337463,473
891.454102,462
891.57074,457
891.687378,466
891.804077,470
891.920654,463
892.037231,455
892.15387,469
892.270447,472
892.387085,473
892.503723,463
892.6203,469
892.736877,446
892.853516,477
892.970032,495
893.08667,456
893.203186,475
893.319763,474
893.43634,467
893.552917,443
893.669556,472
893.786011,474
893.902588,454
894.019165,469
894.135681,445
894.252197,474
894.368835,471
894.485291,466
894.601868,461
894.718384,473
894.8349,474
894.951355,450
895.067932,459
895.184448,450
895.300964,472
895.417419,452
895.533936,450
895.650452,477
895.766907,460
895.883423,472
895.999878,446
896.116333,446
896.232849,459
896.349304,466
896.465759,462
896.582214,465
896.698669,464
896.815125,471
896.931641,465
897.048035,467
897.164551,481
897.280884,450
897.397339,467
897.513794,481
897.630249,457
897.746582,482
897.863098,466
897.979431,462
898.095886,461
898.212341,457
898.328674,481
898.445129,439
898.561462,471
898.677795,456
898.794312,454
898.910645,461
899.026978,456
899.143433,465
899.259766,448
899.37616,461
899.492493,459
899.608765,471
899.725159,470
899.841553,463
899.957947,454
900.07428,464
900.190552,475
900.306946,485
900.423157,458
900.53949,460
900.655884,455
900.772156,453
900.888489,458
901.004822,467
901.121033,475
901.237366,471
901.353699,473
901.46991,490
901.586304,483
901.702515,472
901.818787,478
901.93512,492
902.051331,467
902.167603,484
902.283875,464
902.400085,480
902.516418,484
902.632629,467
902.74884,485
902.865112,487
902.981384,466
903.097595,478
903.213867,486
903.330017,477
903.446289,480
903.5625,472
903.67865,467
903.794922,480
903.911072,482
904.027344,455
904.143494,477
904.259705,462
904.375916,464
904.492065,481
904.608215,472
904.724426,482
904.840576,485
904.956726,432
905.072876,461
905.189087,474
905.305176,474
905.421387,456
905.537537,468
905.653687,464
905.769775,490
905.885925,475
906.002014,475
906.118164,461
906.234314,477
906.350403,460
906.466492,475
906.582642,472
906.69873,458
906.814758,502
906.930908,479
907.046936,471
907.163086,467
907.279175,459
907.395264,467
907.511353,460
907.62738,454
907.743408,463
907.859497,459
907.975525,476
908.091553,471
908.207703,454
908.32373,457
908.439758,467
908.555786,473
908.671814,459
908.787842,485
908.90387,457
909.019775,478
909.135864,457
909.251892,468
909.367859,462
909.483826,472
909.599854,465
909.715881,462
909.831848,479
909.947815,460
910.063782,474
910.179749,465
910.295776,484
910.411743,461
910.527649,458
910.643616,471
910.759583,460
910.875488,489
910.991455,482
911.107361,473
911.223267,468
911.339294,477
911.4552,464
911.571106,467
911.687073,442
911.802979,471
911.918823,459
912.034729,477
912.150635,495
912.266602,470
912.382446,464
912.498352,469
912.614197,454
912.730103,463
912.846008,459
792.44574,641
792.56488,679
792.68396,745
792.80304,685
792.92218,641
793.041199,625
793.160339,632
793.279419,615
793.398499,605
793.517578,581
793.636658,593
793.755737,624
793.874817,620
793.993896,612
794.112976,602
794.232056,559
794.351074,590
794.470215,595
794.589233,596
794.708313,555
794.827393,581
794.946411,580
795.065552,595
795.18457,595
795.303589,571
795.422668,580
795.541687,577
795.660767,569
795.779846,560
795.898865,561
796.017883,529
796.136963,560
796.255981,548
796.375061,579
796.49408,561
796.613037,559
796.732117,549
796.851135,552
796.970154,536
797.089233,538
797.208191,528
797.327271,542
797.446228,542
797.565186,556
797.684265,526
797.803223,521
797.922241,558
798.04126,533
798.160278,538
798.279297,533
798.398315,510
798.517273,534
798.636292,502
798.75531,550
798.874268,531
798.993286,515
799.112244,533
799.231323,519
799.350281,537
799.469238,524
799.588257,509
799.707153,532
799.826111,510
799.945129,526
800.064087,531
800.183044,496
800.302063,538
800.421021,527
800.539978,519
800.658936,530
800.777893,519
800.896912,500
801.015747,514
801.134705,515
801.253723,519
801.37262,514
801.491638,518
801.610535,521
801.729492,517
801.84845,521
801.967407,493
802.086243,527
802.205261,502
802.324158,523
802.443115,515
802.562073,508
802.680969,493
802.799927,513
802.918762,521
803.037659,516
803.156677,515
803.275574,515
803.39447,503
803.513428,508
803.632263,502
803.751221,512
803.870117,514
803.989014,509
804.107971,514
804.226746,520
804.345642,488
804.4646,502
804.583496,510
804.702393,511
804.821228,530
804.940125,514
805.059021,504
805.177917,496
805.296814,495
805.415649,512
805.534546,523
805.653442,493
805.772278,507
805.891113,501
806.01001,507
806.128906,498
806.247742,494
806.366577,514
806.485413,495
806.604309,511
806.723145,516
806.84198,523
806.960876,491
807.079712,502
807.198486,496
807.317383,510
807.436218,499
807.554993,487
807.673889,522
807.792725,491
807.91156,511
808.030396,505
808.14917,497
808.268005,506
808.386841,529
808.505676,490
808.624451,493
808.743286,509
808.862122,503
808.980896,495
809.099731,497
809.218506,485
809.337341,506
809.456116,511
809.57489,501
809.693726,495
809.8125,490
809.931274,486
810.050049,514
810.168884,522
810.287659,491
810.406372,492
810.525269,505
810.643982,497
810.762756,494
810.881531,498
811.000305,496
811.11908,518
811.237854,495
811.356567,486
811.475403,502
811.594116,501
811.71283,518
811.831604,506
811.950378,493
812.069153,498
812.187927,499
812.30658,515
812.425415,501
812.544128,506
812.662781,501
812.781616,511
812.900269,513
813.019043,506
813.137756,474
813.256531,503
813.375244,497
813.493896,507
813.612671,503
813.731384,503
813.850037,502
813.96875,504
814.087524,498
814.206238,492
814.324951,502
814.443604,492
814.562256,502
814.68103,500
814.799683,505
814.918335,494
815.037109,510
815.155762,505
815.274475,518
815.393188,489
815.511841,485
815.630554,475
815.749146,513
815.867859,502
815.986572,510
816.105164,493
816.223877,481
816.342529,497
816.461182,501
816.579895,499
816.698486,494
816.817139,509
816.935791,495
817.054504,514
817.173096,487
817.291748,507
817.4104,500
817.529053,476
817.647644,481
817.766235,488
817.884949,483
818.00354,516
818.122192,490
818.240845,476
818.359436,483
818.478088,499
818.59668,482
818.715271,490
818.833923,479
818.952515,463
819.071106,481
819.189758,473
819.30835,478
819.426941,472
819.545532,484
819.664124,472
819.782715,469
819.901306,462
820.019897,470
820.138489,480
820.25708,470
820.375671,473
820.494202,460
820.612732,465
820.731384,489
820.849915,477
820.968506,451
821.087097,453
821.205627,484
821.324158,483
821.442749,455
821.561279,474
821.679871,472
821.798401,471
821.916931,471
822.035461,473
822.154053,478
822.272583,487
822.391174,473
822.509583,462
822.628174,478
822.746704,478
822.865234,464
822.983765,455
823.102295,470
823.220825,456
823.339294,448
823.457825,470
823.576355,466
823.694824,494
823.813354,478
823.931885,461
824.050354,477
824.168884,472
824.287354,461
824.405823,459
824.524353,470
824.642822,455
824.761353,456
824.879822,476
824.998291,450
825.116699,468
825.235291,459
825.353699,471
825.472168,466
825.590637,473
825.709106,470
825.827576,449
825.946045,484
826.064453,477
826.182983,463
826.301392,456
826.4198,463
826.53833,467
826.656738,465
826.775208,456
826.893677,443
827.012024,460
827.130493,468
827.248962,482
827.36731,476
827.485779,469
827.604248,458
827.722595,465
827.841064,450
827.959412,484
828.077942,479
828.196289,480
828.314636,454
828.433105,485
828.551514,465
828.669861,450
828.78833,463
828.906677,471
829.025085,466
829.143433,451
829.261841,456
829.38031,469
829.498657,459
829.617004,461
829.735413,475
829.85376,468
829.972107,447
830.090515,477
830.208862,454
830.327209,460
830.445557,427
830.563904,466
830.682312,465
830.800659,443
830.919006,465
831.037354,445
831.155701,472
831.274048,466
831.392395,471
831.51062,475
831.629028,475
831.747314,450
831.865662,457
831.984009,462
832.102356,472
832.220642,457
832.338928,460
832.457275,466
832.575623,457
832.693909,464
832.812134,446
832.930481,449
833.048828,454
833.167114,456
833.2854,464
833.403687,458
833.521973,467
833.640259,470
833.758545,460
833.876831,462
833.995056,452
834.113281,457
834.231628,459
834.349915,470
834.468201,455
834.586426,452
834.704651,476
834.822998,478
834.941162,441
835.059448,449
835.177673,450
835.295959,451
835.414246,482
835.53241,461
835.650635,458
835.768921,467
835.887146,452
836.005371,461
836.123596,450
836.241821,476
836.360046,455
836.478271,441
836.596497,458
836.714722,462
836.832886,468
836.95105,441
837.069336,460
837.1875,469
837.305725,457
837.423889,466
837.542053,468
837.660339,483
837.778503,467
837.896667,447
838.014832,475
838.132996,453
838.25116,464
838.369385,468
838.487488,457
838.605713,450
838.723877,449
838.84198,460
838.960205,481
839.078308,458
839.196472,468
839.314636,453
839.4328,445
839.550964,452
839.669067,456
839.787231,470
839.905396,443
840.023499,464
840.141602,462
840.259766,457
840.377869,470
840.495972,461
840.614136,455
840.732239,453
840.850342,469
840.968445,454
841.086548,461
841.204651,482
841.322754,493
841.440918,477
841.55896,466
841.677002,457
841.795166,472
841.913208,464
842.031311,468
842.149353,475
842.267456,455
842.385498,441
842.503601,474
842.621643,469
842.739746,459
842.857788,452
842.97583,476
843.093933,477
843.211975,475
843.330017,488
843.44812,465
843.566101,478
843.684204,467
843.802246,476
843.920227,466
844.038269,461
844.156311,478
844.274292,470
844.392395,466
844.510376,476
844.628357,483
844.74646,465
844.864441,457
844.982422,458
845.100403,471
845.218384,449
845.336426,453
845.454468,456
845.572449,455
845.69043,466
845.808411,439
845.926453,458
846.044373,465
846.162354,473
846.280396,468
846.398315,454
846.516296,474
846.634216,454
846.752197,456
846.870178,473
846.988098,446
847.106079,473
847.22406,457
847.34198,467
847.4599,458
847.577881,449
847.695801,452
847.813782,473
847.931641,457
848.049561,452
848.167603,457
848.285461,468
848.403381,473
848.521362,460
848.639221,472
848.75708,484
848.875,476
848.99292,469
849.110901,465
849.22876,469
849.34668,465
849.464539,471
849.582458,469
849.700317,467
849.818176,473
849.936096,455
850.053955,471
850.171875,471
850.289673,449
850.407593,460
850.525452,464
850.643311,465
850.761169,478
850.878967,476
850.996887,457
851.114746,469
851.232544,465
851.350403,468
851.468262,470
851.58606,460
851.703979,458
851.821777,463
851.939636,470
852.057434,457
852.175232,472
852.293091,460
852.410889,479
852.528687,472
852.646545,477
852.764343,484
852.88208,471
852.999939,475
853.117676,464
853.235535,486
853.353271,450
853.471069,433
853.588928,463
853.706604,456
853.824402,451
853.9422,467
854.059998,464
854.177734,474
854.295532,464
854.413269,450
854.531006,464
854.648804,460
854.766541,477
854.884277,476
855.002014,473
855.119751,447
855.237549,472
855.355225,461
855.473022,473
855.590698,475
855.708435,473
855.826172,466
855.943848,448
856.061646,470
856.179321,460
856.296997,458
856.414795,464
856.53241,460
856.650085,478
856.767822,482
856.885559,478
857.003174,467
857.120911,461
857.238586,473
857.356201,481
857.473938,480
857.591614,461
857.709351,474
857.826965,486
857.944641,469
858.062317,466
858.179993,477
858.297668,468
858.415283,475
858.532959,478
858.650574,462
858.768188,482
858.885803,454
859.003479,471
859.121094,491
859.23877,463
859.356384,452
859.473999,468
859.591675,485
859.709229,465
859.826843,472
859.944458,455
860.062012,469
860.179626,470
860.297302,446
860.414856,469
860.532471,446
860.650024,468
860.767639,481
860.885193,463
861.002808,461
861.120361,469
861.237976,473
861.35553,463
861.473022,466
861.590698,450
861.708191,477
861.825745,469
861.943298,446
862.060852,457
862.178406,458
862.295959,463
862.413513,460
862.531006,473
862.64856,465
862.766113,461
862.883667,460
863.00116,455
863.118713,465
863.236206,463
863.353699,469
863.471252,460
863.588745,462
863.706177,455
863.82373,461
863.941162,461
864.058716,480
864.176208,486
864.29364,471
864.411194,476
864.528687,459
864.646118,448
864.763611,471
864.881042,473
864.998535,434
865.116028,447
865.233459,461
865.350891,455
865.468384,459
865.585754,471
865.703308,477
865.820679,437
865.938171,457
866.055542,463
866.173035,457
866.290466,445
866.407837,459
866.52533,471
866.6427,456
866.760071,452
866.877563,445
866.994934,460
867.112305,451
867.229736,451
867.347107,462
867.464539,477
867.58197,463
867.699341,474
867.81665,470
867.934082,461
868.051453,470
868.168823,467
868.286194,457
868.403564,449
868.520935,454
868.638306,456
868.755676,457
868.872986,464
868.990295,461
869.107727,470
869.225037,480
869.342346,448
869.459717,474
869.577026,476
869.694336,474
869.811707,464
869.929016,452
870.046326,477
870.163635,467
870.280945,468
870.398254,485
870.515564,469
870.632812,481
870.750183,456
870.867432,472
870.984741,472
871.102051,473
871.219299,453
871.336609,477
871.453918,459
871.571106,475
871.688416,450
871.805664,458
871.922852,485
872.040222,484
872.157471,489
872.274719,461
872.391968,473
872.509155,486
872.626465,466
872.743652,466
872.860962,473
872.978149,481
873.095337,497
873.212646,476
873.329834,496
873.44696,473
873.564209,463
873.681396,466
873.798645,467
873.915894,475
874.03302,483
874.150208,469
874.267456,483
874.384583,469
874.501831,486
874.618958,470
874.736145,498
874.853333,474
874.970459,472
875.087646,488
875.204834,476
875.32196,490
875.439148,487
875.556274,456
875.673401,481
875.790527,464
875.907715,473
876.024841,494
876.141968,464
876.259094,473
876.376282,464
876.493347,460
876.610474,458
876.7276,468
876.844727,472
876.961853,469
877.078918,485
877.195984,462
877.313171,469
877.430237,461
877.547302,465
877.664368,469
877.781433,465
877.898499,455
878.015625,473
878.13269,478
878.249695,456
878.366821,448
878.483887,470
878.600952,475
878.717957,455
878.834961,470
878.952087,477
879.069092,473
879.186157,478
879.303162,449
879.420227,472
879.537231,469
879.654236,459
879.77124,467
879.888306,455
880.005249,478
880.122314,464
880.239319,457
880.356323,474
880.473328,478
880.590271,462
880.707275,473
880.824341,472
880.941284,469
881.058228,465
881.175232,472
881.292236,465
881.40918,470
881.526123,476
881.643066,459
881.760071,454
881.877014,472
881.993958,459
882.11084,474
882.227783,464
882.344727,469
882.46167,456
882.578613,454
882.695618,462
882.812439,460
882.929382,458
883.046326,471
883.163208,473
883.280151,444
883.397034,474
883.513916,473
883.630798,453
883.747742,461
883.864563,475
883.981506,465
884.098389,447
884.21521,486
884.332153,467
884.448975,463
884.565796,461
884.682678,486
884.7995,472
884.916443,499
885.033264,477
885.150085,475
885.266968,499
885.383789,492
885.500671,455
885.617493,492
885.734314,487
885.851196,511
885.967896,515
886.084717,499
886.201599,485
886.318359,498
886.435181,492
886.552002,500
886.668762,493
886.785645,493
886.902344,484
887.019165,501
887.135925,495
887.252747,490
887.369446,479
887.486267,494
887.603027,478
887.719788,477
887.836548,462
887.953247,464
888.070068,478
888.186829,469
888.303528,469
888.420288,480
888.536987,463
888.653687,460
888.770447,448
888.887146,466
889.003967,470
889.120667,472
889.237305,482
889.354065,469
889.470703,465
889.587463,462
889.704163,466
889.820862,476
889.937561,464
890.054199,454
890.170837,473
890.287598,444
890.404236,449
890.520874,456
890.637634,476
890.754211,458
890.87085,473
890.987549,454
891.104187,477
891.220886,470
891.337463,446
891.454102,469
891.57074,467
891.687378,459
891.804077,468
891.920654,460
892.037231,473
892.15387,478
892.270447,474
892.387085,461
892.503723,464
892.6203,453
892.736877,449
892.853516,476
892.970032,452
893.08667,483
893.203186,473
893.319763,476
893.43634,471
893.552917,469
893.669556,454
893.786011,490
893.902588,472
894.019165,459
894.135681,457
894.252197,463
894.368835,489
894.485291,471
894.601868,478
894.718384,479
894.8349,449
894.951355,483
895.067932,481
895.184448,467
895.300964,458
895.417419,476
895.533936,475
895.650452,457
895.766907,461
895.883423,469
895.999878,457
896.116333,471
896.232849,477
896.349304,455
896.465759,470
896.582214,470
896.698669,464
896.815125,447
896.931641,483
897.048035,462
897.164551,443
897.280884,463
897.397339,467
897.513794,472
897.630249,473
897.746582,459
897.863098,473
897.979431,475
898.095886,458
898.212341,461
898.328674,472
898.445129,470
898.561462,465
898.677795,467
898.794312,463
898.910645,501
899.026978,470
899.143433,468
899.259766,468
899.37616,465
899.492493,469
899.608765,473
899.725159,482
899.841553,459
899.957947,468
900.07428,476
900.190552,474
900.306946,456
900.423157,477
900.53949,471
900.655884,457
900.772156,452
900.888489,460
901.004822,475
901.121033,448
901.237366,468
901.353699,474
901.46991,465
901.586304,466
901.702515,477
901.818787,472
901.93512,475
902.051331,471
902.167603,494
902.283875,456
902.400085,466
902.516418,496
902.632629,483
902.74884,465
902.865112,488
902.981384,480
903.097595,470
903.213867,470
903.330017,489
903.446289,481
903.5625,482
903.67865,480
903.794922,482
903.911072,489
904.027344,493
904.143494,486
904.259705,471
904.375916,483
904.492065,474
904.608215,481
904.724426,463
904.840576,493
904.956726,465
905.072876,477
905.189087,479
905.305176,461
905.421387,489
905.537537,468
905.653687,480
905.769775,472
905.885925,473
906.002014,460
906.118164,485
906.234314,464
906.350403,492
906.466492,458
906.582642,470
906.69873,476
906.814758,486
906.930908,471
907.046936,468
907.163086,466
907.279175,471
907.395264,457
907.511353,497
907.62738,466
907.743408,471
907.859497,472
907.975525,472
908.091553,459
908.207703,453
908.32373,467
908.439758,449
908.555786,466
908.671814,457
908.787842,443
908.90387,460
909.019775,457
909.135864,476
909.251892,459
909.367859,468
909.483826,487
909.599854,479
909.715881,475
909.831848,475
909.947815,480
910.063782,475
910.179749,470
910.295776,475
910.411743,471
910.527649,473
910.643616,465
910.759583,465
910.875488,466
910.991455,487
911.107361,455
911.223267,462
911.339294,461
911.4552,470
911.571106,458
911.687073,467
911.802979,469
911.918823,485
912.034729,465
912.150635,462
912.266602,473
912.382446,484
912.498352,475
912.614197,473
912.730103,474
912.846008,450
792.44574,667
792.56488,712
792.68396,725
792.80304,701
792.92218,654
793.041199,630
793.160339,623
793.279419,634
793.398499,621
793.517578,623
793.636658,624
793.755737,630
793.874817,633
793.993896,618
794.112976,607
794.232056,593
794.351074,591
794.470215,588
794.589233,585
794.708313,594
794.827393,589
794.946411,581
795.065552,573
795.18457,587
795.303589,591
795.422668,578
795.541687,583
795.660767,570
795.779846,572
795.898865,561
796.017883,552
796.136963,553
796.255981,541
796.375061,550
796.49408,570
796.613037,534
796.732117,545
796.851135,542
796.970154,534
797.089233,554
797.208191,569
797.327271,564
797.446228,553
797.565186,539
797.684265,539
797.803223,540
797.922241,556
798.04126,536
798.160278,548
798.279297,542
798.398315,532
798.517273,539
798.636292,534
798.75531,534
798.874268,537
798.993286,547
799.112244,545
799.231323,525
799.350281,536
799.469238,531
799.588257,530
799.707153,513
799.826111,515
799.945129,511
800.064087,531
800.183044,521
800.302063,530
800.421021,522
800.539978,529
800.658936,502
800.777893,521
800.896912,526
801.015747,511
801.134705,527
801.253723,519
801.37262,517
801.491638,523
801.610535,527
801.729492,535
801.84845,486
801.967407,522
802.086243,512
802.205261,505
802.324158,509
802.443115,509
802.562073,520
802.680969,530
802.799927,498
802.918762,520
803.037659,506
803.156677,497
803.275574,523
803.39447,505
803.513428,478
803.632263,516
803.751221,508
803.870117,514
803.989014,511
804.107971,502
804.226746,514
804.345642,495
804.4646,516
804.583496,507
804.702393,509
804.821228,526
804.940125,501
805.059021,497
805.177917,523
805.296814,507
805.415649,511
805.534546,495
805.653442,497
805.772278,516
805.891113,505
806.01001,522
806.128906,509
806.247742,520
806.366577,500
806.485413,510
806.604309,536
806.723145,519
806.84198,502
806.960876,480
807.079712,491
807.198486,507
807.317383,492
807.436218,498
807.554993,496
807.673889,496
807.792725,494
807.91156,517
808.030396,489
808.14917,521
808.268005,514
808.386841,523
808.505676,510
808.624451,510
808.743286,481
808.862122,505
808.980896,490
809.099731,520
809.218506,500
809.337341,493
809.456116,491
809.57489,529
809.693726,493
809.8125,491
809.931274,511
810.050049,512
810.168884,498
810.287659,503
810.406372,503
810.525269,493
810.643982,500
810.762756,504
810.881531,509
811.000305,523
811.11908,507
811.237854,514
811.356567,522
811.475403,507
811.594116,494
811.71283,513
811.831604,493
811.950378,520
812.069153,499
812.187927,524
812.30658,501
812.425415,514
812.544128,506
812.662781,496
812.781616,494
812.900269,502
813.019043,495
813.137756,496
813.256531,491
813.375244,515
813.493896,487
813.612671,501
813.731384,503
813.850037,487
813.96875,510
814.087524,532
814.206238,498
814.324951,504
814.443604,512
814.562256,497
814.68103,508
814.799683,511
814.918335,509
815.037109,500
815.155762,502
815.274475,503
815.393188,478
815.511841,501
815.630554,499
815.749146,501
815.867859,505
815.986572,491
816.105164,497
816.223877,468
816.342529,485
816.461182,501
816.579895,497
816.698486,499
816.817139,497
816.935791,487
817.054504,480
817.173096,496
817.291748,492
817.4104,476
817.529053,477
817.647644,507
817.766235,483
817.884949,486
818.00354,485
818.122192,497
818.240845,475
818.359436,487
818.478088,495
818.59668,474
818.715271,488
818.833923,486
818.952515,471
819.071106,501
819.189758,480
819.30835,482
819.426941,478
819.545532,473
819.664124,485
819.782715,498
819.901306,481
820.019897,473
820.138489,462
820.25708,462
820.375671,462
820.494202,486
820.612732,483
820.731384,485
820.849915,475
820.968506,459
821.087097,480
821.205627,472
821.324158,465
821.442749,469
821.561279,466
821.679871,473
821.798401,477
821.916931,495
822.035461,468
822.154053,487
822.272583,477
822.391174,486
822.509583,460
822.628174,465
822.746704,469
822.865234,465
822.983765,474
823.102295,479
823.220825,473
823.339294,466
823.457825,474
823.576355,475
823.694824,463
823.813354,470
823.931885,459
824.050354,467
824.168884,475
824.287354,455
824.405823,459
824.524353,463
824.642822,467
824.761353,469
824.879822,469
824.998291,478
825.116699,448
825.235291,483
825.353699,459
825.472168,468
825.590637,448
825.709106,474
825.827576,461
825.946045,460
826.064453,457
826.182983,471
826.301392,460
826.4198,481
826.53833,436
826.656738,471
826.775208,453
826.893677,478
827.012024,455
827.130493,452
827.248962,460
827.36731,458
827.485779,470
827.604248,484
827.722595,463
827.841064,454
827.959412,460
828.077942,468
828.196289,459
828.314636,461
828.433105,450
828.551514,486
828.669861,467
828.78833,460
828.906677,475
829.025085,460
829.143433,467
829.261841,447
829.38031,466
829.498657,456
829.617004,446
829.735413,461
829.85376,457
829.972107,475
830.090515,452
830.208862,447
830.327209,465
830.445557,461
830.563904,455
830.682312,465
830.800659,463
830.919006,452
831.037354,458
831.155701,472
831.274048,476
831.392395,473
831.51062,461
831.629028,447
831.747314,482
831.865662,474
831.984009,461
832.102356,466
832.220642,444
832.338928,474
832.457275,469
832.575623,460
832.693909,474
832.812134,463
832.930481,464
833.048828,467
833.167114,470
833.2854,455
833.403687,458
833.521973,477
833.640259,462
833.758545,449
833.876831,457
833.995056,442
834.113281,460
834.231628,452
834.349915,457
834.468201,455
834.586426,459
834.704651,457
834.822998,471
834.941162,466
835.059448,447
835.177673,458
835.295959,453
835.414246,475
835.53241,458
835.650635,462
835.768921,453
835.887146,459
836.005371,463
836.123596,459
836.241821,452
836.360046,451
836.478271,471
836.596497,451
836.714722,447
836.832886,471
836.95105,461
837.069336,468
837.1875,460
837.305725,457
837.423889,446
837.542053,446
837.660339,450
837.778503,465
837.896667,458
838.014832,489
838.132996,448
838.25116,475
838.369385,457
838.487488,455
838.605713,475
838.723877,463
838.84198,457
838.960205,471
839.078308,461
839.196472,472
839.314636,466
839.4328,469
839.550964,465
839.669067,474
839.787231,475
839.905396,467
840.023499,487
840.141602,464
840.259766,460
840.377869,462
840.495972,468
840.614136,471
840.732239,468
840.850342,466
840.968445,458
841.086548,460
841.204651,467
841.322754,463
841.440918,473
841.55896,486
841.677002,445
841.795166,485
841.913208,476
842.031311,479
842.149353,453
842.267456,476
842.385498,455
842.503601,460
842.621643,463
842.739746,470
842.857788,441
842.97583,476
843.093933,466
843.211975,463
843.330017,469
843.44812,471
843.566101,474
843.684204,473
843.802246,463
843.920227,487
844.038269,464
844.156311,475
844.274292,467
844.392395,467
844.510376,462
844.628357,455
844.74646,450
844.864441,446
844.982422,495
845.100403,469
845.218384,454
845.336426,462
845.454468,460
845.572449,473
845.69043,446
845.808411,475
845.926453,444
846.044373,465
846.162354,476
846.280396,457
846.398315,472
846.516296,458
846.634216,461
846.752197,478
846.870178,456
846.988098,453
847.106079,466
847.22406,453
847.34198,461
847.4599,468
847.577881,472
847.695801,454
847.813782,443
847.931641,455
848.049561,461
848.167603,455
848.285461,461
848.403381,463
848.521362,447
848.639221,455
848.75708,473
848.875,475
848.99292,473
849.110901,455
849.22876,465
849.34668,470
849.464539,455
849.582458,481
849.700317,454
849.818176,474
849.936096,463
850.053955,462
850.171875,479
850.289673,473
850.407593,466
850.525452,475
850.643311,456
850.761169,479
850.878967,448
850.996887,447
851.114746,473
851.232544,469
851.350403,448
851.468262,471
851.58606,469
851.703979,472
851.821777,484
851.939636,463
852.057434,458
852.175232,480
852.293091,464
852.410889,456
852.528687,454
852.646545,476
852.764343,492
852.88208,461
852.999939,469
853.117676,455
853.235535,465
853.353271,455
853.471069,478
853.588928,466
853.706604,485
853.824402,441
853.9422,444
854.059998,462
854.177734,447
854.295532,459
854.413269,467
854.531006,447
854.648804,460
854.766541,465
854.884277,466
855.002014,463
855.119751,455
855.237549,462
855.355225,461
855.473022,460
855.590698,471
855.708435,477
855.826172,468
855.943848,469
856.061646,471
856.179321,476
856.296997,465
856.414795,464
856.53241,454
856.650085,456
856.767822,453
856.885559,482
857.003174,472
857.120911,483
857.238586,464
857.356201,479
857.473938,474
857.591614,494
857.709351,474
857.826965,448
857.944641,457
858.062317,474
858.179993,464
858.297668,477
858.415283,458
858.532959,470
858.650574,465
858.768188,451
858.885803,473
859.003479,470
859.121094,450
859.23877,460
859.356384,471
859.473999,482
859.591675,461
859.709229,475
859.826843,472
859.944458,489
860.062012,479
860.179626,478
860.297302,470
860.414856,473
860.532471,466
860.650024,483
860.767639,463
860.885193,461
861.002808,465
861.120361,448
861.237976,462
861.35553,466
861.473022,448
861.590698,471
861.708191,464
861.825745,470
861.943298,465
862.060852,469
862.178406,465
862.295959,445
862.413513,455
862.531006,484
862.64856,445
862.766113,435
862.883667,465
863.00116,468
863.118713,453
863.236206,466
863.353699,453
863.471252,472
863.588745,453
863.706177,484
863.82373,466
863.941162,466
864.058716,486
864.176208,476
864.29364,463
864.411194,483
864.528687,452
864.646118,456
864.763611,452
864.881042,461
864.998535,456
865.116028,479
865.233459,452
865.350891,461
865.468384,457
865.585754,466
865.703308,448
865.820679,477
865.938171,449
866.055542,460
866.173035,451
866.290466,452
866.407837,467
866.52533,459
866.6427,455
866.760071,477
866.877563,443
866.994934,454
867.112305,452
867.229736,462
867.347107,456
867.464539,465
867.58197,482
867.699341,473
867.81665,488
867.934082,465
868.051453,466
868.168823,464
868.286194,480
868.403564,468
868.520935,464
868.638306,456
868.755676,455
868.872986,474
868.990295,478
869.107727,486
869.225037,442
869.342346,479
869.459717,459
869.577026,474
869.694336,453
869.811707,496
869.929016,467
870.046326,471
870.163635,463
870.280945,473
870.398254,480
870.515564,471
870.632812,447
870.750183,476
870.867432,475
870.984741,462
871.102051,473
871.219299,476
871.336609,485
871.453918,486
871.571106,446
871.688416,483
871.805664,477
871.922852,467
872.040222,459
872.157471,453
872.274719,477
872.391968,477
872.509155,478
872.626465,481
872.743652,469
872.860962,479
872.978149,470
873.095337,473
873.212646,467
873.329834,472
873.44696,466
873.564209,470
873.681396,474
873.798645,456
873.915894,469
874.03302,478
874.150208,474
874.267456,470
874.384583,480
874.501831,509
874.618958,478
874.736145,490
874.853333,490
874.970459,455
875.087646,462
875.204834,485
875.32196,501
875.439148,489
875.556274,482
875.673401,475
875.790527,477
875.907715,480
876.024841,461
876.141968,468
876.259094,492
876.376282,460
876.493347,462
876.610474,475
876.7276,485
876.844727,470
876.961853,462
877.078918,463
877.195984,463
877.313171,484
877.430237,453
877.547302,478
877.664368,473
877.781433,480
877.898499,461
878.015625,466
878.13269,461
878.249695,483
878.366821,469
878.483887,485
878.600952,468
878.717957,467
878.834961,466
878.952087,475
879.069092,469
879.186157,488
879.303162,449
879.420227,483
879.537231,464
879.654236,460
879.77124,462
879.888306,465
880.005249,464
880.122314,467
880.239319,453
880.356323,453
880.473328,462
880.590271,459
880.707275,467
880.824341,448
880.941284,455
881.058228,466
881.175232,475
881.292236,483
881.40918,477
881.526123,450
881.643066,444
881.760071,461
881.877014,457
881.993958,483
882.11084,456
882.227783,454
882.344727,453
882.46167,467
882.578613,459
882.695618,449
882.812439,454
882.929382,463
883.046326,457
883.163208,456
883.280151,443
883.397034,476
883.513916,442
883.630798,462
883.747742,465
883.864563,464
883.981506,467
884.098389,482
884.21521,459
884.332153,466
884.448975,465
884.565796,481
884.682678,492
884.7995,473
884.916443,482
885.033264,492
885.150085,489
885.266968,499
885.383789,497
885.500671,507
885.617493,503
885.734314,498
885.851196,519
885.967896,486
886.084717,491
886.201599,507
886.318359,506
886.435181,500
886.552002,480
886.668762,486
886.785645,488
886.902344,502
887.019165,477
887.135925,496
887.252747,473
887.369446,485
887.486267,474
887.603027,475
887.719788,479
887.836548,477
887.953247,462
888.070068,493
888.186829,461
888.303528,462
888.420288,470
888.536987,478
888.653687,485
888.770447,462
888.887146,462
889.003967,473
889.120667,455
889.237305,461
889.354065,479
889.470703,458
889.587463,461
889.704163,491
889.820862,451
889.937561,470
890.054199,464
890.170837,458
890.287598,463
890.404236,456
890.520874,460
890.637634,468
890.754211,462
890.87085,457
890.987549,465
891.104187,479
891.220886,473
891.337463,450
891.454102,463
891.57074,470
891.687378,451
891.804077,460
891.920654,444
892.037231,474
892.15387,477
892.270447,452
892.387085,448
892.503723,436
892.6203,466
892.736877,461
892.853516,455
892.970032,478
893.08667,453
893.203186,471
893.319763,464
893.43634,494
893.552917,474
893.669556,468
893.786011,476
893.902588,460
894.019165,465
894.135681,466
894.252197,476
894.368835,479
894.485291,457
894.601868,468
894.718384,469
894.8349,459
894.951355,446
895.067932,461
895.184448,460
895.300964,474
895.417419,461
895.533936,456
895.650452,446
895.766907,456
895.883423,463
895.999878,479
896.116333,467
896.232849,472
896.349304,475
896.465759,480
896.582214,475
896.698669,475
896.815125,463
896.931641,462
897.048035,466
897.164551,471
897.280884,471
897.397339,469
897.513794,470
897.630249,466
897.746582,460
897.863098,453
897.979431,460
898.095886,455
898.212341,478
898.328674,480
898.445129,448
898.561462,467
898.677795,480
898.794312,467
898.910645,487
899.026978,467
899.143433,471
899.259766,473
899.37616,472
899.492493,461
899.608765,461
899.725159,479
899.841553,474
899.957947,486
900.07428,462
900.190552,464
900.306946,460
900.423157,475
900.53949,451
900.655884,470
900.772156,463
900.888489,452
901.004822,451
901.121033,477
901.237366,474
901.353699,459
901.46991,483
901.586304,491
901.702515,487
901.818787,460
901.93512,487
902.051331,477
902.167603,476
902.283875,475
902.400085,483
902.516418,483
902.632629,475
902.74884,490
902.865112,489
902.981384,495
903.097595,491
903.213867,481
903.330017,474
903.446289,482
903.5625,479
903.67865,473
903.794922,493
903.911072,488
904.027344,478
904.143494,481
904.259705,487
904.375916,482
904.492065,471
904.608215,490
904.724426,464
904.840576,480
904.956726,479
905.072876,490
905.189087,479
905.305176,477
905.421387,465
905.537537,488
905.653687,482
905.769775,498
905.885925,480
906.002014,478
906.118164,472
906.234314,456
906.350403,476
906.466492,473
906.582642,470
906.69873,477
906.814758,468
906.930908,481
907.046936,474
907.163086,473
907.279175,470
907.395264,465
907.511353,465
907.62738,483
907.743408,464
907.859497,468
907.975525,469
908.091553,473
908.207703,463
908.32373,474
908.439758,467
908.555786,449
908.671814,454
908.787842,482
908.90387,485
909.019775,496
909.135864,485
909.251892,456
909.367859,464
909.483826,486
909.599854,461
909.715881,482
909.831848,481
909.947815,468
910.063782,476
910.179749,491
910.295776,482
910.411743,475
910.527649,474
910.643616,481
910.759583,469
910.875488,469
910.991455,465
911.107361,472
911.223267,464
911.339294,467
911.4552,468
911.571106,471
911.687073,457
911.802979,483
911.918823,458
912.034729,476
912.150635,453
912.266602,483
912.382446,467
912.498352,465
912.614197,483
912.730103,489
912.846008,453
