792.44574,642
792.56488,704
792.68396,702
792.80304,690
792.92218,645
793.041199,638
793.160339,627
793.279419,637
793.398499,624
793.517578,624
793.636658,624
793.755737,617
793.874817,622
793.993896,620
794.112976,614
794.232056,619
794.351074,606
794.470215,610
794.589233,593
794.708313,601
794.827393,591
794.946411,616
795.065552,608
795.18457,611
795.303589,627
795.422668,618
795.541687,598
795.660767,597
795.779846,589
795.898865,603
796.017883,610
796.136963,590
796.255981,610
796.375061,580
796.49408,606
796.613037,611
796.732117,579
796.851135,562
796.970154,594
797.089233,579
797.208191,596
797.327271,570
797.446228,569
797.565186,600
797.684265,592
797.803223,590
797.922241,582
798.04126,581
798.160278,579
798.279297,590
798.398315,589
798.517273,576
798.636292,561
798.75531,570
798.874268,586
798.993286,557
799.112244,577
799.231323,568
799.350281,574
799.469238,577
799.588257,574
799.707153,573
799.826111,599
799.945129,575
800.064087,594
800.183044,557
800.302063,598
800.421021,585
800.539978,571
800.658936,577
800.777893,554
800.896912,576
801.015747,590
801.134705,559
801.253723,579
801.37262,586
801.491638,554
801.610535,579
801.729492,576
801.84845,577
801.967407,574
802.086243,591
802.205261,603
802.324158,577
802.443115,592
802.562073,574
802.680969,571
802.799927,564
802.918762,595
803.037659,599
803.156677,609
803.275574,573
803.39447,579
803.513428,600
803.632263,603
803.751221,584
803.870117,588
803.989014,582
804.107971,578
804.226746,580
804.345642,577
804.4646,594
804.583496,592
804.702393,611
804.821228,574
804.940125,587
805.059021,592
805.177917,597
805.296814,594
805.415649,589
805.534546,614
805.653442,590
805.772278,598
805.891113,614
806.01001,606
806.128906,606
806.247742,594
806.366577,607
806.485413,587
806.604309,604
806.723145,597
806.84198,594
806.960876,608
807.079712,600
807.198486,588
807.317383,625
807.436218,588
807.554993,590
807.673889,621
807.792725,609
807.91156,596
808.030396,608
808.14917,617
808.268005,612
808.386841,606
808.505676,597
808.624451,599
808.743286,611
808.862122,615
808.980896,615
809.099731,604
809.218506,614
809.337341,604
809.456116,626
809.57489,619
809.693726,602
809.8125,600
809.931274,636
810.050049,633
810.168884,641
810.287659,617
810.406372,601
810.525269,644
810.643982,612
810.762756,599
810.881531,623
811.000305,622
811.11908,599
811.237854,623
811.356567,624
811.475403,646
811.594116,624
811.71283,633
811.831604,614
811.950378,631
812.069153,623
812.187927,641
812.30658,607
812.425415,628
812.544128,628
812.662781,607
812.781616,626
812.900269,650
813.019043,606
813.137756,631
813.256531,621
813.375244,616
813.493896,622
813.612671,626
813.731384,630
813.850037,628
813.96875,597
814.087524,639
814.206238,622
814.324951,614
814.443604,612
814.562256,615
814.68103,616
814.799683,602
814.918335,618
815.037109,602
815.155762,602
815.274475,628
815.393188,592
815.511841,600
815.630554,598
815.749146,621
815.867859,590
815.986572,592
816.105164,631
816.223877,574
816.342529,612
816.461182,623
816.579895,585
816.698486,597
816.817139,631
816.935791,591
817.054504,570
817.173096,615
817.291748,608
817.4104,626
817.529053,587
817.647644,591
817.766235,578
817.884949,581
818.00354,583
818.122192,561
818.240845,539
818.359436,560
818.478088,527
818.59668,544
818.715271,539
818.833923,547
818.952515,522
819.071106,533
819.189758,534
819.30835,523
819.426941,530
819.545532,524
819.664124,515
819.782715,518
819.901306,487
820.019897,536
820.138489,515
820.25708,495
820.375671,507
820.494202,507
820.612732,495
820.731384,497
820.849915,483
820.968506,500
821.087097,499
821.205627,505
821.324158,505
821.442749,507
821.561279,485
821.679871,499
821.798401,477
821.916931,501
822.035461,500
822.154053,506
822.272583,471
822.391174,492
822.509583,469
822.628174,513
822.746704,484
822.865234,471
822.983765,491
823.102295,507
823.220825,488
823.339294,488
823.457825,491
823.576355,493
823.694824,497
823.813354,513
823.931885,502
824.050354,485
824.168884,492
824.287354,488
824.405823,492
824.524353,496
824.642822,464
824.761353,479
824.879822,487
824.998291,491
825.116699,501
825.235291,496
825.353699,481
825.472168,489
825.590637,485
825.709106,491
825.827576,487
825.946045,489
826.064453,458
826.182983,483
826.301392,460
826.4198,489
826.53833,478
826.656738,466
826.775208,467
826.893677,467
827.012024,476
827.130493,461
827.248962,470
827.36731,474
827.485779,462
827.604248,459
827.722595,442
827.841064,470
827.959412,455
828.077942,458
828.196289,446
828.314636,474
828.433105,461
828.551514,455
828.669861,488
828.78833,470
828.906677,463
829.025085,447
829.143433,457
829.261841,463
829.38031,465
829.498657,460
829.617004,477
829.735413,477
829.85376,454
829.972107,469
830.090515,457
830.208862,454
830.327209,477
830.445557,467
830.563904,467
830.682312,471
830.800659,453
830.919006,470
831.037354,472
831.155701,469
831.274048,488
831.392395,477
831.51062,454
831.629028,454
831.747314,471
831.865662,467
831.984009,457
832.102356,456
832.220642,470
832.338928,459
832.457275,464
832.575623,456
832.693909,481
832.812134,474
832.930481,462
833.048828,470
833.167114,467
833.2854,464
833.403687,463
833.521973,455
833.640259,458
833.758545,495
833.876831,467
833.995056,474
834.113281,452
834.231628,474
834.349915,458
834.468201,490
834.586426,446
834.704651,476
834.822998,448
834.941162,477
835.059448,477
835.177673,480
835.295959,466
835.414246,453
835.53241,478
835.650635,476
835.768921,476
835.887146,466
836.005371,475
836.123596,467
836.241821,477
836.360046,493
836.478271,480
836.596497,485
836.714722,469
836.832886,483
836.95105,461
837.069336,490
837.1875,483
837.305725,496
837.423889,486
837.542053,490
837.660339,487
837.778503,495
837.896667,498
838.014832,474
838.132996,474
838.25116,475
838.369385,475
838.487488,492
838.605713,487
838.723877,484
838.84198,471
838.960205,473
839.078308,480
839.196472,510
839.314636,464
839.4328,479
839.550964,479
839.669067,469
839.787231,466
839.905396,469
840.023499,479
840.141602,483
840.259766,461
840.377869,479
840.495972,471
840.614136,473
840.732239,477
840.850342,470
840.968445,488
841.086548,468
841.204651,473
841.322754,477
841.440918,461
841.55896,472
841.677002,465
841.795166,467
841.913208,482
842.031311,473
842.149353,490
842.267456,466
842.385498,471
842.503601,448
842.621643,472
842.739746,470
842.857788,467
842.97583,457
843.093933,459
843.211975,449
843.330017,456
843.44812,477
843.566101,484
843.684204,478
843.802246,495
843.920227,472
844.038269,464
844.156311,462
844.274292,476
844.392395,472
844.510376,482
844.628357,472
844.74646,474
844.864441,465
844.982422,448
845.100403,476
845.218384,459
845.336426,469
845.454468,466
845.572449,473
845.69043,460
845.808411,473
845.926453,467
846.044373,457
846.162354,457
846.280396,481
846.398315,456
846.516296,456
846.634216,477
846.752197,466
846.870178,460
846.988098,460
847.106079,466
847.22406,470
847.34198,466
847.4599,465
847.577881,467
847.695801,476
847.813782,476
847.931641,472
848.049561,466
848.167603,464
848.285461,474
848.403381,473
848.521362,479
848.639221,485
848.75708,462
848.875,478
848.99292,475
849.110901,476
849.22876,472
849.34668,487
849.464539,483
849.582458,464
849.700317,461
849.818176,474
849.936096,460
850.053955,470
850.171875,469
850.289673,478
850.407593,451
850.525452,471
850.643311,481
850.761169,475
850.878967,472
850.996887,474
851.114746,477
851.232544,463
851.350403,451
851.468262,458
851.58606,471
851.703979,476
851.821777,471
851.939636,477
852.057434,466
852.175232,477
852.293091,477
852.410889,454
852.528687,483
852.646545,471
852.764343,465
852.88208,464
852.999939,459
853.117676,466
853.235535,468
853.353271,467
853.471069,469
853.588928,471
853.706604,456
853.824402,468
853.9422,467
854.059998,459
854.177734,483
854.295532,484
854.413269,453
854.531006,446
854.648804,456
854.766541,466
854.884277,497
855.002014,472
855.119751,471
855.237549,478
855.355225,471
855.473022,469
855.590698,460
855.708435,472
855.826172,470
855.943848,467
856.061646,459
856.179321,454
856.296997,460
856.414795,475
856.53241,480
856.650085,490
856.767822,460
856.885559,480
857.003174,458
857.120911,476
857.238586,472
857.356201,481
857.473938,472
857.591614,486
857.709351,467
857.826965,479
857.944641,485
858.062317,461
858.179993,467
858.297668,474
858.415283,483
858.532959,458
858.650574,478
858.768188,494
858.885803,470
859.003479,484
859.121094,465
859.23877,469
859.356384,460
859.473999,483
859.591675,470
859.709229,467
859.826843,470
859.944458,478
860.062012,452
860.179626,483
860.297302,486
860.414856,464
860.532471,442
860.650024,464
860.767639,470
860.885193,465
861.002808,493
861.120361,459
861.237976,447
861.35553,478
861.473022,457
861.590698,465
861.708191,457
861.825745,480
861.943298,477
862.060852,468
862.178406,452
862.295959,473
862.413513,469
862.531006,467
862.64856,454
862.766113,462
862.883667,466
863.00116,461
863.118713,462
863.236206,445
863.353699,465
863.471252,462
863.588745,456
863.706177,463
863.82373,469
863.941162,488
864.058716,455
864.176208,465
864.29364,484
864.411194,476
864.528687,451
864.646118,473
864.763611,472
864.881042,464
864.998535,471
865.116028,472
865.233459,453
865.350891,467
865.468384,461
865.585754,463
865.703308,456
865.820679,482
865.938171,475
866.055542,471
866.173035,479
866.290466,481
866.407837,473
866.52533,498
866.6427,468
866.760071,472
866.877563,474
866.994934,480
867.112305,445
867.229736,490
867.347107,475
867.464539,459
867.58197,481
867.699341,481
867.81665,471
867.934082,460
868.051453,462
868.168823,462
868.286194,474
868.403564,479
868.520935,474
868.638306,480
868.755676,459
868.872986,485
868.990295,459
869.107727,483
869.225037,466
869.342346,471
869.459717,458
869.577026,471
869.694336,459
869.811707,466
869.929016,467
870.046326,484
870.163635,466
870.280945,458
870.398254,470
870.515564,467
870.632812,458
870.750183,480
870.867432,482
870.984741,476
871.102051,471
871.219299,492
871.336609,452
871.453918,474
871.571106,466
871.688416,497
871.805664,467
871.922852,481
872.040222,467
872.157471,470
872.274719,460
872.391968,483
872.509155,478
872.626465,471
872.743652,467
872.860962,476
872.978149,469
873.095337,482
873.212646,485
873.329834,470
873.44696,450
873.564209,463
873.681396,482
873.798645,486
873.915894,469
874.03302,462
874.150208,458
874.267456,478
874.384583,438
874.501831,489
874.618958,473
874.736145,467
874.853333,473
874.970459,452
875.087646,448
875.204834,486
875.32196,453
875.439148,493
875.556274,467
875.673401,480
875.790527,457
875.907715,476
876.024841,475
876.141968,481
876.259094,464
876.376282,477
876.493347,463
876.610474,467
876.7276,457
876.844727,481
876.961853,459
877.078918,479
877.195984,484
877.313171,478
877.430237,480
877.547302,466
877.664368,464
877.781433,477
877.898499,464
878.015625,491
878.13269,457
878.249695,481
878.366821,458
878.483887,480
878.600952,475
878.717957,507
878.834961,468
878.952087,494
879.069092,475
879.186157,493
879.303162,465
879.420227,472
879.537231,474
879.654236,450
879.77124,478
879.888306,499
880.005249,460
880.122314,476
880.239319,479
880.356323,475
880.473328,463
880.590271,462
880.707275,463
880.824341,475
880.941284,483
881.058228,468
881.175232,475
881.292236,488
881.40918,469
881.526123,467
881.643066,456
881.760071,456
881.877014,450
881.993958,487
882.11084,466
882.227783,487
882.344727,454
882.46167,475
882.578613,469
882.695618,486
882.812439,460
882.929382,491
883.046326,478
883.163208,490
883.280151,465
883.397034,457
883.513916,468
883.630798,468
883.747742,463
883.864563,466
883.981506,462
884.098389,464
884.21521,476
884.332153,487
884.448975,470
884.565796,482
884.682678,459
884.7995,484
884.916443,473
885.033264,488
885.150085,488
885.266968,489
885.383789,478
885.500671,475
885.617493,489
885.734314,485
885.851196,498
885.967896,495
886.084717,482
886.201599,508
886.318359,480
886.435181,499
886.552002,483
886.668762,486
886.785645,487
886.902344,478
887.019165,479
887.135925,475
887.252747,498
887.369446,484
887.486267,479
887.603027,492
887.719788,482
887.836548,474
887.953247,473
888.070068,503
888.186829,463
888.303528,489
888.420288,467
888.536987,498
888.653687,481
888.770447,476
888.887146,480
889.003967,476
889.120667,478
889.237305,485
889.354065,484
889.470703,476
889.587463,465
889.704163,507
889.820862,471
889.937561,480
890.054199,472
890.170837,482
890.287598,474
890.404236,478
890.520874,468
890.637634,477
890.754211,484
890.87085,494
890.987549,466
891.104187,472
891.220886,458
891.337463,485
891.454102,482
891.57074,482
891.687378,491
891.804077,490
891.920654,479
892.037231,488
892.15387,485
892.270447,478
892.387085,463
892.503723,487
892.6203,491
892.736877,489
892.853516,468
892.970032,466
893.08667,466
893.203186,500
893.319763,486
893.43634,498
893.552917,482
893.669556,488
893.786011,471
893.902588,486
894.019165,463
894.135681,493
894.252197,465
894.368835,500
894.485291,499
894.601868,493
894.718384,486
894.8349,484
894.951355,486
895.067932,474
895.184448,467
895.300964,489
895.417419,463
895.533936,480
895.650452,477
895.766907,478
895.883423,491
895.999878,486
896.116333,467
896.232849,482
896.349304,488
896.465759,479
896.582214,474
896.698669,502
896.815125,479
896.931641,459
897.048035,482
897.164551,491
897.280884,476
897.397339,481
897.513794,478
897.630249,493
897.746582,477
897.863098,507
897.979431,463
898.095886,481
898.212341,478
898.328674,496
898.445129,499
898.561462,472
898.677795,468
898.794312,486
898.910645,487
899.026978,487
899.143433,489
899.259766,496
899.37616,473
899.492493,481
899.608765,466
899.725159,490
899.841553,471
899.957947,458
900.07428,472
900.190552,497
900.306946,486
900.423157,483
900.53949,471
900.655884,494
900.772156,502
900.888489,485
901.004822,487
901.121033,489
901.237366,473
901.353699,491
901.46991,489
901.586304,511
901.702515,474
901.818787,486
901.93512,473
902.051331,480
902.167603,488
902.283875,494
902.400085,492
902.516418,484
902.632629,487
902.74884,485
902.865112,490
902.981384,496
903.097595,493
903.213867,475
903.330017,488
903.446289,506
903.5625,489
903.67865,494
903.794922,484
903.911072,483
904.027344,505
904.143494,478
904.259705,484
904.375916,491
904.492065,512
904.608215,483
904.724426,464
904.840576,481
904.956726,488
905.072876,508
905.189087,479
905.305176,508
905.421387,488
905.537537,479
905.653687,488
905.769775,496
905.885925,496
906.002014,486
906.118164,464
906.234314,496
906.350403,468
906.466492,492
906.582642,499
906.69873,499
906.814758,489
906.930908,497
907.046936,483
907.163086,513
907.279175,492
907.395264,497
907.511353,494
907.62738,496
907.743408,484
907.859497,490
907.975525,496
908.091553,503
908.207703,476
908.32373,490
908.439758,491
908.555786,485
908.671814,463
908.787842,484
908.90387,485
909.019775,488
909.135864,481
909.251892,470
909.367859,487
909.483826,475
909.599854,487
909.715881,498
909.831848,484
909.947815,520
910.063782,471
910.179749,494
910.295776,498
910.411743,496
910.527649,492
910.643616,486
910.759583,495
910.875488,486
910.991455,494
911.107361,475
911.223267,500
911.339294,470
911.4552,478
911.571106,476
911.687073,487
911.802979,510
911.918823,472
912.034729,499
912.150635,486
912.266602,515
912.382446,480
912.498352,477
912.614197,480
912.730103,499
912.846008,488
792.44574,627
792.56488,693
792.68396,715
792.80304,716
792.92218,663
793.041199,609
793.160339,634
793.279419,636
793.398499,644
793.517578,613
793.636658,609
793.755737,645
793.874817,663
793.993896,650
794.112976,609
794.232056,606
794.351074,602
794.470215,609
794.589233,618
794.708313,609
794.827393,593
794.946411,602
795.065552,583
795.18457,622
795.303589,605
795.422668,606
795.541687,623
795.660767,589
795.779846,589
795.898865,591
796.017883,613
796.136963,599
796.255981,587
796.375061,577
796.49408,602
796.613037,601
796.732117,597
796.851135,592
796.970154,599
797.089233,580
797.208191,593
797.327271,587
797.446228,614
797.565186,580
797.684265,578
797.803223,573
797.922241,583
798.04126,564
798.160278,591
798.279297,574
798.398315,587
798.517273,577
798.636292,578
798.75531,571
798.874268,593
798.993286,580
799.112244,607
799.231323,576
799.350281,568
799.469238,563
799.588257,590
799.707153,569
799.826111,579
799.945129,566
800.064087,587
800.183044,582
800.302063,560
800.421021,608
800.539978,607
800.658936,579
800.777893,606
800.896912,572
801.015747,584
801.134705,585
801.253723,577
801.37262,583
801.491638,596
801.610535,571
801.729492,577
801.84845,573
801.967407,571
802.086243,551
802.205261,582
802.324158,583
802.443115,585
802.562073,575
802.680969,583
802.799927,582
802.918762,576
803.037659,612
803.156677,614
803.275574,569
803.39447,607
803.513428,573
803.632263,593
803.751221,584
803.870117,601
803.989014,591
804.107971,576
804.226746,595
804.345642,589
804.4646,588
804.583496,604
804.702393,590
804.821228,595
804.940125,606
805.059021,575
805.177917,604
805.296814,582
805.415649,591
805.534546,603
805.653442,636
805.772278,580
805.891113,602
806.01001,623
806.128906,615
806.247742,615
806.366577,605
806.485413,625
806.604309,584
806.723145,600
806.84198,599
806.960876,614
807.079712,620
807.198486,582
807.317383,592
807.436218,616
807.554993,603
807.673889,610
807.792725,615
807.91156,618
808.030396,646
808.14917,617
808.268005,593
808.386841,621
808.505676,612
808.624451,598
808.743286,620
808.862122,618
808.980896,617
809.099731,628
809.218506,629
809.337341,628
809.456116,588
809.57489,615
809.693726,625
809.8125,585
809.931274,612
810.050049,604
810.168884,621
810.287659,631
810.406372,623
810.525269,634
810.643982,627
810.762756,627
810.881531,616
811.000305,603
811.11908,623
811.237854,610
811.356567,610
811.475403,626
811.594116,628
811.71283,634
811.831604,625
811.950378,636
812.069153,630
812.187927,614
812.30658,619
812.425415,641
812.544128,642
812.662781,629
812.781616,628
812.900269,589
813.019043,639
813.137756,624
813.256531,639
813.375244,621
813.493896,628
813.612671,652
813.731384,612
813.850037,629
813.96875,632
814.087524,634
814.206238,622
814.324951,620
814.443604,628
814.562256,617
814.68103,599
814.799683,615
814.918335,598
815.037109,590
815.155762,621
815.274475,618
815.393188,615
815.511841,611
815.630554,628
815.749146,624
815.867859,599
815.986572,605
816.105164,594
816.223877,597
816.342529,587
816.461182,600
816.579895,605
816.698486,628
816.817139,609
816.935791,604
817.054504,599
817.173096,624
817.291748,606
817.4104,595
817.529053,595
817.647644,585
817.766235,561
817.884949,572
818.00354,587
818.122192,570
818.240845,562
818.359436,550
818.478088,532
818.59668,552
818.715271,518
818.833923,533
818.952515,516
819.071106,513
819.189758,530
819.30835,547
819.426941,516
819.545532,512
819.664124,513
819.782715,523
819.901306,516
820.019897,502
820.138489,506
820.25708,504
820.375671,519
820.494202,523
820.612732,509
820.731384,519
820.849915,498
820.968506,511
821.087097,497
821.205627,492
821.324158,482
821.442749,512
821.561279,499
821.679871,503
821.798401,505
821.916931,520
822.035461,471
822.154053,506
822.272583,480
822.391174,489
822.509583,504
822.628174,499
822.746704,476
822.865234,479
822.983765,495
823.102295,495
823.220825,500
823.339294,495
823.457825,474
823.576355,482
823.694824,489
823.813354,502
823.931885,484
824.050354,488
824.168884,511
824.287354,505
824.405823,470
824.524353,497
824.642822,477
824.761353,497
824.879822,493
824.998291,490
825.116699,499
825.235291,497
825.353699,486
825.472168,487
825.590637,500
825.709106,481
825.827576,480
825.946045,474
826.064453,489
826.182983,456
826.301392,470
826.4198,495
826.53833,484
826.656738,498
826.775208,460
826.893677,462
827.012024,466
827.130493,485
827.248962,459
827.36731,482
827.485779,485
827.604248,477
827.722595,511
827.841064,468
827.959412,465
828.077942,478
828.196289,471
828.314636,475
828.433105,472
828.551514,444
828.669861,469
828.78833,464
828.906677,487
829.025085,497
829.143433,459
829.261841,455
829.38031,486
829.498657,467
829.617004,485
829.735413,474
829.85376,466
829.972107,457
830.090515,460
830.208862,480
830.327209,473
830.445557,479
830.563904,457
830.682312,463
830.800659,470
830.919006,464
831.037354,462
831.155701,472
831.274048,459
831.392395,472
831.51062,461
831.629028,471
831.747314,468
831.865662,463
831.984009,473
832.102356,465
832.220642,444
832.338928,478
832.457275,471
832.575623,466
832.693909,464
832.812134,467
832.930481,472
833.048828,480
833.167114,470
833.2854,455
833.403687,467
833.521973,476
833.640259,453
833.758545,465
833.876831,465
833.995056,475
834.113281,468
834.231628,480
834.349915,479
834.468201,465
834.586426,461
834.704651,488
834.822998,448
834.941162,465
835.059448,474
835.177673,469
835.295959,477
835.414246,480
835.53241,444
835.650635,473
835.768921,468
835.887146,478
836.005371,459
836.123596,472
836.241821,475
836.360046,464
836.478271,489
836.596497,476
836.714722,482
836.832886,505
836.95105,487
837.069336,495
837.1875,468
837.305725,469
837.423889,468
837.542053,486
837.660339,494
837.778503,491
837.896667,486
838.014832,486
838.132996,493
838.25116,500
838.369385,465
838.487488,484
838.605713,497
838.723877,502
838.84198,470
838.960205,474
839.078308,492
839.196472,497
839.314636,466
839.4328,480
839.550964,482
839.669067,509
839.787231,485
839.905396,499
840.023499,485
840.141602,477
840.259766,476
840.377869,498
840.495972,482
840.614136,504
840.732239,481
840.850342,476
840.968445,466
841.086548,481
841.204651,491
841.322754,491
841.440918,483
841.55896,478
841.677002,488
841.795166,480
841.913208,494
842.031311,474
842.149353,471
842.267456,480
842.385498,464
842.503601,479
842.621643,461
842.739746,449
842.857788,442
842.97583,485
843.093933,461
843.211975,476
843.330017,467
843.44812,461
843.566101,481
843.684204,466
843.802246,459
843.920227,460
844.038269,469
844.156311,473
844.274292,457
844.392395,489
844.510376,468
844.628357,471
844.74646,470
844.864441,453
844.982422,456
845.100403,459
845.218384,460
845.336426,475
845.454468,474
845.572449,490
845.69043,477
845.808411,498
845.926453,463
846.044373,469
846.162354,481
846.280396,479
846.398315,464
846.516296,467
846.634216,472
846.752197,479
846.870178,463
846.988098,465
847.106079,481
847.22406,462
847.34198,463
847.4599,475
847.577881,460
847.695801,489
847.813782,478
847.931641,472
848.049561,472
848.167603,475
848.285461,454
848.403381,473
848.521362,485
848.639221,489
848.75708,459
848.875,469
848.99292,458
849.110901,481
849.22876,477
849.34668,475
849.464539,475
849.582458,460
849.700317,459
849.818176,484
849.936096,468
850.053955,472
850.171875,474
850.289673,491
850.407593,479
850.525452,477
850.643311,465
850.761169,465
850.878967,482
850.996887,471
851.114746,473
851.232544,465
851.350403,479
851.468262,486
851.58606,459
851.703979,474
851.821777,470
851.939636,475
852.057434,442
852.175232,483
852.293091,478
852.410889,481
852.528687,486
852.646545,473
852.764343,459
852.88208,487
852.999939,483
853.117676,480
853.235535,456
853.353271,469
853.471069,485
853.588928,486
853.706604,472
853.824402,470
853.9422,474
854.059998,473
854.177734,481
854.295532,473
854.413269,470
854.531006,476
854.648804,456
854.766541,472
854.884277,481
855.002014,480
855.119751,459
855.237549,461
855.355225,488
855.473022,471
855.590698,469
855.708435,484
855.826172,462
855.943848,472
856.061646,471
856.179321,487
856.296997,453
856.414795,487
856.53241,465
856.650085,473
856.767822,465
856.885559,473
857.003174,477
857.120911,468
857.238586,477
857.356201,479
857.473938,471
857.591614,484
857.709351,471
857.826965,487
857.944641,482
858.062317,471
858.179993,474
858.297668,489
858.415283,461
858.532959,476
858.650574,480
858.768188,469
858.885803,467
859.003479,471
859.121094,479
859.23877,445
859.356384,488
859.473999,491
859.591675,488
859.709229,494
859.826843,487
859.944458,477
860.062012,469
860.179626,469
860.297302,456
860.414856,474
860.532471,459
860.650024,458
860.767639,466
860.885193,481
861.002808,458
861.120361,497
861.237976,482
861.35553,472
861.473022,461
861.590698,484
861.708191,471
861.825745,462
861.943298,463
862.060852,460
862.178406,449
862.295959,473
862.413513,476
862.531006,457
862.64856,482
862.766113,470
862.883667,475
863.00116,478
863.118713,436
863.236206,464
863.353699,456
863.471252,457
863.588745,462
863.706177,481
863.82373,460
863.941162,449
864.058716,480
864.176208,470
864.29364,471
864.411194,459
864.528687,469
864.646118,488
864.763611,473
864.881042,457
864.998535,453
865.116028,470
865.233459,468
865.350891,476
865.468384,472
865.585754,475
865.703308,466
865.820679,483
865.938171,470
866.055542,464
866.173035,456
866.290466,468
866.407837,461
866.52533,492
866.6427,461
866.760071,487
866.877563,472
866.994934,479
867.112305,456
867.229736,476
867.347107,488
867.464539,465
867.58197,479
867.699341,488
867.81665,479
867.934082,464
868.051453,477
868.168823,469
868.286194,483
868.403564,482
868.520935,475
868.638306,481
868.755676,484
868.872986,470
868.990295,478
869.107727,473
869.225037,474
869.342346,472
869.459717,456
869.577026,467
869.694336,467
869.811707,485
869.929016,486
870.046326,446
870.163635,469
870.280945,485
870.398254,465
870.515564,478
870.632812,471
870.750183,481
870.867432,466
870.984741,482
871.102051,485
871.219299,481
871.336609,451
871.453918,479
871.571106,482
871.688416,477
871.805664,470
871.922852,491
872.040222,471
872.157471,479
872.274719,472
872.391968,463
872.509155,465
872.626465,476
872.743652,469
872.860962,486
872.978149,469
873.095337,476
873.212646,460
873.329834,456
873.44696,472
873.564209,467
873.681396,475
873.798645,466
873.915894,472
874.03302,473
874.150208,486
874.267456,476
874.384583,459
874.501831,478
874.618958,479
874.736145,471
874.853333,495
874.970459,489
875.087646,465
875.204834,486
875.32196,482
875.439148,483
875.556274,485
875.673401,472
875.790527,476
875.907715,477
876.024841,474
876.141968,482
876.259094,479
876.376282,466
876.493347,479
876.610474,482
876.7276,483
876.844727,475
876.961853,476
877.078918,489
877.195984,464
877.313171,460
877.430237,479
877.547302,461
877.664368,439
877.781433,471
877.898499,474
878.015625,490
878.13269,469
878.249695,483
878.366821,473
878.483887,469
878.600952,476
878.717957,473
878.834961,474
878.952087,502
879.069092,461
879.186157,460
879.303162,486
879.420227,461
879.537231,481
879.654236,476
879.77124,454
879.888306,480
880.005249,476
880.122314,464
880.239319,463
880.356323,475
880.473328,482
880.590271,479
880.707275,469
880.824341,479
880.941284,480
881.058228,472
881.175232,481
881.292236,470
881.40918,480
881.526123,481
881.643066,479
881.760071,502
881.877014,475
881.993958,483
882.11084,489
882.227783,480
882.344727,455
882.46167,477
882.578613,454
882.695618,490
882.812439,458
882.929382,490
883.046326,438
883.163208,467
883.280151,466
883.397034,472
883.513916,460
883.630798,477
883.747742,485
883.864563,486
883.981506,466
884.098389,487
884.21521,477
884.332153,485
884.448975,478
884.565796,489
884.682678,500
884.7995,489
884.916443,464
885.033264,480
885.150085,473
885.266968,497
885.383789,483
885.500671,481
885.617493,480
885.734314,487
885.851196,472
885.967896,508
886.084717,473
886.201599,496
886.318359,484
886.435181,475
886.552002,506
886.668762,475
886.785645,474
886.902344,490
887.019165,495
887.135925,473
887.252747,481
887.369446,489
887.486267,492
887.603027,472
887.719788,490
887.836548,485
887.953247,468
888.070068,494
888.186829,505
888.303528,474
888.420288,466
888.536987,476
888.653687,445
888.770447,477
888.887146,469
889.003967,496
889.120667,477
889.237305,475
889.354065,491
889.470703,474
889.587463,465
889.704163,497
889.820862,488
889.937561,501
890.054199,478
890.170837,486
890.287598,479
890.404236,490
890.520874,487
890.637634,475
890.754211,466
890.87085,498
890.987549,479
891.104187,488
891.220886,501
891.337463,502
891.454102,496
891.57074,490
891.687378,476
891.804077,482
891.920654,485
892.037231,499
892.15387,487
892.270447,501
892.387085,491
892.503723,476
892.6203,483
892.736877,489
892.853516,458
892.970032,497
893.08667,495
893.203186,487
893.319763,467
893.43634,474
893.552917,476
893.669556,490
893.786011,482
893.902588,489
894.019165,488
894.135681,490
894.252197,505
894.368835,474
894.485291,489
894.601868,495
894.718384,481
894.8349,487
894.951355,469
895.067932,504
895.184448,483
895.300964,487
895.417419,483
895.533936,500
895.650452,475
895.766907,481
895.883423,480
895.999878,475
896.116333,462
896.232849,487
896.349304,492
896.465759,472
896.582214,471
896.698669,505
896.815125,474
896.931641,474
897.048035,473
897.164551,497
897.280884,468
897.397339,500
897.513794,475
897.630249,487
897.746582,484
897.863098,490
897.979431,481
898.095886,493
898.212341,494
898.328674,497
898.445129,493
898.561462,471
898.677795,473
898.794312,494
898.910645,477
899.026978,504
899.143433,486
899.259766,470
899.37616,505
899.492493,478
899.608765,499
899.725159,481
899.841553,474
899.957947,478
900.07428,475
900.190552,493
900.306946,470
900.423157,495
900.53949,481
900.655884,492
900.772156,480
900.888489,498
901.004822,472
901.121033,504
901.237366,481
901.353699,482
901.46991,474
901.586304,492
901.702515,466
901.818787,501
901.93512,481
902.051331,501
902.167603,526
902.283875,495
902.400085,496
902.516418,486
902.632629,500
902.74884,492
902.865112,478
902.981384,483
903.097595,497
903.213867,509
903.330017,501
903.446289,494
903.5625,487
903.67865,510
903.794922,500
903.911072,499
904.027344,479
904.143494,503
904.259705,486
904.375916,500
904.492065,510
904.608215,496
904.724426,502
904.840576,491
904.956726,489
905.072876,498
905.189087,503
905.305176,499
905.421387,504
905.537537,498
905.653687,477
905.769775,484
905.885925,488
906.002014,499
906.118164,480
906.234314,475
906.350403,497
906.466492,504
906.582642,476
906.69873,496
906.814758,484
906.930908,496
907.046936,502
907.163086,480
907.279175,479
907.395264,507
907.511353,474
907.62738,480
907.743408,486
907.859497,493
907.975525,497
908.091553,502
908.207703,498
908.32373,474
908.439758,499
908.555786,498
908.671814,480
908.787842,507
908.90387,478
909.019775,493
909.135864,490
909.251892,499
909.367859,491
909.483826,494
909.599854,485
909.715881,491
909.831848,499
909.947815,507
910.063782,483
910.179749,501
910.295776,502
910.411743,477
910.527649,501
910.643616,498
910.759583,497
910.875488,519
910.991455,487
911.107361,475
911.223267,480
911.339294,514
911.4552,482
911.571106,499
911.687073,492
911.802979,507
911.918823,487
912.034729,494
912.150635,478
912.266602,496
912.382446,504
912.498352,508
912.614197,490
912.730103,494
912.846008,490
792.44574,652
792.56488,665
792.68396,714
792.80304,695
792.92218,642
793.041199,612
793.160339,646
793.279419,627
793.398499,641
793.517578,631
793.636658,625
793.755737,624
793.874817,639
793.993896,629
794.112976,619
794.232056,597
794.351074,620
794.470215,611
794.589233,617
794.708313,592
794.827393,590
794.946411,618
795.065552,644
795.18457,591
795.303589,620
795.422668,609
795.541687,624
795.660767,591
795.779846,614
795.898865,599
796.017883,606
796.136963,616
796.255981,597
796.375061,580
796.49408,595
796.613037,595
796.732117,591
796.851135,591
796.970154,616
797.089233,582
797.208191,571
797.327271,610
797.446228,582
797.565186,572
797.684265,589
797.803223,571
797.922241,568
798.04126,586
798.160278,566
798.279297,580
798.398315,591
798.517273,583
798.636292,578
798.75531,580
798.874268,586
798.993286,590
799.112244,575
799.231323,577
799.350281,570
799.469238,597
799.588257,583
799.707153,560
799.826111,574
799.945129,592
800.064087,578
800.183044,597
800.302063,590
800.421021,605
800.539978,600
800.658936,575
800.777893,582
800.896912,567
801.015747,584
801.134705,606
801.253723,585
801.37262,566
801.491638,603
801.610535,574
801.729492,592
801.84845,561
801.967407,566
802.086243,615
802.205261,581
802.324158,592
802.443115,595
802.562073,562
802.680969,581
802.799927,566
802.918762,596
803.037659,590
803.156677,590
803.275574,609
803.39447,575
803.513428,589
803.632263,603
803.751221,577
803.870117,570
803.989014,594
804.107971,614
804.226746,600
804.345642,592
804.4646,603
804.583496,597
804.702393,573
804.821228,596
804.940125,582
805.059021,615
805.177917,575
805.296814,594
805.415649,603
805.534546,596
805.653442,607
805.772278,611
805.891113,605
806.01001,603
806.128906,605
806.247742,603
806.366577,574
806.485413,602
806.604309,618
806.723145,597
806.84198,596
806.960876,604
807.079712,614
807.198486,609
807.317383,627
807.436218,624
807.554993,601
807.673889,610
807.792725,615
807.91156,615
808.030396,602
808.14917,620
808.268005,592
808.386841,626
808.505676,601
808.624451,603
808.743286,600
808.862122,597
808.980896,632
809.099731,604
809.218506,625
809.337341,599
809.456116,607
809.57489,622
809.693726,614
809.8125,603
809.931274,614
810.050049,613
810.168884,626
810.287659,627
810.406372,620
810.525269,628
810.643982,619
810.762756,608
810.881531,617
811.000305,614
811.11908,616
811.237854,632
811.356567,619
811.475403,613
811.594116,607
811.71283,630
811.831604,620
811.950378,631
812.069153,618
812.187927,624
812.30658,615
812.425415,623
812.544128,610
812.662781,617
812.781616,622
812.900269,643
813.019043,626
813.137756,598
813.256531,619
813.375244,616
813.493896,594
813.612671,654
813.731384,639
813.850037,634
813.96875,622
814.087524,615
814.206238,626
814.324951,603
814.443604,612
814.562256,628
814.68103,607
814.799683,622
814.918335,614
815.037109,622
815.155762,596
815.274475,606
815.393188,632
815.511841,608
815.630554,596
815.749146,617
815.867859,590
815.986572,621
816.105164,608
816.223877,598
816.342529,596
816.461182,621
816.579895,629
816.698486,610
816.817139,618
816.935791,607
817.054504,593
817.173096,607
817.291748,584
817.4104,613
817.529053,609
817.647644,578
817.766235,577
817.884949,586
818.00354,561
818.122192,587
818.240845,526
818.359436,548
818.478088,553
818.59668,537
818.715271,539
818.833923,528
818.952515,526
819.071106,523
819.189758,512
819.30835,520
819.426941,526
819.545532,548
819.664124,535
819.782715,523
819.901306,528
820.019897,517
820.138489,497
820.25708,498
820.375671,531
820.494202,513
820.612732,488
820.731384,510
820.849915,485
820.968506,491
821.087097,510
821.205627,509
821.324158,516
821.442749,471
821.561279,494
821.679871,507
821.798401,491
821.916931,487
822.035461,491
822.154053,488
822.272583,494
822.391174,493
822.509583,495
822.628174,485
822.746704,490
822.865234,485
822.983765,494
823.102295,495
823.220825,495
823.339294,508
823.457825,494
823.576355,510
823.694824,516
823.813354,490
823.931885,497
824.050354,515
824.168884,491
824.287354,502
824.405823,478
824.524353,488
824.642822,481
824.761353,507
824.879822,500
824.998291,497
825.116699,489
825.235291,501
825.353699,489
825.472168,492
825.590637,480
825.709106,491
825.827576,469
825.946045,496
826.064453,491
826.182983,466
826.301392,468
826.4198,474
826.53833,481
826.656738,501
826.775208,473
826.893677,476
827.012024,472
827.130493,493
827.248962,466
827.36731,463
827.485779,487
827.604248,492
827.722595,463
827.841064,473
827.959412,468
828.077942,459
828.196289,482
828.314636,459
828.433105,472
828.551514,471
828.669861,473
828.78833,477
828.906677,462
829.025085,468
829.143433,464
829.261841,454
829.38031,473
829.498657,460
829.617004,468
829.735413,473
829.85376,478
829.972107,475
830.090515,483
830.208862,459
830.327209,453
830.445557,477
830.563904,458
830.682312,461
830.800659,466
830.919006,463
831.037354,469
831.155701,480
831.274048,454
831.392395,486
831.51062,447
831.629028,476
831.747314,483
831.865662,477
831.984009,475
832.102356,470
832.220642,475
832.338928,474
832.457275,455
832.575623,490
832.693909,446
832.812134,492
832.930481,479
833.048828,468
833.167114,458
833.2854,476
833.403687,458
833.521973,463
833.640259,488
833.758545,461
833.876831,457
833.995056,476
834.113281,463
834.231628,465
834.349915,475
834.468201,468
834.586426,445
834.704651,474
834.822998,466
834.941162,458
835.059448,463
835.177673,473
835.295959,474
835.414246,488
835.53241,468
835.650635,485
835.768921,481
835.887146,479
836.005371,467
836.123596,473
836.241821,478
836.360046,483
836.478271,471
836.596497,470
836.714722,469
836.832886,487
836.95105,474
837.069336,484
837.1875,471
837.305725,494
837.423889,473
837.542053,469
837.660339,494
837.778503,479
837.896667,475
838.014832,466
838.132996,478
838.25116,493
838.369385,491
838.487488,475
838.605713,498
838.723877,495
838.84198,474
838.960205,488
839.078308,472
839.196472,477
839.314636,482
839.4328,499
839.550964,479
839.669067,472
839.787231,481
839.905396,482
840.023499,459
840.141602,501
840.259766,469
840.377869,482
840.495972,485
840.614136,481
840.732239,461
840.850342,472
840.968445,474
841.086548,488
841.204651,480
841.322754,482
841.440918,468
841.55896,474
841.677002,479
841.795166,481
841.913208,483
842.031311,476
842.149353,469
842.267456,466
842.385498,466
842.503601,464
842.621643,494
842.739746,465
842.857788,474
842.97583,481
843.093933,465
843.211975,452
843.330017,468
843.44812,468
843.566101,458
843.684204,488
843.802246,478
843.920227,474
844.038269,484
844.156311,473
844.274292,468
844.392395,468
844.510376,473
844.628357,483
844.74646,484
844.864441,476
844.982422,483
845.100403,481
845.218384,468
845.336426,491
845.454468,454
845.572449,462
845.69043,464
845.808411,457
845.926453,470
846.044373,456
846.162354,462
846.280396,459
846.398315,431
846.516296,484
846.634216,457
846.752197,474
846.870178,475
846.988098,479
847.106079,472
847.22406,486
847.34198,469
847.4599,483
847.577881,466
847.695801,479
847.813782,456
847.931641,473
848.049561,481
848.167603,454
848.285461,460
848.403381,454
848.521362,464
848.639221,458
848.75708,474
848.875,495
848.99292,454
849.110901,470
849.22876,458
849.34668,469
849.464539,452
849.582458,477
849.700317,464
849.818176,471
849.936096,478
850.053955,483
850.171875,467
850.289673,470
850.407593,456
850.525452,479
850.643311,453
850.761169,472
850.878967,476
850.996887,478
851.114746,478
851.232544,455
851.350403,487
851.468262,481
851.58606,474
851.703979,452
851.821777,470
851.939636,482
852.057434,457
852.175232,460
852.293091,454
852.410889,475
852.528687,470
852.646545,470
852.764343,468
852.88208,471
852.999939,465
853.117676,458
853.235535,455
853.353271,471
853.471069,474
853.588928,475
853.706604,457
853.824402,461
853.9422,460
854.059998,453
854.177734,477
854.295532,480
854.413269,478
854.531006,453
854.648804,468
854.766541,480
854.884277,477
855.002014,479
855.119751,446
855.237549,478
855.355225,455
855.473022,474
855.590698,453
855.708435,463
855.826172,456
855.943848,468
856.061646,476
856.179321,481
856.296997,482
856.414795,481
856.53241,476
856.650085,490
856.767822,461
856.885559,485
857.003174,459
857.120911,478
857.238586,465
857.356201,483
857.473938,483
857.591614,483
857.709351,447
857.826965,466
857.944641,471
858.062317,471
858.179993,478
858.297668,479
858.415283,454
858.532959,478
858.650574,471
858.768188,460
858.885803,471
859.003479,468
859.121094,459
859.23877,488
859.356384,457
859.473999,473
859.591675,449
859.709229,471
859.826843,466
859.944458,484
860.062012,457
860.179626,491
860.297302,459
860.414856,461
860.532471,475
860.650024,465
860.767639,476
860.885193,477
861.002808,463
861.120361,453
861.237976,476
861.35553,489
861.473022,463
861.590698,455
861.708191,467
861.825745,460
861.943298,480
862.060852,464
862.178406,450
862.295959,486
862.413513,471
862.531006,468
862.64856,464
862.766113,448
862.883667,460
863.00116,472
863.118713,467
863.236206,473
863.353699,464
863.471252,458
863.588745,469
863.706177,460
863.82373,477
863.941162,474
864.058716,482
864.176208,478
864.29364,464
864.411194,476
864.528687,463
864.646118,460
864.763611,481
864.881042,473
864.998535,466
865.116028,483
865.233459,461
865.350891,478
865.468384,469
865.585754,479
865.703308,468
865.820679,474
865.938171,481
866.055542,468
866.173035,471
866.290466,453
866.407837,481
866.52533,476
866.6427,451
866.760071,487
866.877563,478
866.994934,464
867.112305,460
867.229736,481
867.347107,454
867.464539,476
867.58197,467
867.699341,481
867.81665,470
867.934082,483
868.051453,489
868.168823,484
868.286194,458
868.403564,470
868.520935,477
868.638306,486
868.755676,450
868.872986,481
868.990295,463
869.107727,485
869.225037,482
869.342346,472
869.459717,474
869.577026,471
869.694336,478
869.811707,458
869.929016,474
870.046326,483
870.163635,479
870.280945,474
870.398254,459
870.515564,457
870.632812,484
870.750183,492
870.867432,484
870.984741,482
871.102051,482
871.219299,477
871.336609,463
871.453918,478
871.571106,491
871.688416,470
871.805664,464
871.922852,480
872.040222,484
872.157471,490
872.274719,479
872.391968,478
872.509155,461
872.626465,478
872.743652,477
872.860962,463
872.978149,468
873.095337,480
873.212646,479
873.329834,473
873.44696,468
873.564209,467
873.681396,477
873.798645,486
873.915894,485
874.03302,470
874.150208,467
874.267456,474
874.384583,454
874.501831,486
874.618958,486
874.736145,482
874.853333,468
874.970459,488
875.087646,474
875.204834,472
875.32196,473
875.439148,468
875.556274,479
875.673401,485
875.790527,463
875.907715,486
876.024841,469
876.141968,483
876.259094,477
876.376282,452
876.493347,483
876.610474,487
876.7276,460
876.844727,477
876.961853,479
877.078918,470
877.195984,482
877.313171,476
877.430237,468
877.547302,478
877.664368,455
877.781433,465
877.898499,467
878.015625,507
878.13269,482
878.249695,497
878.366821,456
878.483887,480
878.600952,460
878.717957,472
878.834961,482
878.952087,496
879.069092,472
879.186157,493
879.303162,457
879.420227,484
879.537231,469
879.654236,464
879.77124,479
879.888306,459
880.005249,475
880.122314,471
880.239319,501
880.356323,494
880.473328,476
880.590271,484
880.707275,485
880.824341,483
880.941284,471
881.058228,478
881.175232,478
881.292236,472
881.40918,467
881.526123,499
881.643066,458
881.760071,465
881.877014,467
881.993958,473
882.11084,461
882.227783,465
882.344727,472
882.46167,487
882.578613,479
882.695618,460
882.812439,464
882.929382,478
883.046326,480
883.163208,476
883.280151,475
883.397034,473
883.513916,463
883.630798,482
883.747742,483
883.864563,487
883.981506,476
884.098389,481
884.21521,474
884.332153,474
884.448975,452
884.565796,491
884.682678,469
884.7995,485
884.916443,487
885.033264,474
885.150085,463
885.266968,490
885.383789,485
885.500671,480
885.617493,487
885.734314,479
885.851196,484
885.967896,477
886.084717,492
886.201599,504
886.318359,472
886.435181,494
886.552002,480
886.668762,476
886.785645,484
886.902344,493
887.019165,459
887.135925,498
887.252747,481
887.369446,478
887.486267,469
887.603027,479
887.719788,469
887.836548,473
887.953247,484
888.070068,507
888.186829,482
888.303528,472
888.420288,485
888.536987,497
888.653687,473
888.770447,486
888.887146,490
889.003967,458
889.120667,467
889.237305,487
889.354065,485
889.470703,473
889.587463,481
889.704163,484
889.820862,485
889.937561,477
890.054199,479
890.170837,505
890.287598,466
890.404236,480
890.520874,469
890.637634,483
890.754211,495
890.87085,490
890.987549,461
891.104187,488
891.220886,510
891.337463,493
891.454102,466
891.57074,477
891.687378,488
891.804077,475
891.920654,502
892.037231,485
892.15387,493
892.270447,469
892.387085,493
892.503723,483
892.6203,498
892.736877,486
892.853516,468
892.970032,484
893.08667,474
893.203186,484
893.319763,498
893.43634,492
893.552917,464
893.669556,501
893.786011,487
893.902588,482
894.019165,490
894.135681,470
894.252197,475
894.368835,480
894.485291,480
894.601868,496
894.718384,488
894.8349,488
894.951355,475
895.067932,481
895.184448,467
895.300964,476
895.417419,466
895.533936,494
895.650452,486
895.766907,490
895.883423,451
895.999878,484
896.116333,478
896.232849,471
896.349304,483
896.465759,487
896.582214,477
896.698669,483
896.815125,473
896.931641,489
897.048035,485
897.164551,487
897.280884,480
897.397339,493
897.513794,484
897.630249,471
897.746582,494
897.863098,488
897.979431,484
898.095886,488
898.212341,473
898.328674,470
898.445129,480
898.561462,492
898.677795,469
898.794312,481
898.910645,488
899.026978,480
899.143433,479
899.259766,491
899.37616,465
899.492493,482
899.608765,473
899.725159,488
899.841553,497
899.957947,491
900.07428,484
900.190552,482
900.306946,494
900.423157,491
900.53949,514
900.655884,488
900.772156,502
900.888489,480
901.004822,494
901.121033,474
901.237366,475
901.353699,487
901.46991,501
901.586304,499
901.702515,475
901.818787,485
901.93512,494
902.051331,488
902.167603,493
902.283875,501
902.400085,467
902.516418,498
902.632629,514
902.74884,480
902.865112,497
902.981384,489
903.097595,504
903.213867,494
903.330017,475
903.446289,512
903.5625,491
903.67865,502
903.794922,498
903.911072,477
904.027344,482
904.143494,507
904.259705,491
904.375916,516
904.492065,480
904.608215,503
904.724426,491
904.840576,492
904.956726,488
905.072876,500
905.189087,494
905.305176,487
905.421387,513
905.537537,516
905.653687,490
905.769775,492
905.885925,493
906.002014,495
906.118164,481
906.234314,513
906.350403,495
906.466492,490
906.582642,477
906.69873,490
906.814758,475
906.930908,488
907.046936,498
907.163086,478
907.279175,501
907.395264,488
907.511353,490
907.62738,482
907.743408,491
907.859497,501
907.975525,488
908.091553,492
908.207703,495
908.32373,502
908.439758,498
908.555786,493
908.671814,487
908.787842,492
908.90387,489
909.019775,488
909.135864,469
909.251892,495
909.367859,501
909.483826,488
909.599854,503
909.715881,511
909.831848,498
909.947815,502
910.063782,485
910.179749,511
910.295776,492
910.411743,482
910.527649,492
910.643616,487
910.759583,489
910.875488,500
910.991455,485
911.107361,503
911.223267,486
911.339294,495
911.4552,493
911.571106,477
911.687073,496
911.802979,493
911.918823,487
912.034729,491
912.150635,504
912.266602,487
912.382446,484
912.498352,497
912.614197,475
912.730103,501
912.846008,504
