792.44574,583
792.56488,608
792.68396,683
792.80304,640
792.92218,601
793.041199,572
793.160339,592
793.279419,583
793.398499,578
793.517578,567
793.636658,561
793.755737,597
793.874817,593
793.993896,617
794.112976,592
794.232056,568
794.351074,568
794.470215,587
794.589233,559
794.708313,569
794.827393,584
794.946411,576
795.065552,600
795.18457,590
795.303589,560
795.422668,557
795.541687,571
795.660767,546
795.779846,589
795.898865,566
796.017883,572
796.136963,559
796.255981,579
796.375061,567
796.49408,558
796.613037,587
796.732117,563
796.851135,556
796.970154,572
797.089233,557
797.208191,582
797.327271,553
797.446228,571
797.565186,567
797.684265,573
797.803223,570
797.922241,552
798.04126,585
798.160278,558
798.279297,578
798.398315,561
798.517273,545
798.636292,558
798.75531,565
798.874268,579
798.993286,563
799.112244,553
799.231323,548
799.350281,543
799.469238,575
799.588257,570
799.707153,556
799.826111,560
799.945129,551
800.064087,546
800.183044,557
800.302063,545
800.421021,554
800.539978,553
800.658936,561
800.777893,572
800.896912,552
801.015747,573
801.134705,568
801.253723,568
801.37262,566
801.491638,585
801.610535,559
801.729492,580
801.84845,557
801.967407,566
802.086243,562
802.205261,570
802.324158,548
802.443115,572
802.562073,569
802.680969,566
802.799927,569
802.918762,568
803.037659,584
803.156677,572
803.275574,558
803.39447,587
803.513428,571
803.632263,581
803.751221,583
803.870117,584
803.989014,549
804.107971,581
804.226746,562
804.345642,568
804.4646,589
804.583496,565
804.702393,562
804.821228,573
804.940125,573
805.059021,598
805.177917,577
805.296814,595
805.415649,564
805.534546,609
805.653442,597
805.772278,593
805.891113,571
806.01001,585
806.128906,599
806.247742,578
806.366577,582
806.485413,603
806.604309,586
806.723145,581
806.84198,609
806.960876,595
807.079712,593
807.198486,594
807.317383,596
807.436218,581
807.554993,584
807.673889,582
807.792725,563
807.91156,584
808.030396,595
808.14917,593
808.268005,618
808.386841,610
808.505676,600
808.624451,595
808.743286,584
808.862122,602
808.980896,605
809.099731,599
809.218506,597
809.337341,605
809.456116,627
809.57489,595
809.693726,612
809.8125,602
809.931274,599
810.050049,609
810.168884,594
810.287659,597
810.406372,582
810.525269,590
810.643982,611
810.762756,607
810.881531,615
811.000305,618
811.11908,614
811.237854,606
811.356567,593
811.475403,587
811.594116,620
811.71283,597
811.831604,615
811.950378,606
812.069153,604
812.187927,611
812.30658,604
812.425415,603
812.544128,595
812.662781,597
812.781616,597
812.900269,638
813.019043,595
813.137756,618
813.256531,604
813.375244,615
813.493896,620
813.612671,607
813.731384,587
813.850037,596
813.96875,596
814.087524,605
814.206238,586
814.324951,589
814.443604,598
814.562256,593
814.68103,583
814.799683,627
814.918335,611
815.037109,611
815.155762,576
815.274475,602
815.393188,563
815.511841,599
815.630554,609
815.749146,604
815.867859,564
815.986572,602
816.105164,596
816.223877,581
816.342529,588
816.461182,596
816.579895,601
816.698486,602
816.817139,608
816.935791,593
817.054504,598
817.173096,621
817.291748,583
817.4104,576
817.529053,581
817.647644,587
817.766235,557
817.884949,566
818.00354,553
818.122192,537
818.240845,520
818.359436,537
818.478088,528
818.59668,552
818.715271,512
818.833923,536
818.952515,517
819.071106,529
819.189758,522
819.30835,538
819.426941,497
819.545532,497
819.664124,500
819.782715,502
819.901306,495
820.019897,486
820.138489,506
820.25708,494
820.375671,492
820.494202,509
820.612732,504
820.731384,500
820.849915,487
820.968506,490
821.087097,494
821.205627,464
821.324158,473
821.442749,487
821.561279,480
821.679871,485
821.798401,485
821.916931,464
822.035461,459
822.154053,479
822.272583,450
822.391174,470
822.509583,484
822.628174,471
822.746704,492
822.865234,487
822.983765,470
823.102295,469
823.220825,478
823.339294,482
823.457825,490
823.576355,482
823.694824,452
823.813354,464
823.931885,474
824.050354,475
824.168884,506
824.287354,493
824.405823,482
824.524353,485
824.642822,482
824.761353,489
824.879822,475
824.998291,487
825.116699,490
825.235291,480
825.353699,483
825.472168,452
825.590637,469
825.709106,482
825.827576,479
825.946045,479
826.064453,465
826.182983,475
826.301392,470
826.4198,464
826.53833,465
826.656738,464
826.775208,449
826.893677,478
827.012024,469
827.130493,481
827.248962,461
827.36731,466
827.485779,476
827.604248,477
827.722595,470
827.841064,478
827.959412,460
828.077942,478
828.196289,460
828.314636,471
828.433105,458
828.551514,473
828.669861,466
828.78833,466
828.906677,449
829.025085,462
829.143433,450
829.261841,458
829.38031,465
829.498657,461
829.617004,463
829.735413,463
829.85376,466
829.972107,474
830.090515,467
830.208862,477
830.327209,443
830.445557,467
830.563904,450
830.682312,477
830.800659,444
830.919006,465
831.037354,464
831.155701,474
831.274048,448
831.392395,469
831.51062,460
831.629028,448
831.747314,464
831.865662,452
831.984009,464
832.102356,441
832.220642,461
832.338928,471
832.457275,428
832.575623,475
832.693909,452
832.812134,468
832.930481,459
833.048828,465
833.167114,460
833.2854,459
833.403687,466
833.521973,466
833.640259,445
833.758545,468
833.876831,462
833.995056,455
834.113281,444
834.231628,471
834.349915,435
834.468201,461
834.586426,465
834.704651,481
834.822998,459
834.941162,461
835.059448,444
835.177673,439
835.295959,476
835.414246,453
835.53241,465
835.650635,455
835.768921,472
835.887146,471
836.005371,455
836.123596,448
836.241821,473
836.360046,482
836.478271,478
836.596497,483
836.714722,468
836.832886,460
836.95105,478
837.069336,496
837.1875,472
837.305725,459
837.423889,475
837.542053,460
837.660339,449
837.778503,476
837.896667,485
838.014832,460
838.132996,467
838.25116,457
838.369385,453
838.487488,491
838.605713,468
838.723877,481
838.84198,451
838.960205,475
839.078308,459
839.196472,475
839.314636,461
839.4328,482
839.550964,469
839.669067,473
839.787231,466
839.905396,464
840.023499,466
840.141602,477
840.259766,487
840.377869,469
840.495972,473
840.614136,478
840.732239,452
840.850342,458
840.968445,452
841.086548,466
841.204651,465
841.322754,471
841.440918,466
841.55896,464
841.677002,460
841.795166,442
841.913208,452
842.031311,464
842.149353,454
842.267456,466
842.385498,476
842.503601,440
842.621643,461
842.739746,450
842.857788,461
842.97583,474
843.093933,480
843.211975,456
843.330017,446
843.44812,455
843.566101,447
843.684204,463
843.802246,463
843.920227,443
844.038269,458
844.156311,445
844.274292,455
844.392395,462
844.510376,466
844.628357,465
844.74646,460
844.864441,462
844.982422,456
845.100403,470
845.218384,443
845.336426,457
845.454468,452
845.572449,434
845.69043,452
845.808411,452
845.926453,464
846.044373,469
846.162354,441
846.280396,440
846.398315,451
846.516296,463
846.634216,437
846.752197,458
846.870178,451
846.988098,452
847.106079,432
847.22406,455
847.34198,473
847.4599,445
847.577881,449
847.695801,431
847.813782,451
847.931641,441
848.049561,453
848.167603,451
848.285461,455
848.403381,462
848.521362,443
848.639221,457
848.75708,441
848.875,465
848.99292,445
849.110901,472
849.22876,460
849.34668,458
849.464539,434
849.582458,466
849.700317,440
849.818176,448
849.936096,451
850.053955,462
850.171875,460
850.289673,467
850.407593,444
850.525452,454
850.643311,456
850.761169,452
850.878967,441
850.996887,474
851.114746,459
851.232544,458
851.350403,444
851.468262,448
851.58606,430
851.703979,436
851.821777,451
851.939636,459
852.057434,461
852.175232,461
852.293091,441
852.410889,463
852.528687,443
852.646545,486
852.764343,463
852.88208,466
852.999939,454
853.117676,455
853.235535,467
853.353271,463
853.471069,447
853.588928,443
853.706604,470
853.824402,449
853.9422,454
854.059998,469
854.177734,462
854.295532,467
854.413269,462
854.531006,465
854.648804,452
854.766541,459
854.884277,444
855.002014,453
855.119751,457
855.237549,445
855.355225,447
855.473022,464
855.590698,450
855.708435,479
855.826172,452
855.943848,463
856.061646,459
856.179321,459
856.296997,448
856.414795,459
856.53241,450
856.650085,471
856.767822,456
856.885559,492
857.003174,461
857.120911,484
857.238586,457
857.356201,470
857.473938,457
857.591614,462
857.709351,460
857.826965,457
857.944641,463
858.062317,475
858.179993,454
858.297668,486
858.415283,462
858.532959,451
858.650574,447
858.768188,471
858.885803,458
859.003479,456
859.121094,456
859.23877,460
859.356384,426
859.473999,469
859.591675,450
859.709229,456
859.826843,455
859.944458,453
860.062012,478
860.179626,446
860.297302,450
860.414856,466
860.532471,457
860.650024,469
860.767639,452
860.885193,475
861.002808,450
861.120361,480
861.237976,466
861.35553,464
861.473022,461
861.590698,449
861.708191,458
861.825745,448
861.943298,434
862.060852,473
862.178406,441
862.295959,462
862.413513,457
862.531006,452
862.64856,462
862.766113,476
862.883667,461
863.00116,478
863.118713,476
863.236206,474
863.353699,444
863.471252,459
863.588745,466
863.706177,454
863.82373,447
863.941162,447
864.058716,477
864.176208,456
864.29364,465
864.411194,454
864.528687,464
864.646118,449
864.763611,480
864.881042,464
864.998535,450
865.116028,446
865.233459,454
865.350891,453
865.468384,462
865.585754,465
865.703308,467
865.820679,469
865.938171,459
866.055542,479
866.173035,454
866.290466,474
866.407837,456
866.52533,454
866.6427,467
866.760071,452
866.877563,477
866.994934,476
867.112305,462
867.229736,443
867.347107,459
867.464539,469
867.58197,468
867.699341,472
867.81665,476
867.934082,478
868.051453,456
868.168823,480
868.286194,467
868.403564,466
868.520935,450
868.638306,461
868.755676,460
868.872986,466
868.990295,474
869.107727,463
869.225037,458
869.342346,471
869.459717,467
869.577026,476
869.694336,444
869.811707,480
869.929016,474
870.046326,456
870.163635,444
870.280945,438
870.398254,476
870.515564,483
870.632812,472
870.750183,466
870.867432,473
870.984741,470
871.102051,468
871.219299,466
871.336609,460
871.453918,464
871.571106,478
871.688416,475
871.805664,465
871.922852,481
872.040222,462
872.157471,466
872.274719,487
872.391968,469
872.509155,448
872.626465,456
872.743652,460
872.860962,472
872.978149,460
873.095337,469
873.212646,457
873.329834,479
873.44696,471
873.564209,464
873.681396,438
873.798645,466
873.915894,466
874.03302,462
874.150208,466
874.267456,447
874.384583,450
874.501831,446
874.618958,448
874.736145,463
874.853333,461
874.970459,472
875.087646,456
875.204834,471
875.32196,471
875.439148,447
875.556274,461
875.673401,477
875.790527,458
875.907715,463
876.024841,461
876.141968,452
876.259094,447
876.376282,478
876.493347,462
876.610474,463
876.7276,444
876.844727,449
876.961853,465
877.078918,482
877.195984,463
877.313171,482
877.430237,460
877.547302,478
877.664368,488
877.781433,459
877.898499,460
878.015625,435
878.13269,470
878.249695,471
878.366821,463
878.483887,470
878.600952,471
878.717957,469
878.834961,466
878.952087,466
879.069092,465
879.186157,468
879.303162,462
879.420227,492
879.537231,469
879.654236,477
879.77124,447
879.888306,472
880.005249,460
880.122314,456
880.239319,472
880.356323,474
880.473328,462
880.590271,479
880.707275,452
880.824341,465
880.941284,469
881.058228,464
881.175232,458
881.292236,463
881.40918,469
881.526123,463
881.643066,466
881.760071,476
881.877014,475
881.993958,485
882.11084,471
882.227783,475
882.344727,468
882.46167,479
882.578613,445
882.695618,455
882.812439,476
882.929382,476
883.046326,477
883.163208,462
883.280151,468
883.397034,468
883.513916,462
883.630798,469
883.747742,457
883.864563,462
883.981506,471
884.098389,476
884.21521,464
884.332153,474
884.448975,438
884.565796,472
884.682678,471
884.7995,478
884.916443,475
885.033264,476
885.150085,473
885.266968,476
885.383789,459
885.500671,492
885.617493,473
885.734314,491
885.851196,464
885.967896,484
886.084717,440
886.201599,484
886.318359,473
886.435181,476
886.552002,480
886.668762,498
886.785645,456
886.902344,453
887.019165,470
887.135925,456
887.252747,477
887.369446,480
887.486267,468
887.603027,488
887.719788,473
887.836548,484
887.953247,466
888.070068,456
888.186829,480
888.303528,475
888.420288,472
888.536987,480
888.653687,468
888.770447,480
888.887146,489
889.003967,477
889.120667,483
889.237305,482
889.354065,462
889.470703,473
889.587463,476
889.704163,472
889.820862,461
889.937561,474
890.054199,477
890.170837,480
890.287598,470
890.404236,486
890.520874,470
890.637634,477
890.754211,472
890.87085,462
890.987549,460
891.104187,467
891.220886,471
891.337463,481
891.454102,466
891.57074,480
891.687378,485
891.804077,469
891.920654,475
892.037231,469
892.15387,482
892.270447,474
892.387085,464
892.503723,485
892.6203,491
892.736877,509
892.853516,494
892.970032,482
893.08667,490
893.203186,470
893.319763,487
893.43634,467
893.552917,487
893.669556,479
893.786011,457
893.902588,476
894.019165,453
894.135681,484
894.252197,484
894.368835,476
894.485291,474
894.601868,477
894.718384,486
894.8349,490
894.951355,482
895.067932,467
895.184448,489
895.300964,469
895.417419,491
895.533936,474
895.650452,477
895.766907,477
895.883423,486
895.999878,473
896.116333,475
896.232849,485
896.349304,481
896.465759,488
896.582214,489
896.698669,484
896.815125,478
896.931641,480
897.048035,461
897.164551,464
897.280884,465
897.397339,481
897.513794,473
897.630249,498
897.746582,483
897.863098,481
897.979431,492
898.095886,492
898.212341,477
898.328674,475
898.445129,480
898.561462,481
898.677795,496
898.794312,487
898.910645,464
899.026978,483
899.143433,492
899.259766,493
899.37616,479
899.492493,475
899.608765,486
899.725159,486
899.841553,484
899.957947,475
900.07428,487
900.190552,467
900.306946,474
900.423157,481
900.53949,475
900.655884,474
900.772156,467
900.888489,487
901.004822,478
901.121033,487
901.237366,500
901.353699,470
901.46991,460
901.586304,484
901.702515,475
901.818787,493
901.93512,465
902.051331,515
902.167603,494
902.283875,484
902.400085,498
902.516418,476
902.632629,478
902.74884,492
902.865112,507
902.981384,497
903.097595,474
903.213867,494
903.330017,480
903.446289,480
903.5625,485
903.67865,500
903.794922,490
903.911072,510
904.027344,485
904.143494,478
904.259705,489
904.375916,471
904.492065,482
904.608215,497
904.724426,469
904.840576,484
904.956726,492
905.072876,478
905.189087,481
905.305176,487
905.421387,509
905.537537,486
905.653687,481
905.769775,488
905.885925,488
906.002014,489
906.118164,487
906.234314,502
906.350403,469
906.466492,485
906.582642,479
906.69873,488
906.814758,487
906.930908,483
907.046936,486
907.163086,496
907.279175,472
907.395264,483
907.511353,479
907.62738,472
907.743408,487
907.859497,487
907.975525,475
908.091553,505
908.207703,476
908.32373,481
908.439758,487
908.555786,493
908.671814,496
908.787842,487
908.90387,485
909.019775,498
909.135864,498
909.251892,486
909.367859,482
909.483826,493
909.599854,478
909.715881,487
909.831848,499
909.947815,480
910.063782,487
910.179749,507
910.295776,491
910.411743,476
910.527649,489
910.643616,491
910.759583,487
910.875488,495
910.991455,500
911.107361,508
911.223267,496
911.339294,515
911.4552,494
911.571106,483
911.687073,481
911.802979,492
911.918823,492
912.034729,489
912.150635,469
912.266602,494
912.382446,485
912.498352,493
912.614197,491
912.730103,466
912.846008,474
792.44574,614
792.56488,617
792.68396,677
792.80304,645
792.92218,607
793.041199,584
793.160339,608
793.279419,609
793.398499,590
793.517578,586
793.636658,588
793.755737,596
793.874817,623
793.993896,600
794.112976,595
794.232056,559
794.351074,570
794.470215,592
794.589233,576
794.708313,585
794.827393,565
794.946411,569
795.065552,581
795.18457,575
795.303589,590
795.422668,595
795.541687,574
795.660767,552
795.779846,558
795.898865,599
796.017883,564
796.136963,565
796.255981,560
796.375061,584
796.49408,575
796.613037,568
796.732117,558
796.851135,544
796.970154,572
797.089233,554
797.208191,571
797.327271,585
797.446228,565
797.565186,565
797.684265,579
797.803223,572
797.922241,559
798.04126,586
798.160278,562
798.279297,562
798.398315,580
798.517273,559
798.636292,569
798.75531,555
798.874268,576
798.993286,577
799.112244,585
799.231323,550
799.350281,556
799.469238,580
799.588257,560
799.707153,562
799.826111,559
799.945129,565
800.064087,566
800.183044,573
800.302063,566
800.421021,571
800.539978,544
800.658936,563
800.777893,567
800.896912,545
801.015747,565
801.134705,574
801.253723,586
801.37262,576
801.491638,573
801.610535,565
801.729492,578
801.84845,559
801.967407,568
802.086243,570
802.205261,583
802.324158,546
802.443115,579
802.562073,578
802.680969,559
802.799927,559
802.918762,580
803.037659,577
803.156677,563
803.275574,597
803.39447,610
803.513428,582
803.632263,569
803.751221,563
803.870117,595
803.989014,588
804.107971,567
804.226746,579
804.345642,579
804.4646,562
804.583496,572
804.702393,587
804.821228,583
804.940125,607
805.059021,579
805.177917,603
805.296814,575
805.415649,575
805.534546,586
805.653442,588
805.772278,597
805.891113,561
806.01001,613
806.128906,608
806.247742,571
806.366577,593
806.485413,612
806.604309,601
806.723145,582
806.84198,577
806.960876,597
807.079712,614
807.198486,600
807.317383,569
807.436218,595
807.554993,591
807.673889,601
807.792725,582
807.91156,595
808.030396,607
808.14917,608
808.268005,602
808.386841,593
808.505676,571
808.624451,597
808.743286,588
808.862122,592
808.980896,601
809.099731,590
809.218506,605
809.337341,602
809.456116,611
809.57489,603
809.693726,596
809.8125,601
809.931274,600
810.050049,612
810.168884,612
810.287659,611
810.406372,624
810.525269,611
810.643982,592
810.762756,613
810.881531,604
811.000305,623
811.11908,605
811.237854,602
811.356567,612
811.475403,588
811.594116,598
811.71283,617
811.831604,600
811.950378,624
812.069153,610
812.187927,621
812.30658,577
812.425415,620
812.544128,608
812.662781,621
812.781616,615
812.900269,598
813.019043,620
813.137756,582
813.256531,615
813.375244,622
813.493896,613
813.612671,620
813.731384,597
813.850037,613
813.96875,605
814.087524,623
814.206238,581
814.324951,607
814.443604,595
814.562256,611
814.68103,615
814.799683,612
814.918335,617
815.037109,612
815.155762,602
815.274475,605
815.393188,577
815.511841,592
815.630554,601
815.749146,558
815.867859,601
815.986572,600
816.105164,594
816.223877,578
816.342529,588
816.461182,593
816.579895,600
816.698486,584
816.817139,595
816.935791,611
817.054504,596
817.173096,609
817.291748,597
817.4104,596
817.529053,591
817.647644,574
817.766235,571
817.884949,587
818.00354,541
818.122192,559
818.240845,558
818.359436,543
818.478088,536
818.59668,521
818.715271,531
818.833923,507
818.952515,487
819.071106,509
819.189758,498
819.30835,516
819.426941,490
819.545532,504
819.664124,504
819.782715,509
819.901306,484
820.019897,509
820.138489,496
820.25708,509
820.375671,507
820.494202,494
820.612732,502
820.731384,477
820.849915,494
820.968506,486
821.087097,474
821.205627,500
821.324158,487
821.442749,500
821.561279,497
821.679871,483
821.798401,492
821.916931,489
822.035461,467
822.154053,494
822.272583,461
822.391174,468
822.509583,476
822.628174,489
822.746704,468
822.865234,474
822.983765,489
823.102295,485
823.220825,477
823.339294,478
823.457825,475
823.576355,464
823.694824,458
823.813354,498
823.931885,480
824.050354,515
824.168884,487
824.287354,482
824.405823,490
824.524353,505
824.642822,478
824.761353,502
824.879822,486
824.998291,494
825.116699,473
825.235291,472
825.353699,499
825.472168,471
825.590637,475
825.709106,497
825.827576,488
825.946045,450
826.064453,476
826.182983,496
826.301392,471
826.4198,470
826.53833,485
826.656738,460
826.775208,458
826.893677,481
827.012024,481
827.130493,458
827.248962,463
827.36731,484
827.485779,464
827.604248,471
827.722595,457
827.841064,473
827.959412,460
828.077942,463
828.196289,445
828.314636,476
828.433105,467
828.551514,469
828.669861,471
828.78833,466
828.906677,462
829.025085,462
829.143433,453
829.261841,473
829.38031,488
829.498657,468
829.617004,456
829.735413,462
829.85376,469
829.972107,451
830.090515,464
830.208862,460
830.327209,434
830.445557,465
830.563904,452
830.682312,473
830.800659,462
830.919006,442
831.037354,460
831.155701,440
831.274048,448
831.392395,483
831.51062,438
831.629028,482
831.747314,451
831.865662,465
831.984009,464
832.102356,458
832.220642,462
832.338928,467
832.457275,464
832.575623,465
832.693909,465
832.812134,469
832.930481,455
833.048828,464
833.167114,448
833.2854,464
833.403687,461
833.521973,482
833.640259,467
833.758545,467
833.876831,479
833.995056,464
834.113281,465
834.231628,495
834.349915,477
834.468201,463
834.586426,455
834.704651,462
834.822998,461
834.941162,455
835.059448,474
835.177673,450
835.295959,464
835.414246,461
835.53241,454
835.650635,469
835.768921,457
835.887146,466
836.005371,457
836.123596,455
836.241821,468
836.360046,476
836.478271,477
836.596497,490
836.714722,474
836.832886,463
836.95105,470
837.069336,452
837.1875,467
837.305725,453
837.423889,467
837.542053,464
837.660339,463
837.778503,484
837.896667,459
838.014832,477
838.132996,468
838.25116,487
838.369385,465
838.487488,458
838.605713,466
838.723877,484
838.84198,476
838.960205,490
839.078308,463
839.196472,474
839.314636,477
839.4328,464
839.550964,469
839.669067,465
839.787231,490
839.905396,467
840.023499,481
840.141602,487
840.259766,439
840.377869,455
840.495972,470
840.614136,469
840.732239,478
840.850342,474
840.968445,449
841.086548,464
841.204651,461
841.322754,451
841.440918,468
841.55896,463
841.677002,456
841.795166,464
841.913208,443
842.031311,470
842.149353,469
842.267456,462
842.385498,461
842.503601,439
842.621643,437
842.739746,466
842.857788,450
842.97583,455
843.093933,464
843.211975,468
843.330017,456
843.44812,465
843.566101,453
843.684204,454
843.802246,458
843.920227,488
844.038269,464
844.156311,453
844.274292,468
844.392395,468
844.510376,448
844.628357,464
844.74646,464
844.864441,459
844.982422,452
845.100403,480
845.218384,458
845.336426,450
845.454468,469
845.572449,444
845.69043,449
845.808411,477
845.926453,444
846.044373,460
846.162354,452
846.280396,446
846.398315,459
846.516296,459
846.634216,444
846.752197,462
846.870178,452
846.988098,444
847.106079,467
847.22406,452
847.34198,450
847.4599,465
847.577881,458
847.695801,468
847.813782,443
847.931641,446
848.049561,463
848.167603,458
848.285461,451
848.403381,451
848.521362,473
848.639221,473
848.75708,460
848.875,452
848.99292,451
849.110901,467
849.22876,462
849.34668,454
849.464539,451
849.582458,468
849.700317,458
849.818176,436
849.936096,463
850.053955,468
850.171875,455
850.289673,445
850.407593,458
850.525452,500
850.643311,456
850.761169,461
850.878967,454
850.996887,452
851.114746,444
851.232544,459
851.350403,440
851.468262,469
851.58606,441
851.703979,446
851.821777,457
851.939636,446
852.057434,468
852.175232,449
852.293091,472
852.410889,468
852.528687,478
852.646545,474
852.764343,458
852.88208,461
852.999939,457
853.117676,457
853.235535,458
853.353271,463
853.471069,451
853.588928,447
853.706604,454
853.824402,461
853.9422,461
854.059998,469
854.177734,460
854.295532,466
854.413269,471
854.531006,466
854.648804,473
854.766541,464
854.884277,449
855.002014,477
855.119751,452
855.237549,453
855.355225,472
855.473022,460
855.590698,446
855.708435,483
855.826172,458
855.943848,471
856.061646,463
856.179321,477
856.296997,447
856.414795,460
856.53241,466
856.650085,454
856.767822,456
856.885559,475
857.003174,446
857.120911,454
857.238586,456
857.356201,467
857.473938,467
857.591614,474
857.709351,468
857.826965,464
857.944641,462
858.062317,462
858.179993,472
858.297668,469
858.415283,461
858.532959,459
858.650574,467
858.768188,482
858.885803,463
859.003479,447
859.121094,461
859.23877,475
859.356384,459
859.473999,465
859.591675,442
859.709229,466
859.826843,466
859.944458,457
860.062012,465
860.179626,475
860.297302,450
860.414856,451
860.532471,450
860.650024,453
860.767639,454
860.885193,452
861.002808,443
861.120361,460
861.237976,448
861.35553,467
861.473022,466
861.590698,454
861.708191,448
861.825745,457
861.943298,446
862.060852,462
862.178406,456
862.295959,461
862.413513,456
862.531006,448
862.64856,435
862.766113,462
862.883667,464
863.00116,475
863.118713,465
863.236206,471
863.353699,469
863.471252,465
863.588745,438
863.706177,455
863.82373,473
863.941162,470
864.058716,447
864.176208,475
864.29364,453
864.411194,463
864.528687,466
864.646118,474
864.763611,446
864.881042,463
864.998535,449
865.116028,458
865.233459,436
865.350891,465
865.468384,441
865.585754,460
865.703308,467
865.820679,463
865.938171,471
866.055542,493
866.173035,440
866.290466,473
866.407837,476
866.52533,476
866.6427,472
866.760071,469
866.877563,493
866.994934,463
867.112305,451
867.229736,450
867.347107,455
867.464539,463
867.58197,451
867.699341,457
867.81665,481
867.934082,446
868.051453,459
868.168823,479
868.286194,470
868.403564,476
868.520935,464
868.638306,478
868.755676,460
868.872986,456
868.990295,453
869.107727,456
869.225037,484
869.342346,465
869.459717,477
869.577026,466
869.694336,440
869.811707,490
869.929016,447
870.046326,471
870.163635,464
870.280945,456
870.398254,462
870.515564,457
870.632812,466
870.750183,480
870.867432,460
870.984741,474
871.102051,463
871.219299,467
871.336609,446
871.453918,470
871.571106,462
871.688416,460
871.805664,467
871.922852,457
872.040222,473
872.157471,444
872.274719,473
872.391968,481
872.509155,439
872.626465,469
872.743652,460
872.860962,463
872.978149,447
873.095337,461
873.212646,462
873.329834,477
873.44696,474
873.564209,480
873.681396,463
873.798645,480
873.915894,448
874.03302,467
874.150208,467
874.267456,467
874.384583,476
874.501831,465
874.618958,461
874.736145,466
874.853333,462
874.970459,483
875.087646,462
875.204834,467
875.32196,464
875.439148,479
875.556274,467
875.673401,468
875.790527,468
875.907715,474
876.024841,454
876.141968,479
876.259094,461
876.376282,455
876.493347,452
876.610474,467
876.7276,469
876.844727,477
876.961853,461
877.078918,467
877.195984,456
877.313171,481
877.430237,478
877.547302,457
877.664368,447
877.781433,474
877.898499,476
878.015625,485
878.13269,449
878.249695,466
878.366821,487
878.483887,453
878.600952,459
878.717957,445
878.834961,455
878.952087,485
879.069092,471
879.186157,469
879.303162,467
879.420227,461
879.537231,472
879.654236,478
879.77124,485
879.888306,482
880.005249,459
880.122314,468
880.239319,456
880.356323,467
880.473328,472
880.590271,473
880.707275,462
880.824341,466
880.941284,476
881.058228,469
881.175232,464
881.292236,474
881.40918,460
881.526123,486
881.643066,488
881.760071,472
881.877014,466
881.993958,471
882.11084,446
882.227783,459
882.344727,468
882.46167,486
882.578613,480
882.695618,465
882.812439,453
882.929382,466
883.046326,456
883.163208,482
883.280151,456
883.397034,486
883.513916,461
883.630798,461
883.747742,451
883.864563,468
883.981506,466
884.098389,469
884.21521,461
884.332153,470
884.448975,455
884.565796,472
884.682678,459
884.7995,490
884.916443,456
885.033264,475
885.150085,488
885.266968,484
885.383789,481
885.500671,466
885.617493,483
885.734314,473
885.851196,471
885.967896,489
886.084717,485
886.201599,474
886.318359,462
886.435181,458
886.552002,453
886.668762,471
886.785645,475
886.902344,455
887.019165,470
887.135925,488
887.252747,474
887.369446,480
887.486267,480
887.603027,495
887.719788,468
887.836548,473
887.953247,485
888.070068,467
888.186829,475
888.303528,480
888.420288,487
888.536987,485
888.653687,478
888.770447,485
888.887146,469
889.003967,480
889.120667,490
889.237305,451
889.354065,461
889.470703,465
889.587463,450
889.704163,500
889.820862,479
889.937561,486
890.054199,457
890.170837,452
890.287598,475
890.404236,472
890.520874,479
890.637634,479
890.754211,478
890.87085,484
890.987549,466
891.104187,505
891.220886,466
891.337463,485
891.454102,479
891.57074,492
891.687378,462
891.804077,486
891.920654,478
892.037231,474
892.15387,470
892.270447,485
892.387085,461
892.503723,472
892.6203,478
892.736877,484
892.853516,469
892.970032,480
893.08667,480
893.203186,484
893.319763,487
893.43634,481
893.552917,477
893.669556,492
893.786011,469
893.902588,484
894.019165,471
894.135681,475
894.252197,481
894.368835,479
894.485291,462
894.601868,475
894.718384,471
894.8349,485
894.951355,493
895.067932,484
895.184448,489
895.300964,498
895.417419,492
895.533936,489
895.650452,468
895.766907,489
895.883423,483
895.999878,464
896.116333,492
896.232849,491
896.349304,470
896.465759,480
896.582214,462
896.698669,502
896.815125,481
896.931641,494
897.048035,487
897.164551,472
897.280884,512
897.397339,501
897.513794,485
897.630249,487
897.746582,487
897.863098,485
897.979431,475
898.095886,471
898.212341,465
898.328674,489
898.445129,497
898.561462,494
898.677795,469
898.794312,480
898.910645,486
899.026978,499
899.143433,501
899.259766,470
899.37616,485
899.492493,472
899.608765,479
899.725159,478
899.841553,481
899.957947,496
900.07428,474
900.190552,490
900.306946,473
900.423157,482
900.53949,476
900.655884,474
900.772156,501
900.888489,493
901.004822,475
901.121033,490
901.237366,472
901.353699,487
901.46991,502
901.586304,475
901.702515,483
901.818787,481
901.93512,499
902.051331,486
902.167603,474
902.283875,482
902.400085,469
902.516418,478
902.632629,495
902.74884,487
902.865112,491
902.981384,480
903.097595,484
903.213867,496
903.330017,489
903.446289,499
903.5625,494
903.67865,492
903.794922,451
903.911072,494
904.027344,498
904.143494,482
904.259705,500
904.375916,484
904.492065,502
904.608215,478
904.724426,495
904.840576,483
904.956726,481
905.072876,463
905.189087,491
905.305176,503
905.421387,501
905.537537,491
905.653687,493
905.769775,481
905.885925,483
906.002014,482
906.118164,466
906.234314,476
906.350403,484
906.466492,496
906.582642,494
906.69873,494
906.814758,488
906.930908,475
907.046936,481
907.163086,513
907.279175,505
907.395264,509
907.511353,473
907.62738,473
907.743408,484
907.859497,488
907.975525,487
908.091553,494
908.207703,492
908.32373,499
908.439758,487
908.555786,468
908.671814,476
908.787842,495
908.90387,497
909.019775,489
909.135864,481
909.251892,490
909.367859,481
909.483826,502
909.599854,502
909.715881,503
909.831848,496
909.947815,478
910.063782,494
910.179749,502
910.295776,497
910.411743,492
910.527649,485
910.643616,486
910.759583,506
910.875488,503
910.991455,493
911.107361,493
911.223267,492
911.339294,461
911.4552,481
911.571106,486
911.687073,481
911.802979,486
911.918823,487
912.034729,497
912.150635,482
912.266602,502
912.382446,494
912.498352,488
912.614197,484
912.730103,484
912.846008,499
792.44574,617
792.56488,629
792.68396,649
792.80304,636
792.92218,607
793.041199,582
793.160339,582
793.279419,601
793.398499,590
793.517578,590
793.636658,598
793.755737,596
793.874817,610
793.993896,590
794.112976,591
794.232056,588
794.351074,589
794.470215,598
794.589233,585
794.708313,564
794.827393,579
794.946411,568
795.065552,608
795.18457,599
795.303589,583
795.422668,576
795.541687,589
795.660767,578
795.779846,567
795.898865,577
796.017883,570
796.136963,575
796.255981,570
796.375061,583
796.49408,592
796.613037,568
796.732117,567
796.851135,557
796.970154,593
797.089233,574
797.208191,552
797.327271,571
797.446228,552
797.565186,563
797.684265,563
797.803223,564
797.922241,564
798.04126,552
798.160278,567
798.279297,557
798.398315,581
798.517273,557
798.636292,561
798.75531,571
798.874268,578
798.993286,557
799.112244,579
799.231323,547
799.350281,560
799.469238,564
799.588257,577
799.707153,560
799.826111,571
799.945129,542
800.064087,542
800.183044,566
800.302063,593
800.421021,575
800.539978,567
800.658936,595
800.777893,559
800.896912,550
801.015747,561
801.134705,545
801.253723,555
801.37262,554
801.491638,582
801.610535,578
801.729492,595
801.84845,568
801.967407,574
802.086243,554
802.205261,592
802.324158,561
802.443115,582
802.562073,589
802.680969,574
802.799927,595
802.918762,597
803.037659,567
803.156677,598
803.275574,552
803.39447,574
803.513428,551
803.632263,559
803.751221,577
803.870117,569
803.989014,600
804.107971,562
804.226746,593
804.345642,579
804.4646,584
804.583496,588
804.702393,588
804.821228,576
804.940125,562
805.059021,583
805.177917,567
805.296814,580
805.415649,603
805.534546,587
805.653442,588
805.772278,602
805.891113,598
806.01001,597
806.128906,587
806.247742,602
806.366577,595
806.485413,608
806.604309,566
806.723145,609
806.84198,616
806.960876,603
807.079712,612
807.198486,600
807.317383,588
807.436218,611
807.554993,575
807.673889,598
807.792725,592
807.91156,608
808.030396,591
808.14917,593
808.268005,593
808.386841,600
808.505676,615
808.624451,599
808.743286,577
808.862122,600
808.980896,606
809.099731,621
809.218506,618
809.337341,594
809.456116,603
809.57489,605
809.693726,607
809.8125,610
809.931274,625
810.050049,586
810.168884,604
810.287659,608
810.406372,604
810.525269,614
810.643982,610
810.762756,611
810.881531,607
811.000305,638
811.11908,623
811.237854,611
811.356567,616
811.475403,646
811.594116,592
811.71283,605
811.831604,626
811.950378,626
812.069153,612
812.187927,619
812.30658,616
812.425415,616
812.544128,622
812.662781,614
812.781616,604
812.900269,617
813.019043,594
813.137756,612
813.256531,614
813.375244,618
813.493896,601
813.612671,605
813.731384,592
813.850037,596
813.96875,623
814.087524,606
814.206238,623
814.324951,614
814.443604,606
814.562256,604
814.68103,607
814.799683,616
814.918335,593
815.037109,595
815.155762,577
815.274475,598
815.393188,580
815.511841,608
815.630554,594
815.749146,611
815.867859,591
815.986572,611
816.105164,562
816.223877,585
816.342529,601
816.461182,607
816.579895,587
816.698486,601
816.817139,577
816.935791,609
817.054504,610
817.173096,583
817.291748,588
817.4104,605
817.529053,592
817.647644,596
817.766235,554
817.884949,538
818.00354,567
818.122192,554
818.240845,561
818.359436,524
818.478088,504
818.59668,516
818.715271,526
818.833923,524
818.952515,554
819.071106,553
819.189758,510
819.30835,503
819.426941,506
819.545532,496
819.664124,492
819.782715,495
819.901306,502
820.019897,499
820.138489,481
820.25708,489
820.375671,493
820.494202,477
820.612732,487
820.731384,500
820.849915,493
820.968506,480
821.087097,491
821.205627,492
821.324158,478
821.442749,498
821.561279,498
821.679871,482
821.798401,507
821.916931,486
822.035461,475
822.154053,480
822.272583,484
822.391174,495
822.509583,492
822.628174,478
822.746704,500
822.865234,477
822.983765,492
823.102295,509
823.220825,492
823.339294,489
823.457825,496
823.576355,498
823.694824,487
823.813354,489
823.931885,483
824.050354,489
824.168884,479
824.287354,479
824.405823,508
824.524353,468
824.642822,486
824.761353,500
824.879822,462
824.998291,493
825.116699,477
825.235291,491
825.353699,484
825.472168,467
825.590637,479
825.709106,479
825.827576,479
825.946045,492
826.064453,496
826.182983,501
826.301392,466
826.4198,472
826.53833,470
826.656738,463
826.775208,471
826.893677,458
827.012024,466
827.130493,482
827.248962,469
827.36731,462
827.485779,473
827.604248,476
827.722595,476
827.841064,460
827.959412,452
828.077942,465
828.196289,442
828.314636,475
828.433105,468
828.551514,470
828.669861,469
828.78833,453
828.906677,461
829.025085,470
829.143433,457
829.261841,462
829.38031,475
829.498657,471
829.617004,460
829.735413,459
829.85376,457
829.972107,469
830.090515,459
830.208862,473
830.327209,472
830.445557,464
830.563904,471
830.682312,456
830.800659,469
830.919006,462
831.037354,449
831.155701,463
831.274048,483
831.392395,481
831.51062,452
831.629028,463
831.747314,448
831.865662,464
831.984009,449
832.102356,482
832.220642,466
832.338928,468
832.457275,461
832.575623,444
832.693909,456
832.812134,468
832.930481,476
833.048828,460
833.167114,434
833.2854,465
833.403687,476
833.521973,455
833.640259,470
833.758545,448
833.876831,449
833.995056,472
834.113281,457
834.231628,474
834.349915,438
834.468201,451
834.586426,480
834.704651,451
834.822998,455
834.941162,467
835.059448,458
835.177673,462
835.295959,470
835.414246,468
835.53241,445
835.650635,465
835.768921,467
835.887146,448
836.005371,466
836.123596,482
836.241821,476
836.360046,469
836.478271,458
836.596497,470
836.714722,479
836.832886,483
836.95105,449
837.069336,490
837.1875,497
837.305725,490
837.423889,478
837.542053,470
837.660339,472
837.778503,507
837.896667,466
838.014832,466
838.132996,480
838.25116,483
838.369385,475
838.487488,462
838.605713,463
838.723877,482
838.84198,473
838.960205,496
839.078308,453
839.196472,462
839.314636,475
839.4328,459
839.550964,475
839.669067,470
839.787231,451
839.905396,492
840.023499,470
840.141602,474
840.259766,467
840.377869,479
840.495972,452
840.614136,455
840.732239,458
840.850342,469
840.968445,464
841.086548,477
841.204651,466
841.322754,450
841.440918,459
841.55896,474
841.677002,461
841.795166,468
841.913208,473
842.031311,474
842.149353,451
842.267456,468
842.385498,458
842.503601,451
842.621643,467
842.739746,470
842.857788,451
842.97583,453
843.093933,441
843.211975,470
843.330017,449
843.44812,465
843.566101,462
843.684204,461
843.802246,451
843.920227,460
844.038269,461
844.156311,444
844.274292,449
844.392395,443
844.510376,451
844.628357,467
844.74646,464
844.864441,445
844.982422,463
845.100403,449
845.218384,467
845.336426,450
845.454468,454
845.572449,469
845.69043,461
845.808411,465
845.926453,458
846.044373,452
846.162354,432
846.280396,480
846.398315,446
846.516296,445
846.634216,450
846.752197,475
846.870178,455
846.988098,449
847.106079,468
847.22406,453
847.34198,462
847.4599,464
847.577881,459
847.695801,458
847.813782,456
847.931641,460
848.049561,443
848.167603,478
848.285461,465
848.403381,469
848.521362,464
848.639221,450
848.75708,453
848.875,470
848.99292,461
849.110901,458
849.22876,453
849.34668,456
849.464539,459
849.582458,434
849.700317,460
849.818176,463
849.936096,439
850.053955,440
850.171875,453
850.289673,439
850.407593,440
850.525452,470
850.643311,458
850.761169,445
850.878967,444
850.996887,474
851.114746,452
851.232544,462
851.350403,466
851.468262,463
851.58606,478
851.703979,469
851.821777,447
851.939636,469
852.057434,446
852.175232,445
852.293091,474
852.410889,450
852.528687,442
852.646545,468
852.764343,443
852.88208,456
852.999939,454
853.117676,458
853.235535,473
853.353271,463
853.471069,450
853.588928,462
853.706604,465
853.824402,443
853.9422,462
854.059998,467
854.177734,467
854.295532,477
854.413269,466
854.531006,466
854.648804,445
854.766541,470
854.884277,471
855.002014,465
855.119751,452
855.237549,454
855.355225,438
855.473022,447
855.590698,458
855.708435,459
855.826172,455
855.943848,455
856.061646,460
856.179321,477
856.296997,456
856.414795,469
856.53241,451
856.650085,473
856.767822,458
856.885559,477
857.003174,462
857.120911,470
857.238586,477
857.356201,452
857.473938,451
857.591614,486
857.709351,449
857.826965,469
857.944641,466
858.062317,473
858.179993,470
858.297668,464
858.415283,460
858.532959,446
858.650574,472
858.768188,451
858.885803,438
859.003479,479
859.121094,469
859.23877,459
859.356384,456
859.473999,453
859.591675,454
859.709229,461
859.826843,475
859.944458,442
860.062012,455
860.179626,476
860.297302,456
860.414856,474
860.532471,474
860.650024,443
860.767639,458
860.885193,471
861.002808,453
861.120361,461
861.237976,460
861.35553,468
861.473022,445
861.590698,480
861.708191,457
861.825745,455
861.943298,449
862.060852,463
862.178406,437
862.295959,460
862.413513,455
862.531006,490
862.64856,454
862.766113,462
862.883667,452
863.00116,461
863.118713,487
863.236206,479
863.353699,442
863.471252,445
863.588745,453
863.706177,459
863.82373,449
863.941162,465
864.058716,479
864.176208,463
864.29364,454
864.411194,474
864.528687,452
864.646118,467
864.763611,464
864.881042,463
864.998535,463
865.116028,467
865.233459,446
865.350891,474
865.468384,483
865.585754,467
865.703308,462
865.820679,460
865.938171,445
866.055542,459
866.173035,471
866.290466,485
866.407837,465
866.52533,464
866.6427,471
866.760071,496
866.877563,467
866.994934,477
867.112305,439
867.229736,454
867.347107,455
867.464539,467
867.58197,471
867.699341,461
867.81665,466
867.934082,483
868.051453,454
868.168823,464
868.286194,469
868.403564,454
868.520935,456
868.638306,458
868.755676,445
868.872986,471
868.990295,465
869.107727,479
869.225037,478
869.342346,465
869.459717,458
869.577026,455
869.694336,480
869.811707,470
869.929016,465
870.046326,464
870.163635,464
870.280945,487
870.398254,463
870.515564,481
870.632812,463
870.750183,471
870.867432,457
870.984741,465
871.102051,479
871.219299,467
871.336609,463
871.453918,472
871.571106,469
871.688416,480
871.805664,444
871.922852,470
872.040222,462
872.157471,456
872.274719,467
872.391968,499
872.509155,463
872.626465,477
872.743652,475
872.860962,454
872.978149,496
873.095337,459
873.212646,472
873.329834,465
873.44696,465
873.564209,452
873.681396,461
873.798645,469
873.915894,466
874.03302,474
874.150208,461
874.267456,477
874.384583,451
874.501831,468
874.618958,457
874.736145,459
874.853333,454
874.970459,475
875.087646,486
875.204834,459
875.32196,473
875.439148,469
875.556274,458
875.673401,460
875.790527,486
875.907715,479
876.024841,465
876.141968,478
876.259094,480
876.376282,476
876.493347,460
876.610474,468
876.7276,465
876.844727,478
876.961853,448
877.078918,468
877.195984,468
877.313171,465
877.430237,463
877.547302,470
877.664368,462
877.781433,475
877.898499,483
878.015625,460
878.13269,466
878.249695,489
878.366821,471
878.483887,459
878.600952,476
878.717957,473
878.834961,484
878.952087,475
879.069092,467
879.186157,476
879.303162,475
879.420227,474
879.537231,475
879.654236,480
879.77124,463
879.888306,445
880.005249,463
880.122314,470
880.239319,457
880.356323,462
880.473328,463
880.590271,495
880.707275,487
880.824341,485
880.941284,484
881.058228,468
881.175232,477
881.292236,471
881.40918,444
881.526123,473
881.643066,461
881.760071,478
881.877014,470
881.993958,478
882.11084,469
882.227783,482
882.344727,475
882.46167,471
882.578613,464
882.695618,459
882.812439,469
882.929382,488
883.046326,464
883.163208,488
883.280151,493
883.397034,472
883.513916,475
883.630798,487
883.747742,477
883.864563,471
883.981506,457
884.098389,471
884.21521,466
884.332153,479
884.448975,478
884.565796,473
884.682678,467
884.7995,480
884.916443,460
885.033264,486
885.150085,490
885.266968,483
885.383789,475
885.500671,469
885.617493,458
885.734314,474
885.851196,476
885.967896,486
886.084717,482
886.201599,475
886.318359,468
886.435181,495
886.552002,482
886.668762,506
886.785645,461
886.902344,473
887.019165,462
887.135925,479
887.252747,460
887.369446,468
887.486267,475
887.603027,470
887.719788,461
887.836548,470
887.953247,486
888.070068,484
888.186829,482
888.303528,474
888.420288,464
888.536987,476
888.653687,469
888.770447,472
888.887146,468
889.003967,472
889.120667,488
889.237305,470
889.354065,482
889.470703,503
889.587463,481
889.704163,475
889.820862,482
889.937561,459
890.054199,491
890.170837,477
890.287598,481
890.404236,455
890.520874,468
890.637634,460
890.754211,475
890.87085,471
890.987549,498
891.104187,464
891.220886,479
891.337463,487
891.454102,486
891.57074,491
891.687378,454
891.804077,487
891.920654,467
892.037231,490
892.15387,472
892.270447,490
892.387085,489
892.503723,464
892.6203,480
892.736877,493
892.853516,478
892.970032,479
893.08667,479
893.203186,484
893.319763,473
893.43634,468
893.552917,469
893.669556,500
893.786011,482
893.902588,483
894.019165,484
894.135681,491
894.252197,475
894.368835,482
894.485291,482
894.601868,485
894.718384,486
894.8349,481
894.951355,477
895.067932,480
895.184448,481
895.300964,495
895.417419,491
895.533936,466
895.650452,478
895.766907,494
895.883423,482
895.999878,478
896.116333,481
896.232849,492
896.349304,489
896.465759,469
896.582214,488
896.698669,485
896.815125,476
896.931641,484
897.048035,473
897.164551,481
897.280884,483
897.397339,484
897.513794,469
897.630249,487
897.746582,495
897.863098,487
897.979431,483
898.095886,482
898.212341,500
898.328674,494
898.445129,478
898.561462,499
898.677795,482
898.794312,488
898.910645,464
899.026978,466
899.143433,478
899.259766,496
899.37616,466
899.492493,476
899.608765,501
899.725159,471
899.841553,488
899.957947,500
900.07428,499
900.190552,489
900.306946,473
900.423157,483
900.53949,482
900.655884,493
900.772156,498
900.888489,499
901.004822,486
901.121033,500
901.237366,487
901.353699,480
901.46991,482
901.586304,488
901.702515,491
901.818787,486
901.93512,487
902.051331,500
902.167603,490
902.283875,483
902.400085,496
902.516418,479
902.632629,469
902.74884,491
902.865112,484
902.981384,475
903.097595,493
903.213867,486
903.330017,491
903.446289,493
903.5625,511
903.67865,491
903.794922,461
903.911072,472
904.027344,464
904.143494,490
904.259705,499
904.375916,486
904.492065,489
904.608215,498
904.724426,498
904.840576,494
904.956726,485
905.072876,482
905.189087,490
905.305176,494
905.421387,493
905.537537,491
905.653687,480
905.769775,501
905.885925,479
906.002014,499
906.118164,505
906.234314,487
906.350403,495
906.466492,482
906.582642,508
906.69873,494
906.814758,508
906.930908,488
907.046936,482
907.163086,494
907.279175,481
907.395264,491
907.511353,513
907.62738,504
907.743408,491
907.859497,497
907.975525,472
908.091553,474
908.207703,487
908.32373,492
908.439758,500
908.555786,495
908.671814,498
908.787842,487
908.90387,454
909.019775,503
909.135864,493
909.251892,490
909.367859,486
909.483826,496
909.599854,497
909.715881,493
909.831848,501
909.947815,503
910.063782,472
910.179749,510
910.295776,491
910.411743,485
910.527649,470
910.643616,493
910.759583,492
910.875488,518
910.991455,491
911.107361,486
911.223267,494
911.339294,515
911.4552,509
911.571106,486
911.687073,514
911.802979,498
911.918823,507
912.034729,510
912.150635,491
912.266602,489
912.382446,492
912.498352,508
912.614197,506
912.730103,486
912.846008,487
