792.44574,598
792.56488,629
792.68396,670
792.80304,641
792.92218,600
793.041199,582
793.160339,579
793.279419,607
793.398499,616
793.517578,562
793.636658,596
793.755737,619
793.874817,598
793.993896,608
794.112976,592
794.232056,589
794.351074,591
794.470215,609
794.589233,576
794.708313,574
794.827393,585
794.946411,552
795.065552,577
795.18457,579
795.303589,601
795.422668,599
795.541687,571
795.660767,553
795.779846,577
795.898865,573
796.017883,573
796.136963,579
796.255981,572
796.375061,566
796.49408,562
796.613037,551
796.732117,581
796.851135,590
796.970154,563
797.089233,585
797.208191,569
797.327271,568
797.446228,572
797.565186,567
797.684265,561
797.803223,579
797.922241,572
798.04126,559
798.160278,550
798.279297,579
798.398315,554
798.517273,553
798.636292,567
798.75531,570
798.874268,562
798.993286,573
799.112244,542
799.231323,575
799.350281,570
799.469238,552
799.588257,574
799.707153,558
799.826111,564
799.945129,587
800.064087,574
800.183044,553
800.302063,577
800.421021,561
800.539978,576
800.658936,593
800.777893,546
800.896912,562
801.015747,541
801.134705,565
801.253723,555
801.37262,564
801.491638,573
801.610535,564
801.729492,569
801.84845,582
801.967407,568
802.086243,595
802.205261,585
802.324158,566
802.443115,591
802.562073,564
802.680969,570
802.799927,581
802.918762,593
803.037659,563
803.156677,574
803.275574,574
803.39447,581
803.513428,572
803.632263,592
803.751221,560
803.870117,591
803.989014,582
804.107971,601
804.226746,563
804.345642,576
804.4646,580
804.583496,564
804.702393,577
804.821228,587
804.940125,575
805.059021,588
805.177917,598
805.296814,585
805.415649,611
805.534546,577
805.653442,583
805.772278,608
805.891113,614
806.01001,608
806.128906,582
806.247742,598
806.366577,610
806.485413,587
806.604309,594
806.723145,587
806.84198,614
806.960876,611
807.079712,598
807.198486,593
807.317383,594
807.436218,610
807.554993,619
807.673889,616
807.792725,600
807.91156,620
808.030396,588
808.14917,587
808.268005,606
808.386841,602
808.505676,629
808.624451,575
808.743286,634
808.862122,606
808.980896,605
809.099731,588
809.218506,570
809.337341,614
809.456116,626
809.57489,622
809.693726,629
809.8125,587
809.931274,618
810.050049,622
810.168884,624
810.287659,647
810.406372,598
810.525269,626
810.643982,583
810.762756,618
810.881531,597
811.000305,615
811.11908,625
811.237854,605
811.356567,602
811.475403,615
811.594116,601
811.71283,598
811.831604,629
811.950378,614
812.069153,627
812.187927,614
812.30658,615
812.425415,629
812.544128,632
812.662781,631
812.781616,598
812.900269,591
813.019043,620
813.137756,615
813.256531,589
813.375244,587
813.493896,619
813.612671,642
813.731384,616
813.850037,607
813.96875,622
814.087524,588
814.206238,619
814.324951,626
814.443604,621
814.562256,588
814.68103,600
814.799683,599
814.918335,615
815.037109,590
815.155762,595
815.274475,606
815.393188,607
815.511841,592
815.630554,604
815.749146,598
815.867859,616
815.986572,596
816.105164,590
816.223877,577
816.342529,586
816.461182,607
816.579895,598
816.698486,618
816.817139,595
816.935791,601
817.054504,614
817.173096,565
817.291748,579
817.4104,594
817.529053,578
817.647644,577
817.766235,535
817.884949,573
818.00354,567
818.122192,531
818.240845,570
818.359436,535
818.478088,550
818.59668,528
818.715271,540
818.833923,524
818.952515,520
819.071106,512
819.189758,510
819.30835,492
819.426941,501
819.545532,508
819.664124,489
819.782715,496
819.901306,497
820.019897,493
820.138489,482
820.25708,510
820.375671,497
820.494202,489
820.612732,516
820.731384,495
820.849915,500
820.968506,486
821.087097,478
821.205627,498
821.324158,492
821.442749,480
821.561279,485
821.679871,480
821.798401,467
821.916931,474
822.035461,491
822.154053,477
822.272583,477
822.391174,483
822.509583,467
822.628174,477
822.746704,463
822.865234,479
822.983765,473
823.102295,474
823.220825,469
823.339294,482
823.457825,494
823.576355,486
823.694824,477
823.813354,479
823.931885,469
824.050354,475
824.168884,484
824.287354,507
824.405823,487
824.524353,486
824.642822,502
824.761353,501
824.879822,491
824.998291,491
825.116699,482
825.235291,489
825.353699,476
825.472168,468
825.590637,471
825.709106,493
825.827576,489
825.946045,453
826.064453,471
826.182983,467
826.301392,464
826.4198,480
826.53833,486
826.656738,474
826.775208,458
826.893677,458
827.012024,459
827.130493,459
827.248962,481
827.36731,487
827.485779,469
827.604248,485
827.722595,473
827.841064,482
827.959412,453
828.077942,451
828.196289,448
828.314636,471
828.433105,449
828.551514,469
828.669861,465
828.78833,435
828.906677,462
829.025085,454
829.143433,457
829.261841,449
829.38031,470
829.498657,447
829.617004,467
829.735413,458
829.85376,451
829.972107,459
830.090515,447
830.208862,437
830.327209,453
830.445557,455
830.563904,456
830.682312,470
830.800659,470
830.919006,460
831.037354,446
831.155701,478
831.274048,450
831.392395,455
831.51062,452
831.629028,453
831.747314,465
831.865662,470
831.984009,452
832.102356,448
832.220642,474
832.338928,460
832.457275,462
832.575623,448
832.693909,452
832.812134,444
832.930481,467
833.048828,450
833.167114,467
833.2854,467
833.403687,450
833.521973,456
833.640259,462
833.758545,450
833.876831,467
833.995056,450
834.113281,452
834.231628,459
834.349915,466
834.468201,469
834.586426,453
834.704651,460
834.822998,461
834.941162,456
835.059448,472
835.177673,460
835.295959,468
835.414246,481
835.53241,461
835.650635,462
835.768921,459
835.887146,475
836.005371,465
836.123596,459
836.241821,459
836.360046,459
836.478271,456
836.596497,478
836.714722,476
836.832886,477
836.95105,471
837.069336,456
837.1875,483
837.305725,454
837.423889,480
837.542053,469
837.660339,483
837.778503,478
837.896667,470
838.014832,470
838.132996,466
838.25116,485
838.369385,479
838.487488,492
838.605713,464
838.723877,487
838.84198,456
838.960205,487
839.078308,489
839.196472,469
839.314636,473
839.4328,460
839.550964,479
839.669067,474
839.787231,475
839.905396,470
840.023499,457
840.141602,484
840.259766,458
840.377869,465
840.495972,471
840.614136,461
840.732239,457
840.850342,456
840.968445,468
841.086548,456
841.204651,488
841.322754,484
841.440918,478
841.55896,457
841.677002,467
841.795166,464
841.913208,459
842.031311,471
842.149353,454
842.267456,453
842.385498,455
842.503601,460
842.621643,463
842.739746,459
842.857788,462
842.97583,450
843.093933,446
843.211975,460
843.330017,442
843.44812,457
843.566101,468
843.684204,453
843.802246,460
843.920227,437
844.038269,460
844.156311,453
844.274292,475
844.392395,450
844.510376,441
844.628357,462
844.74646,460
844.864441,447
844.982422,481
845.100403,445
845.218384,434
845.336426,452
845.454468,466
845.572449,457
845.69043,458
845.808411,443
845.926453,455
846.044373,463
846.162354,456
846.280396,446
846.398315,455
846.516296,467
846.634216,456
846.752197,447
846.870178,460
846.988098,441
847.106079,476
847.22406,460
847.34198,458
847.4599,432
847.577881,462
847.695801,443
847.813782,420
847.931641,456
848.049561,454
848.167603,456
848.285461,430
848.403381,458
848.521362,437
848.639221,441
848.75708,453
848.875,433
848.99292,451
849.110901,457
849.22876,466
849.34668,447
849.464539,471
849.582458,469
849.700317,465
849.818176,464
849.936096,448
850.053955,456
850.171875,461
850.289673,452
850.407593,467
850.525452,461
850.643311,457
850.761169,457
850.878967,448
850.996887,451
851.114746,458
851.232544,465
851.350403,455
851.468262,458
851.58606,443
851.703979,429
851.821777,461
851.939636,440
852.057434,453
852.175232,458
852.293091,452
852.410889,459
852.528687,460
852.646545,447
852.764343,458
852.88208,455
852.999939,465
853.117676,451
853.235535,451
853.353271,451
853.471069,464
853.588928,448
853.706604,462
853.824402,462
853.9422,462
854.059998,449
854.177734,463
854.295532,446
854.413269,465
854.531006,450
854.648804,460
854.766541,448
854.884277,465
855.002014,479
855.119751,455
855.237549,449
855.355225,461
855.473022,447
855.590698,469
855.708435,454
855.826172,467
855.943848,464
856.061646,462
856.179321,462
856.296997,466
856.414795,458
856.53241,466
856.650085,466
856.767822,464
856.885559,451
857.003174,469
857.120911,455
857.238586,454
857.356201,452
857.473938,461
857.591614,463
857.709351,480
857.826965,466
857.944641,473
858.062317,476
858.179993,466
858.297668,455
858.415283,473
858.532959,468
858.650574,467
858.768188,457
858.885803,448
859.003479,444
859.121094,455
859.23877,457
859.356384,460
859.473999,462
859.591675,449
859.709229,462
859.826843,457
859.944458,480
860.062012,443
860.179626,461
860.297302,462
860.414856,467
860.532471,475
860.650024,459
860.767639,480
860.885193,473
861.002808,476
861.120361,452
861.237976,455
861.35553,464
861.473022,456
861.590698,451
861.708191,466
861.825745,445
861.943298,472
862.060852,455
862.178406,460
862.295959,442
862.413513,437
862.531006,456
862.64856,474
862.766113,465
862.883667,468
863.00116,466
863.118713,438
863.236206,446
863.353699,463
863.471252,458
863.588745,467
863.706177,460
863.82373,462
863.941162,463
864.058716,459
864.176208,463
864.29364,449
864.411194,444
864.528687,472
864.646118,440
864.763611,457
864.881042,461
864.998535,462
865.116028,453
865.233459,452
865.350891,478
865.468384,436
865.585754,490
865.703308,475
865.820679,469
865.938171,459
866.055542,463
866.173035,453
866.290466,452
866.407837,473
866.52533,464
866.6427,457
866.760071,475
866.877563,480
866.994934,458
867.112305,464
867.229736,471
867.347107,467
867.464539,477
867.58197,455
867.699341,471
867.81665,449
867.934082,471
868.051453,469
868.168823,473
868.286194,483
868.403564,444
868.520935,441
868.638306,453
868.755676,472
868.872986,456
868.990295,463
869.107727,472
869.225037,471
869.342346,474
869.459717,463
869.577026,473
869.694336,476
869.811707,443
869.929016,464
870.046326,468
870.163635,479
870.280945,475
870.398254,485
870.515564,475
870.632812,457
870.750183,480
870.867432,458
870.984741,480
871.102051,460
871.219299,463
871.336609,470
871.453918,461
871.571106,476
871.688416,471
871.805664,475
871.922852,470
872.040222,484
872.157471,455
872.274719,471
872.391968,459
872.509155,471
872.626465,467
872.743652,454
872.860962,455
872.978149,457
873.095337,469
873.212646,477
873.329834,474
873.44696,460
873.564209,457
873.681396,470
873.798645,468
873.915894,465
874.03302,452
874.150208,463
874.267456,477
874.384583,476
874.501831,465
874.618958,473
874.736145,464
874.853333,458
874.970459,478
875.087646,468
875.204834,467
875.32196,466
875.439148,465
875.556274,472
875.673401,448
875.790527,469
875.907715,468
876.024841,460
876.141968,467
876.259094,479
876.376282,439
876.493347,471
876.610474,474
876.7276,447
876.844727,459
876.961853,474
877.078918,478
877.195984,462
877.313171,473
877.430237,482
877.547302,478
877.664368,468
877.781433,443
877.898499,477
878.015625,488
878.13269,461
878.249695,449
878.366821,471
878.483887,460
878.600952,483
878.717957,465
878.834961,468
878.952087,476
879.069092,479
879.186157,472
879.303162,476
879.420227,481
879.537231,477
879.654236,482
879.77124,456
879.888306,477
880.005249,470
880.122314,491
880.239319,489
880.356323,481
880.473328,468
880.590271,463
880.707275,470
880.824341,488
880.941284,468
881.058228,474
881.175232,473
881.292236,480
881.40918,463
881.526123,478
881.643066,443
881.760071,450
881.877014,479
881.993958,454
882.11084,486
882.227783,468
882.344727,483
882.46167,458
882.578613,469
882.695618,465
882.812439,477
882.929382,482
883.046326,494
883.163208,470
883.280151,476
883.397034,466
883.513916,445
883.630798,483
883.747742,475
883.864563,459
883.981506,474
884.098389,480
884.21521,476
884.332153,475
884.448975,458
884.565796,469
884.682678,475
884.7995,461
884.916443,463
885.033264,487
885.150085,484
885.266968,489
885.383789,455
885.500671,461
885.617493,491
885.734314,482
885.851196,472
885.967896,456
886.084717,468
886.201599,465
886.318359,470
886.435181,490
886.552002,451
886.668762,471
886.785645,482
886.902344,464
887.019165,476
887.135925,452
887.252747,463
887.369446,484
887.486267,460
887.603027,497
887.719788,472
887.836548,465
887.953247,464
888.070068,468
888.186829,476
888.303528,470
888.420288,460
888.536987,476
888.653687,472
888.770447,479
888.887146,493
889.003967,459
889.120667,468
889.237305,473
889.354065,469
889.470703,486
889.587463,462
889.704163,473
889.820862,467
889.937561,473
890.054199,489
890.170837,500
890.287598,475
890.404236,488
890.520874,475
890.637634,469
890.754211,497
890.87085,499
890.987549,470
891.104187,489
891.220886,466
891.337463,469
891.454102,460
891.57074,465
891.687378,467
891.804077,482
891.920654,468
892.037231,490
892.15387,476
892.270447,481
892.387085,468
892.503723,482
892.6203,505
892.736877,473
892.853516,481
892.970032,449
893.08667,482
893.203186,461
893.319763,479
893.43634,503
893.552917,475
893.669556,480
893.786011,490
893.902588,482
894.019165,478
894.135681,461
894.252197,476
894.368835,477
894.485291,477
894.601868,474
894.718384,488
894.8349,482
894.951355,485
895.067932,478
895.184448,474
895.300964,471
895.417419,478
895.533936,504
895.650452,481
895.766907,466
895.883423,498
895.999878,465
896.116333,488
896.232849,482
896.349304,471
896.465759,483
896.582214,456
896.698669,462
896.815125,487
896.931641,478
897.048035,469
897.164551,484
897.280884,489
897.397339,488
897.513794,501
897.630249,481
897.746582,469
897.863098,494
897.979431,480
898.095886,480
898.212341,471
898.328674,485
898.445129,471
898.561462,489
898.677795,479
898.794312,470
898.910645,481
899.026978,474
899.143433,472
899.259766,482
899.37616,470
899.492493,491
899.608765,489
899.725159,483
899.841553,478
899.957947,496
900.07428,488
900.190552,465
900.306946,477
900.423157,483
900.53949,486
900.655884,475
900.772156,485
900.888489,491
901.004822,470
901.121033,484
901.237366,492
901.353699,473
901.46991,484
901.586304,501
901.702515,473
901.818787,496
901.93512,484
902.051331,463
902.167603,477
902.283875,492
902.400085,490
902.516418,471
902.632629,476
902.74884,476
902.865112,484
902.981384,485
903.097595,507
903.213867,482
903.330017,482
903.446289,474
903.5625,475
903.67865,494
903.794922,522
903.911072,499
904.027344,482
904.143494,479
904.259705,491
904.375916,477
904.492065,498
904.608215,487
904.724426,493
904.840576,497
904.956726,493
905.072876,481
905.189087,491
905.305176,474
905.421387,483
905.537537,492
905.653687,494
905.769775,487
905.885925,478
906.002014,493
906.118164,503
906.234314,479
906.350403,479
906.466492,489
906.582642,482
906.69873,477
906.814758,491
906.930908,480
907.046936,490
907.163086,487
907.279175,482
907.395264,493
907.511353,482
907.62738,486
907.743408,486
907.859497,500
907.975525,508
908.091553,497
908.207703,487
908.32373,490
908.439758,470
908.555786,498
908.671814,496
908.787842,495
908.90387,501
909.019775,481
909.135864,505
909.251892,488
909.367859,480
909.483826,464
909.599854,491
909.715881,482
909.831848,499
909.947815,498
910.063782,506
910.179749,484
910.295776,490
910.411743,498
910.527649,496
910.643616,484
910.759583,475
910.875488,491
910.991455,493
911.107361,480
911.223267,489
911.339294,489
911.4552,520
911.571106,486
911.687073,471
911.802979,492
911.918823,498
912.034729,483
912.150635,485
912.266602,467
912.382446,486
912.498352,510
912.614197,484
912.730103,480
912.846008,476
792.44574,649
792.56488,631
792.68396,675
792.80304,679
792.92218,622
793.041199,589
793.160339,605
793.279419,620
793.398499,577
793.517578,584
793.636658,578
793.755737,584
793.874817,633
793.993896,603
794.112976,580
794.232056,567
794.351074,554
794.470215,570
794.589233,593
794.708313,598
794.827393,582
794.946411,562
795.065552,587
795.18457,575
795.303589,557
795.422668,580
795.541687,590
795.660767,584
795.779846,587
795.898865,582
796.017883,554
796.136963,569
796.255981,568
796.375061,587
796.49408,569
796.613037,571
796.732117,566
796.851135,582
796.970154,552
797.089233,573
797.208191,564
797.327271,570
797.446228,580
797.565186,562
797.684265,564
797.803223,555
797.922241,564
798.04126,573
798.160278,594
798.279297,563
798.398315,552
798.517273,543
798.636292,576
798.75531,581
798.874268,556
798.993286,563
799.112244,561
799.231323,549
799.350281,588
799.469238,564
799.588257,578
799.707153,555
799.826111,565
799.945129,574
800.064087,559
800.183044,589
800.302063,558
800.421021,583
800.539978,565
800.658936,584
800.777893,586
800.896912,571
801.015747,567
801.134705,572
801.253723,602
801.37262,579
801.491638,563
801.610535,571
801.729492,572
801.84845,574
801.967407,567
802.086243,593
802.205261,575
802.324158,589
802.443115,572
802.562073,606
802.680969,587
802.799927,571
802.918762,578
803.037659,600
803.156677,568
803.275574,613
803.39447,567
803.513428,571
803.632263,602
803.751221,577
803.870117,614
803.989014,578
804.107971,590
804.226746,603
804.345642,583
804.4646,583
804.583496,561
804.702393,585
804.821228,611
804.940125,590
805.059021,590
805.177917,571
805.296814,580
805.415649,625
805.534546,593
805.653442,588
805.772278,625
805.891113,592
806.01001,588
806.128906,612
806.247742,599
806.366577,593
806.485413,605
806.604309,623
806.723145,606
806.84198,595
806.960876,597
807.079712,598
807.198486,620
807.317383,634
807.436218,619
807.554993,605
807.673889,592
807.792725,594
807.91156,593
808.030396,578
808.14917,575
808.268005,596
808.386841,607
808.505676,592
808.624451,583
808.743286,611
808.862122,599
808.980896,620
809.099731,624
809.218506,626
809.337341,617
809.456116,631
809.57489,618
809.693726,648
809.8125,610
809.931274,605
810.050049,628
810.168884,609
810.287659,633
810.406372,613
810.525269,612
810.643982,613
810.762756,616
810.881531,619
811.000305,610
811.11908,609
811.237854,600
811.356567,625
811.475403,596
811.594116,639
811.71283,616
811.831604,638
811.950378,611
812.069153,622
812.187927,637
812.30658,625
812.425415,600
812.544128,613
812.662781,607
812.781616,615
812.900269,618
813.019043,604
813.137756,613
813.256531,628
813.375244,632
813.493896,620
813.612671,630
813.731384,627
813.850037,628
813.96875,633
814.087524,605
814.206238,618
814.324951,617
814.443604,599
814.562256,626
814.68103,622
814.799683,600
814.918335,602
815.037109,611
815.155762,607
815.274475,596
815.393188,620
815.511841,639
815.630554,601
815.749146,620
815.867859,592
815.986572,606
816.105164,602
816.223877,598
816.342529,594
816.461182,620
816.579895,616
816.698486,622
816.817139,608
816.935791,625
817.054504,616
817.173096,600
817.291748,588
817.4104,598
817.529053,599
817.647644,607
817.766235,566
817.884949,582
818.00354,567
818.122192,554
818.240845,562
818.359436,532
818.478088,547
818.59668,517
818.715271,545
818.833923,525
818.952515,515
819.071106,506
819.189758,515
819.30835,512
819.426941,494
819.545532,507
819.664124,494
819.782715,504
819.901306,505
820.019897,510
820.138489,498
820.25708,498
820.375671,497
820.494202,482
820.612732,491
820.731384,511
820.849915,499
820.968506,483
821.087097,515
821.205627,483
821.324158,501
821.442749,449
821.561279,497
821.679871,485
821.798401,495
821.916931,459
822.035461,485
822.154053,492
822.272583,494
822.391174,503
822.509583,483
822.628174,490
822.746704,471
822.865234,486
822.983765,493
823.102295,490
823.220825,478
823.339294,490
823.457825,496
823.576355,484
823.694824,472
823.813354,478
823.931885,475
824.050354,497
824.168884,511
824.287354,499
824.405823,486
824.524353,485
824.642822,481
824.761353,506
824.879822,494
824.998291,496
825.116699,501
825.235291,478
825.353699,478
825.472168,491
825.590637,492
825.709106,478
825.827576,487
825.946045,473
826.064453,475
826.182983,505
826.301392,462
826.4198,485
826.53833,464
826.656738,475
826.775208,485
826.893677,484
827.012024,479
827.130493,464
827.248962,477
827.36731,482
827.485779,464
827.604248,445
827.722595,471
827.841064,443
827.959412,481
828.077942,465
828.196289,464
828.314636,474
828.433105,463
828.551514,466
828.669861,465
828.78833,464
828.906677,452
829.025085,474
829.143433,464
829.261841,465
829.38031,465
829.498657,481
829.617004,449
829.735413,450
829.85376,479
829.972107,454
830.090515,462
830.208862,454
830.327209,452
830.445557,480
830.563904,452
830.682312,464
830.800659,464
830.919006,448
831.037354,463
831.155701,454
831.274048,464
831.392395,465
831.51062,466
831.629028,455
831.747314,482
831.865662,474
831.984009,467
832.102356,452
832.220642,480
832.338928,469
832.457275,471
832.575623,462
832.693909,467
832.812134,458
832.930481,458
833.048828,451
833.167114,448
833.2854,455
833.403687,455
833.521973,448
833.640259,465
833.758545,448
833.876831,459
833.995056,462
834.113281,489
834.231628,456
834.349915,462
834.468201,469
834.586426,464
834.704651,467
834.822998,473
834.941162,474
835.059448,459
835.177673,468
835.295959,459
835.414246,460
835.53241,441
835.650635,485
835.768921,457
835.887146,445
836.005371,465
836.123596,451
836.241821,459
836.360046,484
836.478271,468
836.596497,480
836.714722,466
836.832886,465
836.95105,477
837.069336,483
837.1875,470
837.305725,462
837.423889,491
837.542053,481
837.660339,472
837.778503,488
837.896667,487
838.014832,482
838.132996,479
838.25116,476
838.369385,471
838.487488,453
838.605713,472
838.723877,463
838.84198,483
838.960205,471
839.078308,474
839.196472,465
839.314636,471
839.4328,481
839.550964,486
839.669067,478
839.787231,470
839.905396,494
840.023499,484
840.141602,483
840.259766,460
840.377869,477
840.495972,474
840.614136,461
840.732239,473
840.850342,474
840.968445,463
841.086548,487
841.204651,467
841.322754,476
841.440918,460
841.55896,451
841.677002,468
841.795166,442
841.913208,449
842.031311,469
842.149353,467
842.267456,454
842.385498,457
842.503601,457
842.621643,462
842.739746,437
842.857788,457
842.97583,471
843.093933,439
843.211975,454
843.330017,456
843.44812,468
843.566101,444
843.684204,456
843.802246,454
843.920227,467
844.038269,464
844.156311,460
844.274292,453
844.392395,491
844.510376,458
844.628357,459
844.74646,467
844.864441,450
844.982422,465
845.100403,453
845.218384,446
845.336426,473
845.454468,448
845.572449,472
845.69043,452
845.808411,460
845.926453,450
846.044373,445
846.162354,469
846.280396,453
846.398315,456
846.516296,449
846.634216,446
846.752197,429
846.870178,463
846.988098,455
847.106079,446
847.22406,457
847.34198,463
847.4599,450
847.577881,448
847.695801,470
847.813782,455
847.931641,455
848.049561,452
848.167603,459
848.285461,450
848.403381,442
848.521362,473
848.639221,454
848.75708,449
848.875,459
848.99292,444
849.110901,449
849.22876,447
849.34668,456
849.464539,454
849.582458,445
849.700317,464
849.818176,462
849.936096,453
850.053955,458
850.171875,451
850.289673,447
850.407593,463
850.525452,447
850.643311,451
850.761169,468
850.878967,481
850.996887,445
851.114746,463
851.232544,437
851.350403,463
851.468262,461
851.58606,456
851.703979,459
851.821777,467
851.939636,451
852.057434,464
852.175232,471
852.293091,462
852.410889,452
852.528687,452
852.646545,457
852.764343,447
852.88208,449
852.999939,462
853.117676,450
853.235535,464
853.353271,466
853.471069,467
853.588928,441
853.706604,447
853.824402,463
853.9422,468
854.059998,446
854.177734,463
854.295532,477
854.413269,457
854.531006,438
854.648804,444
854.766541,465
854.884277,459
855.002014,466
855.119751,449
855.237549,468
855.355225,477
855.473022,481
855.590698,441
855.708435,462
855.826172,464
855.943848,452
856.061646,461
856.179321,453
856.296997,454
856.414795,448
856.53241,466
856.650085,461
856.767822,480
856.885559,460
857.003174,469
857.120911,452
857.238586,463
857.356201,465
857.473938,458
857.591614,476
857.709351,451
857.826965,458
857.944641,462
858.062317,461
858.179993,459
858.297668,457
858.415283,448
858.532959,456
858.650574,462
858.768188,470
858.885803,460
859.003479,458
859.121094,459
859.23877,459
859.356384,468
859.473999,456
859.591675,474
859.709229,474
859.826843,463
859.944458,454
860.062012,450
860.179626,460
860.297302,477
860.414856,468
860.532471,467
860.650024,465
860.767639,437
860.885193,469
861.002808,452
861.120361,457
861.237976,444
861.35553,470
861.473022,483
861.590698,450
861.708191,460
861.825745,480
861.943298,468
862.060852,464
862.178406,463
862.295959,462
862.413513,479
862.531006,471
862.64856,481
862.766113,481
862.883667,457
863.00116,460
863.118713,454
863.236206,481
863.353699,459
863.471252,479
863.588745,471
863.706177,466
863.82373,467
863.941162,459
864.058716,456
864.176208,457
864.29364,469
864.411194,460
864.528687,471
864.646118,465
864.763611,458
864.881042,473
864.998535,474
865.116028,471
865.233459,449
865.350891,444
865.468384,459
865.585754,464
865.703308,467
865.820679,470
865.938171,463
866.055542,473
866.173035,454
866.290466,446
866.407837,457
866.52533,478
866.6427,485
866.760071,466
866.877563,456
866.994934,477
867.112305,480
867.229736,457
867.347107,471
867.464539,469
867.58197,461
867.699341,451
867.81665,475
867.934082,461
868.051453,461
868.168823,468
868.286194,465
868.403564,452
868.520935,488
868.638306,469
868.755676,484
868.872986,469
868.990295,470
869.107727,456
869.225037,471
869.342346,466
869.459717,460
869.577026,457
869.694336,468
869.811707,455
869.929016,468
870.046326,460
870.163635,471
870.280945,460
870.398254,480
870.515564,464
870.632812,466
870.750183,469
870.867432,451
870.984741,449
871.102051,469
871.219299,468
871.336609,474
871.453918,460
871.571106,460
871.688416,471
871.805664,479
871.922852,472
872.040222,455
872.157471,471
872.274719,470
872.391968,464
872.509155,457
872.626465,455
872.743652,461
872.860962,472
872.978149,459
873.095337,462
873.212646,478
873.329834,469
873.44696,456
873.564209,476
873.681396,446
873.798645,480
873.915894,439
874.03302,465
874.150208,467
874.267456,454
874.384583,473
874.501831,469
874.618958,485
874.736145,477
874.853333,447
874.970459,474
875.087646,469
875.204834,469
875.32196,461
875.439148,467
875.556274,460
875.673401,453
875.790527,471
875.907715,445
876.024841,481
876.141968,456
876.259094,464
876.376282,479
876.493347,456
876.610474,475
876.7276,463
876.844727,440
876.961853,478
877.078918,456
877.195984,474
877.313171,463
877.430237,467
877.547302,466
877.664368,461
877.781433,468
877.898499,465
878.015625,467
878.13269,464
878.249695,456
878.366821,475
878.483887,461
878.600952,445
878.717957,466
878.834961,470
878.952087,477
879.069092,464
879.186157,456
879.303162,475
879.420227,481
879.537231,483
879.654236,478
879.77124,471
879.888306,473
880.005249,481
880.122314,458
880.239319,481
880.356323,463
880.473328,474
880.590271,453
880.707275,468
880.824341,468
880.941284,478
881.058228,501
881.175232,458
881.292236,459
881.40918,493
881.526123,460
881.643066,463
881.760071,475
881.877014,462
881.993958,478
882.11084,477
882.227783,449
882.344727,477
882.46167,467
882.578613,480
882.695618,474
882.812439,479
882.929382,468
883.046326,483
883.163208,481
883.280151,465
883.397034,477
883.513916,466
883.630798,482
883.747742,483
883.864563,482
883.981506,484
884.098389,467
884.21521,465
884.332153,484
884.448975,484
884.565796,469
884.682678,466
884.7995,465
884.916443,468
885.033264,483
885.150085,478
885.266968,481
885.383789,501
885.500671,477
885.617493,464
885.734314,474
885.851196,483
885.967896,479
886.084717,470
886.201599,467
886.318359,484
886.435181,490
886.552002,495
886.668762,479
886.785645,471
886.902344,471
887.019165,489
887.135925,461
887.252747,481
887.369446,474
887.486267,472
887.603027,479
887.719788,465
887.836548,463
887.953247,469
888.070068,496
888.186829,477
888.303528,469
888.420288,487
888.536987,498
888.653687,484
888.770447,472
888.887146,481
889.003967,486
889.120667,463
889.237305,463
889.354065,480
889.470703,477
889.587463,464
889.704163,467
889.820862,458
889.937561,478
890.054199,488
890.170837,484
890.287598,478
890.404236,494
890.520874,492
890.637634,499
890.754211,482
890.87085,481
890.987549,473
891.104187,474
891.220886,477
891.337463,476
891.454102,485
891.57074,477
891.687378,491
891.804077,479
891.920654,461
892.037231,491
892.15387,493
892.270447,464
892.387085,473
892.503723,478
892.6203,471
892.736877,477
892.853516,490
892.970032,479
893.08667,474
893.203186,478
893.319763,499
893.43634,483
893.552917,486
893.669556,475
893.786011,470
893.902588,513
894.019165,470
894.135681,471
894.252197,482
894.368835,487
894.485291,488
894.601868,485
894.718384,490
894.8349,500
894.951355,466
895.067932,479
895.184448,468
895.300964,485
895.417419,478
895.533936,477
895.650452,482
895.766907,474
895.883423,477
895.999878,493
896.116333,490
896.232849,480
896.349304,495
896.465759,465
896.582214,481
896.698669,507
896.815125,485
896.931641,493
897.048035,492
897.164551,479
897.280884,498
897.397339,476
897.513794,477
897.630249,497
897.746582,489
897.863098,481
897.979431,481
898.095886,495
898.212341,476
898.328674,479
898.445129,482
898.561462,481
898.677795,506
898.794312,477
898.910645,488
899.026978,474
899.143433,477
899.259766,490
899.37616,484
899.492493,479
899.608765,478
899.725159,520
899.841553,493
899.957947,475
900.07428,494
900.190552,466
900.306946,485
900.423157,484
900.53949,492
900.655884,470
900.772156,484
900.888489,486
901.004822,491
901.121033,469
901.237366,491
901.353699,477
901.46991,475
901.586304,475
901.702515,476
901.818787,507
901.93512,474
902.051331,488
902.167603,487
902.283875,510
902.400085,490
902.516418,489
902.632629,473
902.74884,491
902.865112,500
902.981384,481
903.097595,499
903.213867,484
903.330017,474
903.446289,492
903.5625,479
903.67865,487
903.794922,496
903.911072,491
904.027344,491
904.143494,487
904.259705,497
904.375916,497
904.492065,497
904.608215,503
904.724426,500
904.840576,489
904.956726,497
905.072876,498
905.189087,482
905.305176,517
905.421387,499
905.537537,493
905.653687,471
905.769775,498
905.885925,486
906.002014,487
906.118164,504
906.234314,481
906.350403,476
906.466492,484
906.582642,489
906.69873,478
906.814758,501
906.930908,465
907.046936,475
907.163086,493
907.279175,487
907.395264,497
907.511353,507
907.62738,483
907.743408,509
907.859497,479
907.975525,484
908.091553,477
908.207703,508
908.32373,469
908.439758,502
908.555786,479
908.671814,510
908.787842,475
908.90387,493
909.019775,483
909.135864,500
909.251892,489
909.367859,507
909.483826,482
909.599854,506
909.715881,494
909.831848,484
909.947815,490
910.063782,482
910.179749,477
910.295776,497
910.411743,498
910.527649,508
910.643616,476
910.759583,502
910.875488,507
910.991455,486
911.107361,476
911.223267,508
911.339294,491
911.4552,486
911.571106,470
911.687073,496
911.802979,489
911.918823,513
912.034729,490
912.150635,491
912.266602,507
912.382446,471
912.498352,471
912.614197,502
912.730103,483
912.846008,509
792.44574,602
792.56488,625
792.68396,674
792.80304,651
792.92218,608
793.041199,590
793.160339,583
793.279419,619
793.398499,600
793.517578,576
793.636658,605
793.755737,610
793.874817,598
793.993896,627
794.112976,588
794.232056,579
794.351074,586
794.470215,570
794.589233,595
794.708313,562
794.827393,572
794.946411,577
795.065552,584
795.18457,591
795.303589,572
795.422668,567
795.541687,566
795.660767,590
795.779846,557
795.898865,571
796.017883,584
796.136963,567
796.255981,591
796.375061,569
796.49408,589
796.613037,579
796.732117,565
796.851135,585
796.970154,582
797.089233,570
797.208191,540
797.327271,583
797.446228,567
797.565186,590
797.684265,583
797.803223,565
797.922241,594
798.04126,573
798.160278,560
798.279297,583
798.398315,562
798.517273,548
798.636292,560
798.75531,581
798.874268,559
798.993286,559
799.112244,557
799.231323,579
799.350281,559
799.469238,568
799.588257,563
799.707153,574
799.826111,575
799.945129,590
800.064087,569
800.183044,563
800.302063,597
800.421021,560
800.539978,548
800.658936,565
800.777893,562
800.896912,563
801.015747,553
801.134705,574
801.253723,567
801.37262,580
801.491638,581
801.610535,546
801.729492,563
801.84845,561
801.967407,572
802.086243,585
802.205261,594
802.324158,573
802.443115,577
802.562073,583
802.680969,581
802.799927,574
802.918762,580
803.037659,568
803.156677,604
803.275574,600
803.39447,591
803.513428,583
803.632263,592
803.751221,594
803.870117,595
803.989014,596
804.107971,597
804.226746,572
804.345642,595
804.4646,589
804.583496,603
804.702393,590
804.821228,579
804.940125,595
805.059021,583
805.177917,609
805.296814,582
805.415649,595
805.534546,594
805.653442,600
805.772278,617
805.891113,600
806.01001,595
806.128906,597
806.247742,588
806.366577,623
806.485413,596
806.604309,586
806.723145,602
806.84198,608
806.960876,618
807.079712,590
807.198486,581
807.317383,605
807.436218,589
807.554993,603
807.673889,604
807.792725,607
807.91156,611
808.030396,627
808.14917,616
808.268005,597
808.386841,604
808.505676,597
808.624451,603
808.743286,636
808.862122,584
808.980896,611
809.099731,602
809.218506,596
809.337341,629
809.456116,601
809.57489,613
809.693726,589
809.8125,625
809.931274,585
810.050049,623
810.168884,629
810.287659,600
810.406372,612
810.525269,635
810.643982,611
810.762756,601
810.881531,636
811.000305,611
811.11908,641
811.237854,612
811.356567,617
811.475403,622
811.594116,600
811.71283,603
811.831604,649
811.950378,634
812.069153,650
812.187927,615
812.30658,615
812.425415,628
812.544128,618
812.662781,623
812.781616,619
812.900269,624
813.019043,626
813.137756,609
813.256531,626
813.375244,615
813.493896,594
813.612671,645
813.731384,645
813.850037,636
813.96875,605
814.087524,594
814.206238,628
814.324951,618
814.443604,605
814.562256,623
814.68103,631
814.799683,615
814.918335,621
815.037109,592
815.155762,613
815.274475,603
815.393188,608
815.511841,624
815.630554,576
815.749146,589
815.867859,600
815.986572,596
816.105164,596
816.223877,630
816.342529,612
816.461182,598
816.579895,582
816.698486,602
816.817139,609
816.935791,594
817.054504,627
817.173096,596
817.291748,597
817.4104,592
817.529053,582
817.647644,590
817.766235,587
817.884949,554
818.00354,580
818.122192,543
818.240845,560
818.359436,535
818.478088,563
818.59668,523
818.715271,518
818.833923,496
818.952515,531
819.071106,506
819.189758,516
819.30835,505
819.426941,499
819.545532,507
819.664124,501
819.782715,514
819.901306,495
820.019897,488
820.138489,504
820.25708,472
820.375671,498
820.494202,491
820.612732,492
820.731384,508
820.849915,493
820.968506,483
821.087097,480
821.205627,496
821.324158,487
821.442749,481
821.561279,499
821.679871,478
821.798401,502
821.916931,481
822.035461,473
822.154053,498
822.272583,482
822.391174,498
822.509583,495
822.628174,466
822.746704,494
822.865234,481
822.983765,468
823.102295,482
823.220825,465
823.339294,486
823.457825,476
823.576355,502
823.694824,476
823.813354,483
823.931885,482
824.050354,473
824.168884,475
824.287354,496
824.405823,472
824.524353,476
824.642822,490
824.761353,498
824.879822,479
824.998291,483
825.116699,483
825.235291,502
825.353699,474
825.472168,475
825.590637,488
825.709106,483
825.827576,447
825.946045,479
826.064453,480
826.182983,480
826.301392,477
826.4198,474
826.53833,449
826.656738,454
826.775208,496
826.893677,473
827.012024,468
827.130493,466
827.248962,469
827.36731,449
827.485779,464
827.604248,484
827.722595,453
827.841064,477
827.959412,472
828.077942,462
828.196289,451
828.314636,446
828.433105,467
828.551514,468
828.669861,462
828.78833,444
828.906677,465
829.025085,463
829.143433,468
829.261841,458
829.38031,460
829.498657,469
829.617004,461
829.735413,473
829.85376,457
829.972107,455
830.090515,461
830.208862,470
830.327209,458
830.445557,459
830.563904,483
830.682312,465
830.800659,462
830.919006,465
831.037354,466
831.155701,475
831.274048,470
831.392395,450
831.51062,470
831.629028,454
831.747314,467
831.865662,470
831.984009,462
832.102356,455
832.220642,463
832.338928,463
832.457275,463
832.575623,445
832.693909,483
832.812134,442
832.930481,474
833.048828,463
833.167114,451
833.2854,468
833.403687,458
833.521973,462
833.640259,465
833.758545,479
833.876831,473
833.995056,453
834.113281,477
834.231628,457
834.349915,474
834.468201,453
834.586426,467
834.704651,448
834.822998,465
834.941162,465
835.059448,462
835.177673,454
835.295959,465
835.414246,471
835.53241,463
835.650635,470
835.768921,475
835.887146,468
836.005371,474
836.123596,451
836.241821,465
836.360046,475
836.478271,486
836.596497,473
836.714722,481
836.832886,479
836.95105,479
837.069336,479
837.1875,474
837.305725,478
837.423889,474
837.542053,475
837.660339,449
837.778503,489
837.896667,481
838.014832,486
838.132996,457
838.25116,476
838.369385,473
838.487488,477
838.605713,476
838.723877,473
838.84198,492
838.960205,459
839.078308,466
839.196472,464
839.314636,480
839.4328,480
839.550964,471
839.669067,461
839.787231,476
839.905396,474
840.023499,472
840.141602,461
840.259766,450
840.377869,466
840.495972,484
840.614136,463
840.732239,465
840.850342,475
840.968445,488
841.086548,473
841.204651,484
841.322754,473
841.440918,461
841.55896,483
841.677002,474
841.795166,470
841.913208,468
842.031311,458
842.149353,468
842.267456,459
842.385498,467
842.503601,458
842.621643,456
842.739746,456
842.857788,459
842.97583,455
843.093933,466
843.211975,452
843.330017,467
843.44812,462
843.566101,471
843.684204,455
843.802246,470
843.920227,459
844.038269,468
844.156311,451
844.274292,468
844.392395,438
844.510376,472
844.628357,439
844.74646,459
844.864441,458
844.982422,462
845.100403,486
845.218384,448
845.336426,453
845.454468,455
845.572449,459
845.69043,462
845.808411,449
845.926453,453
846.044373,444
846.162354,478
846.280396,451
846.398315,455
846.516296,448
846.634216,471
846.752197,469
846.870178,460
846.988098,436
847.106079,441
847.22406,441
847.34198,461
847.4599,469
847.577881,449
847.695801,449
847.813782,476
847.931641,451
848.049561,450
848.167603,434
848.285461,463
848.403381,470
848.521362,450
848.639221,452
848.75708,463
848.875,457
848.99292,436
849.110901,468
849.22876,462
849.34668,464
849.464539,455
849.582458,463
849.700317,474
849.818176,451
849.936096,467
850.053955,455
850.171875,460
850.289673,465
850.407593,454
850.525452,459
850.643311,470
850.761169,455
850.878967,448
850.996887,459
851.114746,445
851.232544,464
851.350403,464
851.468262,457
851.58606,452
851.703979,452
851.821777,464
851.939636,453
852.057434,467
852.175232,455
852.293091,471
852.410889,459
852.528687,467
852.646545,441
852.764343,466
852.88208,472
852.999939,464
853.117676,435
853.235535,452
853.353271,461
853.471069,460
853.588928,464
853.706604,456
853.824402,465
853.9422,452
854.059998,459
854.177734,449
854.295532,474
854.413269,453
854.531006,470
854.648804,468
854.766541,455
854.884277,473
855.002014,455
855.119751,468
855.237549,455
855.355225,452
855.473022,455
855.590698,461
855.708435,469
855.826172,456
855.943848,451
856.061646,455
856.179321,460
856.296997,474
856.414795,453
856.53241,470
856.650085,448
856.767822,476
856.885559,475
857.003174,484
857.120911,451
857.238586,482
857.356201,466
857.473938,463
857.591614,444
857.709351,457
857.826965,450
857.944641,471
858.062317,465
858.179993,485
858.297668,458
858.415283,453
858.532959,477
858.650574,479
858.768188,450
858.885803,483
859.003479,465
859.121094,456
859.23877,483
859.356384,460
859.473999,461
859.591675,473
859.709229,460
859.826843,450
859.944458,464
860.062012,458
860.179626,459
860.297302,479
860.414856,470
860.532471,467
860.650024,458
860.767639,457
860.885193,451
861.002808,452
861.120361,472
861.237976,462
861.35553,451
861.473022,447
861.590698,437
861.708191,464
861.825745,467
861.943298,481
862.060852,473
862.178406,459
862.295959,454
862.413513,458
862.531006,472
862.64856,476
862.766113,466
862.883667,463
863.00116,459
863.118713,446
863.236206,448
863.353699,471
863.471252,473
863.588745,467
863.706177,463
863.82373,464
863.941162,489
864.058716,457
864.176208,454
864.29364,493
864.411194,476
864.528687,458
864.646118,446
864.763611,474
864.881042,468
864.998535,479
865.116028,477
865.233459,446
865.350891,446
865.468384,457
865.585754,462
865.703308,488
865.820679,464
865.938171,481
866.055542,460
866.173035,464
866.290466,480
866.407837,456
866.52533,470
866.6427,479
866.760071,462
866.877563,479
866.994934,460
867.112305,485
867.229736,469
867.347107,469
867.464539,465
867.58197,457
867.699341,454
867.81665,477
867.934082,467
868.051453,465
868.168823,469
868.286194,473
868.403564,480
868.520935,465
868.638306,467
868.755676,469
868.872986,462
868.990295,460
869.107727,498
869.225037,462
869.342346,466
869.459717,487
869.577026,466
869.694336,469
869.811707,468
869.929016,459
870.046326,464
870.163635,456
870.280945,464
870.398254,478
870.515564,479
870.632812,490
870.750183,469
870.867432,462
870.984741,451
871.102051,473
871.219299,483
871.336609,473
871.453918,438
871.571106,474
871.688416,455
871.805664,472
871.922852,484
872.040222,469
872.157471,459
872.274719,455
872.391968,468
872.509155,474
872.626465,465
872.743652,480
872.860962,477
872.978149,456
873.095337,493
873.212646,454
873.329834,453
873.44696,463
873.564209,458
873.681396,476
873.798645,452
873.915894,457
874.03302,463
874.150208,467
874.267456,465
874.384583,495
874.501831,473
874.618958,478
874.736145,475
874.853333,454
874.970459,465
875.087646,472
875.204834,474
875.32196,475
875.439148,469
875.556274,462
875.673401,483
875.790527,465
875.907715,466
876.024841,474
876.141968,467
876.259094,483
876.376282,467
876.493347,474
876.610474,463
876.7276,456
876.844727,451
876.961853,469
877.078918,456
877.195984,471
877.313171,460
877.430237,469
877.547302,472
877.664368,478
877.781433,489
877.898499,466
878.015625,470
878.13269,485
878.249695,466
878.366821,481
878.483887,473
878.600952,470
878.717957,469
878.834961,472
878.952087,467
879.069092,466
879.186157,474
879.303162,466
879.420227,452
879.537231,471
879.654236,456
879.77124,475
879.888306,468
880.005249,471
880.122314,471
880.239319,486
880.356323,473
880.473328,470
880.590271,471
880.707275,475
880.824341,473
880.941284,464
881.058228,458
881.175232,477
881.292236,469
881.40918,483
881.526123,476
881.643066,484
881.760071,455
881.877014,466
881.993958,482
882.11084,469
882.227783,482
882.344727,475
882.46167,463
882.578613,457
882.695618,477
882.812439,475
882.929382,473
883.046326,491
883.163208,474
883.280151,468
883.397034,460
883.513916,463
883.630798,469
883.747742,483
883.864563,461
883.981506,468
884.098389,475
884.21521,477
884.332153,483
884.448975,486
884.565796,484
884.682678,467
884.7995,482
884.916443,479
885.033264,470
885.150085,479
885.266968,463
885.383789,476
885.500671,476
885.617493,464
885.734314,483
885.851196,475
885.967896,499
886.084717,477
886.201599,483
886.318359,485
886.435181,467
886.552002,458
886.668762,480
886.785645,476
886.902344,472
887.019165,446
887.135925,465
887.252747,468
887.369446,483
887.486267,496
887.603027,489
887.719788,471
887.836548,473
887.953247,470
888.070068,470
888.186829,473
888.303528,474
888.420288,490
888.536987,477
888.653687,469
888.770447,471
888.887146,474
889.003967,478
889.120667,475
889.237305,472
889.354065,461
889.470703,502
889.587463,473
889.704163,486
889.820862,487
889.937561,488
890.054199,480
890.170837,489
890.287598,482
890.404236,490
890.520874,473
890.637634,475
890.754211,473
890.87085,475
890.987549,462
891.104187,479
891.220886,480
891.337463,474
891.454102,505
891.57074,482
891.687378,490
891.804077,483
891.920654,496
892.037231,473
892.15387,478
892.270447,471
892.387085,486
892.503723,473
892.6203,482
892.736877,489
892.853516,493
892.970032,491
893.08667,493
893.203186,470
893.319763,465
893.43634,482
893.552917,489
893.669556,482
893.786011,489
893.902588,467
894.019165,478
894.135681,480
894.252197,466
894.368835,486
894.485291,489
894.601868,473
894.718384,466
894.8349,495
894.951355,506
895.067932,459
895.184448,473
895.300964,475
895.417419,480
895.533936,489
895.650452,480
895.766907,479
895.883423,494
895.999878,484
896.116333,478
896.232849,499
896.349304,502
896.465759,476
896.582214,485
896.698669,474
896.815125,502
896.931641,496
897.048035,485
897.164551,498
897.280884,478
897.397339,489
897.513794,488
897.630249,476
897.746582,497
897.863098,466
897.979431,487
898.095886,492
898.212341,488
898.328674,475
898.445129,480
898.561462,474
898.677795,489
898.794312,510
898.910645,479
899.026978,483
899.143433,478
899.259766,465
899.37616,504
899.492493,475
899.608765,496
899.725159,475
899.841553,494
899.957947,504
900.07428,502
900.190552,495
900.306946,494
900.423157,481
900.53949,493
900.655884,474
900.772156,492
900.888489,471
901.004822,489
901.121033,484
901.237366,492
901.353699,484
901.46991,497
901.586304,496
901.702515,484
901.818787,469
901.93512,492
902.051331,493
902.167603,496
902.283875,471
902.400085,485
902.516418,495
902.632629,472
902.74884,493
902.865112,487
902.981384,471
903.097595,508
903.213867,479
903.330017,480
903.446289,482
903.5625,473
903.67865,480
903.794922,507
903.911072,491
904.027344,492
904.143494,484
904.259705,489
904.375916,482
904.492065,488
904.608215,502
904.724426,504
904.840576,482
904.956726,492
905.072876,468
905.189087,498
905.305176,501
905.421387,498
905.537537,500
905.653687,487
905.769775,479
905.885925,468
906.002014,491
906.118164,498
906.234314,500
906.350403,471
906.466492,479
906.582642,502
906.69873,506
906.814758,510
906.930908,474
907.046936,476
907.163086,488
907.279175,525
907.395264,499
907.511353,473
907.62738,483
907.743408,500
907.859497,484
907.975525,503
908.091553,496
908.207703,490
908.32373,511
908.439758,480
908.555786,476
908.671814,525
908.787842,476
908.90387,500
909.019775,495
909.135864,482
909.251892,504
909.367859,503
909.483826,489
909.599854,487
909.715881,485
909.831848,478
909.947815,479
910.063782,491
910.179749,498
910.295776,492
910.411743,487
910.527649,513
910.643616,484
910.759583,506
910.875488,493
910.991455,480
911.107361,486
911.223267,486
911.339294,485
911.4552,498
911.571106,492
911.687073,496
911.802979,485
911.918823,508
912.034729,503
912.150635,496
912.266602,497
912.382446,491
912.498352,491
912.614197,486
912.730103,492
912.846008,480
