792.44574,600
792.56488,637
792.68396,685
792.80304,658
792.92218,595
793.041199,614
793.160339,591
793.279419,617
793.398499,586
793.517578,564
793.636658,593
793.755737,620
793.874817,603
793.993896,603
794.112976,609
794.232056,600
794.351074,579
794.470215,588
794.589233,604
794.708313,584
794.827393,595
794.946411,582
795.065552,590
795.18457,600
795.303589,603
795.422668,587
795.541687,572
795.660767,596
795.779846,586
795.898865,576
796.017883,578
796.136963,577
796.255981,568
796.375061,576
796.49408,578
796.613037,584
796.732117,589
796.851135,560
796.970154,586
797.089233,582
797.208191,569
797.327271,578
797.446228,583
797.565186,562
797.684265,565
797.803223,548
797.922241,564
798.04126,583
798.160278,583
798.279297,561
798.398315,590
798.517273,569
798.636292,582
798.75531,588
798.874268,575
798.993286,562
799.112244,565
799.231323,563
799.350281,561
799.469238,571
799.588257,576
799.707153,540
799.826111,583
799.945129,548
800.064087,568
800.183044,584
800.302063,589
800.421021,572
800.539978,566
800.658936,563
800.777893,578
800.896912,555
801.015747,574
801.134705,574
801.253723,590
801.37262,568
801.491638,574
801.610535,574
801.729492,577
801.84845,571
801.967407,591
802.086243,573
802.205261,603
802.324158,575
802.443115,596
802.562073,583
802.680969,594
802.799927,599
802.918762,575
803.037659,579
803.156677,585
803.275574,577
803.39447,592
803.513428,597
803.632263,604
803.751221,592
803.870117,616
803.989014,563
804.107971,562
804.226746,588
804.345642,588
804.4646,586
804.583496,608
804.702393,595
804.821228,607
804.940125,602
805.059021,574
805.177917,576
805.296814,611
805.415649,583
805.534546,603
805.653442,579
805.772278,599
805.891113,578
806.01001,599
806.128906,606
806.247742,608
806.366577,600
806.485413,604
806.604309,597
806.723145,608
806.84198,613
806.960876,597
807.079712,616
807.198486,602
807.317383,596
807.436218,575
807.554993,599
807.673889,593
807.792725,619
807.91156,588
808.030396,610
808.14917,624
808.268005,618
808.386841,627
808.505676,600
808.624451,602
808.743286,624
808.862122,609
808.980896,614
809.099731,605
809.218506,611
809.337341,628
809.456116,623
809.57489,628
809.693726,587
809.8125,632
809.931274,611
810.050049,613
810.168884,614
810.287659,644
810.406372,613
810.525269,619
810.643982,610
810.762756,618
810.881531,634
811.000305,629
811.11908,619
811.237854,607
811.356567,624
811.475403,620
811.594116,616
811.71283,637
811.831604,608
811.950378,629
812.069153,614
812.187927,615
812.30658,623
812.425415,623
812.544128,618
812.662781,607
812.781616,631
812.900269,622
813.019043,614
813.137756,613
813.256531,615
813.375244,624
813.493896,632
813.612671,612
813.731384,614
813.850037,626
813.96875,635
814.087524,619
814.206238,615
814.324951,630
814.443604,619
814.562256,611
814.68103,610
814.799683,619
814.918335,610
815.037109,602
815.155762,599
815.274475,586
815.393188,610
815.511841,607
815.630554,591
815.749146,620
815.867859,612
815.986572,591
816.105164,581
816.223877,603
816.342529,596
816.461182,637
816.579895,626
816.698486,603
816.817139,617
816.935791,626
817.054504,614
817.173096,611
817.291748,578
817.4104,609
817.529053,579
817.647644,569
817.766235,575
817.884949,574
818.00354,544
818.122192,566
818.240845,562
818.359436,548
818.478088,535
818.59668,545
818.715271,543
818.833923,521
818.952515,528
819.071106,510
819.189758,527
819.30835,509
819.426941,529
819.545532,499
819.664124,489
819.782715,514
819.901306,487
820.019897,503
820.138489,500
820.25708,491
820.375671,494
820.494202,490
820.612732,494
820.731384,515
820.849915,511
820.968506,496
821.087097,477
821.205627,507
821.324158,487
821.442749,486
821.561279,495
821.679871,481
821.798401,491
821.916931,488
822.035461,487
822.154053,465
822.272583,483
822.391174,487
822.509583,486
822.628174,490
822.746704,494
822.865234,475
822.983765,488
823.102295,490
823.220825,472
823.339294,470
823.457825,480
823.576355,491
823.694824,488
823.813354,509
823.931885,468
824.050354,480
824.168884,487
824.287354,495
824.405823,503
824.524353,505
824.642822,511
824.761353,500
824.879822,486
824.998291,493
825.116699,487
825.235291,488
825.353699,493
825.472168,479
825.590637,484
825.709106,473
825.827576,481
825.946045,486
826.064453,481
826.182983,484
826.301392,488
826.4198,474
826.53833,478
826.656738,494
826.775208,475
826.893677,481
827.012024,461
827.130493,479
827.248962,460
827.36731,456
827.485779,466
827.604248,482
827.722595,457
827.841064,448
827.959412,472
828.077942,464
828.196289,457
828.314636,449
828.433105,456
828.551514,458
828.669861,478
828.78833,460
828.906677,472
829.025085,453
829.143433,459
829.261841,476
829.38031,463
829.498657,484
829.617004,452
829.735413,478
829.85376,469
829.972107,487
830.090515,464
830.208862,475
830.327209,459
830.445557,473
830.563904,444
830.682312,460
830.800659,460
830.919006,458
831.037354,468
831.155701,459
831.274048,479
831.392395,462
831.51062,456
831.629028,471
831.747314,462
831.865662,458
831.984009,459
832.102356,460
832.220642,475
832.338928,453
832.457275,478
832.575623,469
832.693909,464
832.812134,485
832.930481,459
833.048828,471
833.167114,469
833.2854,445
833.403687,466
833.521973,459
833.640259,473
833.758545,454
833.876831,452
833.995056,461
834.113281,456
834.231628,460
834.349915,454
834.468201,459
834.586426,460
834.704651,470
834.822998,472
834.941162,455
835.059448,452
835.177673,457
835.295959,449
835.414246,499
835.53241,462
835.650635,451
835.768921,471
835.887146,475
836.005371,446
836.123596,472
836.241821,444
836.360046,482
836.478271,479
836.596497,490
836.714722,476
836.832886,469
836.95105,475
837.069336,475
837.1875,464
837.305725,506
837.423889,467
837.542053,483
837.660339,478
837.778503,484
837.896667,493
838.014832,486
838.132996,479
838.25116,464
838.369385,462
838.487488,491
838.605713,487
838.723877,478
838.84198,464
838.960205,497
839.078308,472
839.196472,479
839.314636,482
839.4328,468
839.550964,460
839.669067,488
839.787231,475
839.905396,466
840.023499,481
840.141602,476
840.259766,481
840.377869,470
840.495972,462
840.614136,490
840.732239,481
840.850342,474
840.968445,475
841.086548,461
841.204651,458
841.322754,478
841.440918,449
841.55896,463
841.677002,473
841.795166,479
841.913208,475
842.031311,461
842.149353,470
842.267456,460
842.385498,468
842.503601,460
842.621643,445
842.739746,466
842.857788,450
842.97583,461
843.093933,460
843.211975,473
843.330017,464
843.44812,465
843.566101,439
843.684204,457
843.802246,451
843.920227,446
844.038269,451
844.156311,470
844.274292,444
844.392395,458
844.510376,451
844.628357,460
844.74646,442
844.864441,470
844.982422,451
845.100403,459
845.218384,438
845.336426,462
845.454468,462
845.572449,450
845.69043,452
845.808411,466
845.926453,460
846.044373,457
846.162354,456
846.280396,452
846.398315,465
846.516296,456
846.634216,455
846.752197,460
846.870178,438
846.988098,453
847.106079,466
847.22406,460
847.34198,471
847.4599,458
847.577881,465
847.695801,465
847.813782,451
847.931641,471
848.049561,476
848.167603,472
848.285461,454
848.403381,481
848.521362,435
848.639221,454
848.75708,454
848.875,468
848.99292,465
849.110901,466
849.22876,474
849.34668,472
849.464539,464
849.582458,457
849.700317,457
849.818176,462
849.936096,454
850.053955,461
850.171875,466
850.289673,460
850.407593,462
850.525452,471
850.643311,445
850.761169,466
850.878967,447
850.996887,462
851.114746,455
851.232544,476
851.350403,438
851.468262,445
851.58606,458
851.703979,452
851.821777,484
851.939636,468
852.057434,447
852.175232,453
852.293091,471
852.410889,471
852.528687,464
852.646545,457
852.764343,448
852.88208,468
852.999939,443
853.117676,456
853.235535,461
853.353271,466
853.471069,466
853.588928,465
853.706604,455
853.824402,479
853.9422,462
854.059998,464
854.177734,465
854.295532,471
854.413269,476
854.531006,449
854.648804,457
854.766541,453
854.884277,459
855.002014,456
855.119751,464
855.237549,478
855.355225,477
855.473022,464
855.590698,471
855.708435,469
855.826172,459
855.943848,487
856.061646,469
856.179321,458
856.296997,463
856.414795,478
856.53241,470
856.650085,463
856.767822,464
856.885559,470
857.003174,459
857.120911,475
857.238586,483
857.356201,469
857.473938,458
857.591614,470
857.709351,454
857.826965,467
857.944641,455
858.062317,459
858.179993,456
858.297668,477
858.415283,482
858.532959,470
858.650574,468
858.768188,457
858.885803,462
859.003479,470
859.121094,446
859.23877,452
859.356384,465
859.473999,479
859.591675,448
859.709229,465
859.826843,461
859.944458,455
860.062012,462
860.179626,473
860.297302,455
860.414856,456
860.532471,454
860.650024,476
860.767639,463
860.885193,462
861.002808,472
861.120361,476
861.237976,445
861.35553,469
861.473022,456
861.590698,456
861.708191,451
861.825745,476
861.943298,484
862.060852,465
862.178406,447
862.295959,453
862.413513,452
862.531006,465
862.64856,461
862.766113,466
862.883667,456
863.00116,457
863.118713,483
863.236206,494
863.353699,457
863.471252,459
863.588745,444
863.706177,463
863.82373,474
863.941162,455
864.058716,464
864.176208,464
864.29364,464
864.411194,481
864.528687,460
864.646118,475
864.763611,442
864.881042,463
864.998535,464
865.116028,453
865.233459,463
865.350891,461
865.468384,481
865.585754,491
865.703308,456
865.820679,458
865.938171,470
866.055542,474
866.173035,469
866.290466,455
866.407837,462
866.52533,482
866.6427,473
866.760071,443
866.877563,458
866.994934,473
867.112305,483
867.229736,470
867.347107,491
867.464539,483
867.58197,471
867.699341,474
867.81665,481
867.934082,461
868.051453,475
868.168823,452
868.286194,449
868.403564,493
868.520935,471
868.638306,463
868.755676,457
868.872986,465
868.990295,461
869.107727,459
869.225037,468
869.342346,467
869.459717,451
869.577026,476
869.694336,478
869.811707,476
869.929016,491
870.046326,476
870.163635,463
870.280945,454
870.398254,475
870.515564,478
870.632812,459
870.750183,468
870.867432,473
870.984741,449
871.102051,466
871.219299,492
871.336609,470
871.453918,467
871.571106,440
871.688416,457
871.805664,471
871.922852,486
872.040222,468
872.157471,454
872.274719,467
872.391968,462
872.509155,473
872.626465,460
872.743652,460
872.860962,480
872.978149,469
873.095337,473
873.212646,454
873.329834,474
873.44696,459
873.564209,455
873.681396,472
873.798645,471
873.915894,462
874.03302,475
874.150208,457
874.267456,472
874.384583,463
874.501831,467
874.618958,464
874.736145,455
874.853333,481
874.970459,468
875.087646,474
875.204834,480
875.32196,463
875.439148,473
875.556274,464
875.673401,472
875.790527,450
875.907715,459
876.024841,466
876.141968,475
876.259094,460
876.376282,459
876.493347,463
876.610474,478
876.7276,476
876.844727,448
876.961853,467
877.078918,455
877.195984,455
877.313171,487
877.430237,465
877.547302,501
877.664368,474
877.781433,470
877.898499,466
878.015625,460
878.13269,442
878.249695,473
878.366821,472
878.483887,467
878.600952,463
878.717957,483
878.834961,459
878.952087,458
879.069092,469
879.186157,489
879.303162,472
879.420227,448
879.537231,463
879.654236,459
879.77124,464
879.888306,465
880.005249,454
880.122314,475
880.239319,470
880.356323,472
880.473328,469
880.590271,474
880.707275,474
880.824341,467
880.941284,470
881.058228,486
881.175232,475
881.292236,484
881.40918,459
881.526123,464
881.643066,478
881.760071,482
881.877014,478
881.993958,481
882.11084,488
882.227783,463
882.344727,459
882.46167,481
882.578613,452
882.695618,484
882.812439,475
882.929382,483
883.046326,470
883.163208,490
883.280151,459
883.397034,461
883.513916,456
883.630798,478
883.747742,454
883.864563,486
883.981506,471
884.098389,466
884.21521,453
884.332153,485
884.448975,455
884.565796,486
884.682678,487
884.7995,453
884.916443,475
885.033264,487
885.150085,481
885.266968,477
885.383789,473
885.500671,481
885.617493,476
885.734314,472
885.851196,483
885.967896,488
886.084717,475
886.201599,467
886.318359,490
886.435181,488
886.552002,474
886.668762,464
886.785645,464
886.902344,479
887.019165,491
887.135925,481
887.252747,476
887.369446,470
887.486267,482
887.603027,477
887.719788,476
887.836548,485
887.953247,466
888.070068,468
888.186829,475
888.303528,491
888.420288,489
888.536987,500
888.653687,482
888.770447,478
888.887146,477
889.003967,491
889.120667,477
889.237305,469
889.354065,469
889.470703,483
889.587463,458
889.704163,489
889.820862,500
889.937561,488
890.054199,483
890.170837,481
890.287598,473
890.404236,470
890.520874,485
890.637634,470
890.754211,474
890.87085,496
890.987549,475
891.104187,471
891.220886,499
891.337463,470
891.454102,464
891.57074,501
891.687378,474
891.804077,464
891.920654,470
892.037231,473
892.15387,473
892.270447,477
892.387085,467
892.503723,481
892.6203,464
892.736877,478
892.853516,471
892.970032,490
893.08667,470
893.203186,471
893.319763,494
893.43634,457
893.552917,478
893.669556,490
893.786011,490
893.902588,455
894.019165,476
894.135681,498
894.252197,479
894.368835,486
894.485291,500
894.601868,481
894.718384,484
894.8349,476
894.951355,484
895.067932,480
895.184448,461
895.300964,471
895.417419,477
895.533936,478
895.650452,466
895.766907,482
895.883423,478
895.999878,477
896.116333,489
896.232849,491
896.349304,497
896.465759,482
896.582214,471
896.698669,498
896.815125,482
896.931641,496
897.048035,471
897.164551,497
897.280884,495
897.397339,498
897.513794,480
897.630249,501
897.746582,477
897.863098,491
897.979431,493
898.095886,495
898.212341,465
898.328674,469
898.445129,479
898.561462,488
898.677795,477
898.794312,484
898.910645,484
899.026978,480
899.143433,482
899.259766,484
899.37616,502
899.492493,497
899.608765,479
899.725159,486
899.841553,463
899.957947,488
900.07428,478
900.190552,479
900.306946,473
900.423157,504
900.53949,495
900.655884,481
900.772156,493
900.888489,471
901.004822,508
901.121033,491
901.237366,471
901.353699,486
901.46991,483
901.586304,463
901.702515,454
901.818787,487
901.93512,482
902.051331,471
902.167603,474
902.283875,505
902.400085,501
902.516418,485
902.632629,488
902.74884,488
902.865112,482
902.981384,500
903.097595,495
903.213867,482
903.330017,499
903.446289,491
903.5625,493
903.67865,494
903.794922,482
903.911072,496
904.027344,489
904.143494,490
904.259705,474
904.375916,498
904.492065,491
904.608215,512
904.724426,486
904.840576,476
904.956726,470
905.072876,475
905.189087,482
905.305176,494
905.421387,485
905.537537,510
905.653687,466
905.769775,483
905.885925,507
906.002014,482
906.118164,501
906.234314,488
906.350403,492
906.466492,471
906.582642,460
906.69873,505
906.814758,497
906.930908,489
907.046936,506
907.163086,481
907.279175,510
907.395264,497
907.511353,480
907.62738,500
907.743408,489
907.859497,512
907.975525,476
908.091553,505
908.207703,497
908.32373,493
908.439758,489
908.555786,499
908.671814,504
908.787842,472
908.90387,505
909.019775,480
909.135864,482
909.251892,509
909.367859,498
909.483826,457
909.599854,463
909.715881,481
909.831848,490
909.947815,494
910.063782,479
910.179749,497
910.295776,496
910.411743,504
910.527649,482
910.643616,502
910.759583,488
910.875488,479
910.991455,490
911.107361,504
911.223267,473
911.339294,490
911.4552,486
911.571106,475
911.687073,481
911.802979,495
911.918823,481
912.034729,489
912.150635,481
912.266602,493
912.382446,484
912.498352,504
912.614197,503
912.730103,478
912.846008,490
792.44574,630
792.56488,635
792.68396,688
792.80304,654
792.92218,611
793.041199,625
793.160339,603
793.279419,596
793.398499,607
793.517578,615
793.636658,580
793.755737,625
793.874817,586
793.993896,612
794.112976,587
794.232056,610
794.351074,608
794.470215,604
794.589233,608
794.708313,586
794.827393,575
794.946411,598
795.065552,600
795.18457,595
795.303589,593
795.422668,576
795.541687,601
795.660767,604
795.779846,582
795.898865,588
796.017883,573
796.136963,577
796.255981,581
796.375061,589
796.49408,590
796.613037,582
796.732117,567
796.851135,590
796.970154,585
797.089233,577
797.208191,574
797.327271,561
797.446228,562
797.565186,585
797.684265,583
797.803223,568
797.922241,555
798.04126,594
798.160278,575
798.279297,565
798.398315,562
798.517273,565
798.636292,581
798.75531,582
798.874268,572
798.993286,565
799.112244,571
799.231323,579
799.350281,599
799.469238,577
799.588257,577
799.707153,571
799.826111,588
799.945129,567
800.064087,558
800.183044,567
800.302063,564
800.421021,599
800.539978,577
800.658936,586
800.777893,573
800.896912,567
801.015747,577
801.134705,573
801.253723,615
801.37262,578
801.491638,575
801.610535,577
801.729492,608
801.84845,548
801.967407,583
802.086243,600
802.205261,575
802.324158,588
802.443115,567
802.562073,585
802.680969,580
802.799927,592
802.918762,581
803.037659,585
803.156677,573
803.275574,590
803.39447,589
803.513428,602
803.632263,584
803.751221,569
803.870117,596
803.989014,585
804.107971,597
804.226746,583
804.345642,597
804.4646,592
804.583496,590
804.702393,578
804.821228,573
804.940125,586
805.059021,588
805.177917,578
805.296814,609
805.415649,593
805.534546,589
805.653442,618
805.772278,589
805.891113,614
806.01001,603
806.128906,617
806.247742,595
806.366577,590
806.485413,619
806.604309,612
806.723145,612
806.84198,589
806.960876,591
807.079712,590
807.198486,595
807.317383,624
807.436218,607
807.554993,624
807.673889,616
807.792725,620
807.91156,609
808.030396,605
808.14917,599
808.268005,600
808.386841,613
808.505676,587
808.624451,625
808.743286,598
808.862122,613
808.980896,594
809.099731,609
809.218506,639
809.337341,615
809.456116,630
809.57489,624
809.693726,633
809.8125,613
809.931274,611
810.050049,650
810.168884,627
810.287659,635
810.406372,617
810.525269,615
810.643982,610
810.762756,620
810.881531,630
811.000305,631
811.11908,622
811.237854,632
811.356567,614
811.475403,618
811.594116,636
811.71283,613
811.831604,618
811.950378,598
812.069153,612
812.187927,615
812.30658,620
812.425415,634
812.544128,618
812.662781,606
812.781616,621
812.900269,628
813.019043,598
813.137756,625
813.256531,599
813.375244,630
813.493896,609
813.612671,619
813.731384,626
813.850037,616
813.96875,612
814.087524,629
814.206238,624
814.324951,617
814.443604,619
814.562256,619
814.68103,628
814.799683,617
814.918335,621
815.037109,635
815.155762,620
815.274475,625
815.393188,600
815.511841,579
815.630554,633
815.749146,593
815.867859,620
815.986572,610
816.105164,602
816.223877,599
816.342529,600
816.461182,616
816.579895,615
816.698486,616
816.817139,611
816.935791,614
817.054504,614
817.173096,621
817.291748,608
817.4104,602
817.529053,589
817.647644,587
817.766235,583
817.884949,577
818.00354,583
818.122192,563
818.240845,548
818.359436,559
818.478088,569
818.59668,535
818.715271,521
818.833923,545
818.952515,524
819.071106,536
819.189758,525
819.30835,499
819.426941,518
819.545532,511
819.664124,499
819.782715,512
819.901306,510
820.019897,510
820.138489,508
820.25708,502
820.375671,510
820.494202,499
820.612732,493
820.731384,489
820.849915,499
820.968506,490
821.087097,535
821.205627,493
821.324158,497
821.442749,503
821.561279,495
821.679871,485
821.798401,496
821.916931,455
822.035461,488
822.154053,461
822.272583,479
822.391174,474
822.509583,487
822.628174,509
822.746704,496
822.865234,484
822.983765,483
823.102295,477
823.220825,508
823.339294,488
823.457825,483
823.576355,487
823.694824,482
823.813354,494
823.931885,504
824.050354,501
824.168884,468
824.287354,492
824.405823,506
824.524353,482
824.642822,499
824.761353,485
824.879822,498
824.998291,483
825.116699,483
825.235291,489
825.353699,490
825.472168,480
825.590637,510
825.709106,477
825.827576,487
825.946045,461
826.064453,480
826.182983,474
826.301392,463
826.4198,497
826.53833,480
826.656738,472
826.775208,478
826.893677,464
827.012024,464
827.130493,471
827.248962,475
827.36731,487
827.485779,472
827.604248,455
827.722595,468
827.841064,462
827.959412,480
828.077942,472
828.196289,475
828.314636,465
828.433105,467
828.551514,447
828.669861,457
828.78833,488
828.906677,480
829.025085,469
829.143433,471
829.261841,471
829.38031,462
829.498657,438
829.617004,472
829.735413,474
829.85376,469
829.972107,471
830.090515,472
830.208862,463
830.327209,473
830.445557,450
830.563904,471
830.682312,451
830.800659,462
830.919006,463
831.037354,467
831.155701,475
831.274048,478
831.392395,443
831.51062,470
831.629028,474
831.747314,459
831.865662,474
831.984009,465
832.102356,451
832.220642,470
832.338928,475
832.457275,461
832.575623,467
832.693909,472
832.812134,479
832.930481,456
833.048828,455
833.167114,459
833.2854,461
833.403687,486
833.521973,454
833.640259,463
833.758545,487
833.876831,472
833.995056,470
834.113281,452
834.231628,471
834.349915,464
834.468201,471
834.586426,460
834.704651,491
834.822998,462
834.941162,448
835.059448,460
835.177673,456
835.295959,467
835.414246,466
835.53241,479
835.650635,450
835.768921,470
835.887146,473
836.005371,464
836.123596,468
836.241821,484
836.360046,472
836.478271,462
836.596497,465
836.714722,469
836.832886,480
836.95105,487
837.069336,484
837.1875,490
837.305725,477
837.423889,478
837.542053,476
837.660339,465
837.778503,460
837.896667,498
838.014832,482
838.132996,459
838.25116,507
838.369385,481
838.487488,482
838.605713,498
838.723877,488
838.84198,475
838.960205,483
839.078308,483
839.196472,489
839.314636,488
839.4328,495
839.550964,474
839.669067,478
839.787231,477
839.905396,453
840.023499,476
840.141602,446
840.259766,467
840.377869,486
840.495972,477
840.614136,482
840.732239,468
840.850342,477
840.968445,459
841.086548,456
841.204651,445
841.322754,480
841.440918,481
841.55896,463
841.677002,469
841.795166,476
841.913208,463
842.031311,481
842.149353,472
842.267456,470
842.385498,474
842.503601,473
842.621643,460
842.739746,450
842.857788,462
842.97583,483
843.093933,455
843.211975,476
843.330017,464
843.44812,436
843.566101,474
843.684204,459
843.802246,469
843.920227,467
844.038269,443
844.156311,450
844.274292,462
844.392395,465
844.510376,464
844.628357,448
844.74646,464
844.864441,451
844.982422,468
845.100403,448
845.218384,478
845.336426,454
845.454468,472
845.572449,473
845.69043,497
845.808411,447
845.926453,447
846.044373,463
846.162354,460
846.280396,450
846.398315,446
846.516296,459
846.634216,471
846.752197,464
846.870178,451
846.988098,474
847.106079,459
847.22406,436
847.34198,473
847.4599,459
847.577881,460
847.695801,444
847.813782,454
847.931641,469
848.049561,470
848.167603,465
848.285461,459
848.403381,458
848.521362,469
848.639221,450
848.75708,475
848.875,462
848.99292,456
849.110901,455
849.22876,447
849.34668,456
849.464539,449
849.582458,454
849.700317,452
849.818176,462
849.936096,451
850.053955,456
850.171875,457
850.289673,458
850.407593,469
850.525452,470
850.643311,465
850.761169,466
850.878967,474
850.996887,459
851.114746,453
851.232544,479
851.350403,468
851.468262,455
851.58606,459
851.703979,466
851.821777,455
851.939636,460
852.057434,464
852.175232,458
852.293091,445
852.410889,456
852.528687,447
852.646545,436
852.764343,462
852.88208,444
852.999939,467
853.117676,452
853.235535,468
853.353271,455
853.471069,470
853.588928,442
853.706604,475
853.824402,489
853.9422,460
854.059998,453
854.177734,474
854.295532,473
854.413269,458
854.531006,458
854.648804,465
854.766541,470
854.884277,461
855.002014,458
855.119751,459
855.237549,464
855.355225,478
855.473022,448
855.590698,453
855.708435,485
855.826172,441
855.943848,485
856.061646,479
856.179321,479
856.296997,477
856.414795,463
856.53241,468
856.650085,464
856.767822,488
856.885559,472
857.003174,482
857.120911,484
857.238586,471
857.356201,476
857.473938,465
857.591614,469
857.709351,481
857.826965,485
857.944641,464
858.062317,484
858.179993,470
858.297668,488
858.415283,455
858.532959,479
858.650574,470
858.768188,464
858.885803,452
859.003479,465
859.121094,476
859.23877,464
859.356384,467
859.473999,465
859.591675,480
859.709229,470
859.826843,466
859.944458,462
860.062012,486
860.179626,490
860.297302,491
860.414856,469
860.532471,466
860.650024,466
860.767639,472
860.885193,478
861.002808,456
861.120361,457
861.237976,472
861.35553,470
861.473022,467
861.590698,485
861.708191,457
861.825745,457
861.943298,464
862.060852,468
862.178406,458
862.295959,451
862.413513,451
862.531006,451
862.64856,473
862.766113,469
862.883667,457
863.00116,445
863.118713,456
863.236206,459
863.353699,466
863.471252,457
863.588745,469
863.706177,476
863.82373,469
863.941162,473
864.058716,474
864.176208,467
864.29364,441
864.411194,475
864.528687,457
864.646118,483
864.763611,471
864.881042,460
864.998535,484
865.116028,465
865.233459,471
865.350891,478
865.468384,476
865.585754,477
865.703308,476
865.820679,467
865.938171,463
866.055542,474
866.173035,462
866.290466,463
866.407837,463
866.52533,472
866.6427,487
866.760071,468
866.877563,474
866.994934,465
867.112305,468
867.229736,443
867.347107,469
867.464539,481
867.58197,452
867.699341,461
867.81665,466
867.934082,477
868.051453,476
868.168823,456
868.286194,466
868.403564,469
868.520935,474
868.638306,473
868.755676,470
868.872986,480
868.990295,463
869.107727,479
869.225037,463
869.342346,470
869.459717,483
869.577026,471
869.694336,483
869.811707,478
869.929016,476
870.046326,466
870.163635,461
870.280945,476
870.398254,461
870.515564,458
870.632812,483
870.750183,461
870.867432,470
870.984741,456
871.102051,472
871.219299,469
871.336609,468
871.453918,473
871.571106,495
871.688416,462
871.805664,473
871.922852,475
872.040222,480
872.157471,467
872.274719,475
872.391968,473
872.509155,458
872.626465,462
872.743652,468
872.860962,447
872.978149,470
873.095337,468
873.212646,472
873.329834,458
873.44696,476
873.564209,487
873.681396,490
873.798645,459
873.915894,472
874.03302,462
874.150208,480
874.267456,476
874.384583,472
874.501831,488
874.618958,462
874.736145,483
874.853333,451
874.970459,471
875.087646,478
875.204834,467
875.32196,486
875.439148,463
875.556274,486
875.673401,468
875.790527,474
875.907715,478
876.024841,471
876.141968,477
876.259094,468
876.376282,459
876.493347,483
876.610474,484
876.7276,477
876.844727,461
876.961853,480
877.078918,461
877.195984,490
877.313171,473
877.430237,461
877.547302,475
877.664368,490
877.781433,455
877.898499,473
878.015625,465
878.13269,498
878.249695,485
878.366821,472
878.483887,472
878.600952,485
878.717957,460
878.834961,476
878.952087,468
879.069092,476
879.186157,465
879.303162,481
879.420227,467
879.537231,477
879.654236,461
879.77124,490
879.888306,475
880.005249,485
880.122314,454
880.239319,484
880.356323,479
880.473328,460
880.590271,460
880.707275,462
880.824341,489
880.941284,476
881.058228,478
881.175232,493
881.292236,485
881.40918,468
881.526123,476
881.643066,476
881.760071,476
881.877014,477
881.993958,466
882.11084,476
882.227783,470
882.344727,488
882.46167,458
882.578613,492
882.695618,479
882.812439,455
882.929382,476
883.046326,490
883.163208,481
883.280151,472
883.397034,449
883.513916,490
883.630798,474
883.747742,458
883.864563,466
883.981506,473
884.098389,454
884.21521,483
884.332153,469
884.448975,471
884.565796,471
884.682678,477
884.7995,472
884.916443,458
885.033264,470
885.150085,482
885.266968,488
885.383789,513
885.500671,485
885.617493,482
885.734314,474
885.851196,496
885.967896,472
886.084717,486
886.201599,476
886.318359,489
886.435181,479
886.552002,477
886.668762,493
886.785645,496
886.902344,471
887.019165,484
887.135925,469
887.252747,480
887.369446,487
887.486267,482
887.603027,502
887.719788,483
887.836548,469
887.953247,478
888.070068,478
888.186829,481
888.303528,479
888.420288,496
888.536987,476
888.653687,489
888.770447,479
888.887146,479
889.003967,470
889.120667,472
889.237305,485
889.354065,472
889.470703,478
889.587463,487
889.704163,480
889.820862,497
889.937561,489
890.054199,479
890.170837,471
890.287598,496
890.404236,484
890.520874,480
890.637634,490
890.754211,484
890.87085,468
890.987549,474
891.104187,474
891.220886,479
891.337463,478
891.454102,488
891.57074,491
891.687378,491
891.804077,486
891.920654,488
892.037231,468
892.15387,482
892.270447,484
892.387085,489
892.503723,471
892.6203,476
892.736877,495
892.853516,469
892.970032,467
893.08667,487
893.203186,489
893.319763,481
893.43634,480
893.552917,479
893.669556,499
893.786011,487
893.902588,500
894.019165,477
894.135681,492
894.252197,485
894.368835,486
894.485291,490
894.601868,479
894.718384,494
894.8349,487
894.951355,468
895.067932,474
895.184448,473
895.300964,488
895.417419,502
895.533936,492
895.650452,491
895.766907,489
895.883423,486
895.999878,486
896.116333,489
896.232849,487
896.349304,495
896.465759,493
896.582214,497
896.698669,483
896.815125,462
896.931641,499
897.048035,495
897.164551,468
897.280884,510
897.397339,481
897.513794,499
897.630249,479
897.746582,489
897.863098,472
897.979431,486
898.095886,472
898.212341,500
898.328674,494
898.445129,476
898.561462,481
898.677795,481
898.794312,492
898.910645,498
899.026978,487
899.143433,477
899.259766,494
899.37616,500
899.492493,487
899.608765,465
899.725159,493
899.841553,500
899.957947,479
900.07428,500
900.190552,489
900.306946,494
900.423157,481
900.53949,482
900.655884,485
900.772156,511
900.888489,479
901.004822,492
901.121033,479
901.237366,497
901.353699,484
901.46991,490
901.586304,484
901.702515,479
901.818787,491
901.93512,495
902.051331,469
902.167603,480
902.283875,487
902.400085,490
902.516418,489
902.632629,481
902.74884,479
902.865112,478
902.981384,480
903.097595,488
903.213867,481
903.330017,492
903.446289,470
903.5625,517
903.67865,483
903.794922,481
903.911072,499
904.027344,517
904.143494,486
904.259705,501
904.375916,488
904.492065,520
904.608215,487
904.724426,470
904.840576,480
904.956726,494
905.072876,503
905.189087,490
905.305176,467
905.421387,487
905.537537,481
905.653687,498
905.769775,507
905.885925,507
906.002014,513
906.118164,494
906.234314,501
906.350403,493
906.466492,505
906.582642,516
906.69873,501
906.814758,492
906.930908,483
907.046936,499
907.163086,511
907.279175,484
907.395264,478
907.511353,504
907.62738,498
907.743408,508
907.859497,477
907.975525,491
908.091553,473
908.207703,495
908.32373,496
908.439758,481
908.555786,494
908.671814,491
908.787842,488
908.90387,490
909.019775,476
909.135864,491
909.251892,469
909.367859,480
909.483826,493
909.599854,483
909.715881,477
909.831848,503
909.947815,496
910.063782,505
910.179749,485
910.295776,497
910.411743,492
910.527649,524
910.643616,484
910.759583,486
910.875488,459
910.991455,505
911.107361,474
911.223267,487
911.339294,481
911.4552,513
911.571106,488
911.687073,485
911.802979,499
911.918823,502
912.034729,486
912.150635,504
912.266602,480
912.382446,506
912.498352,504
912.614197,504
912.730103,467
912.846008,507
792.44574,595
792.56488,641
792.68396,664
792.80304,647
792.92218,625
793.041199,582
793.160339,600
793.279419,605
793.398499,602
793.517578,589
793.636658,583
793.755737,608
793.874817,606
793.993896,606
794.112976,590
794.232056,578
794.351074,608
794.470215,607
794.589233,594
794.708313,614
794.827393,579
794.946411,615
795.065552,592
795.18457,589
795.303589,573
795.422668,604
795.541687,613
795.660767,571
795.779846,570
795.898865,568
796.017883,565
796.136963,593
796.255981,562
796.375061,582
796.49408,576
796.613037,579
796.732117,588
796.851135,570
796.970154,570
797.089233,568
797.208191,561
797.327271,573
797.446228,564
797.565186,557
797.684265,555
797.803223,584
797.922241,582
798.04126,585
798.160278,565
798.279297,560
798.398315,587
798.517273,593
798.636292,549
798.75531,592
798.874268,605
798.993286,565
799.112244,584
799.231323,563
799.350281,564
799.469238,588
799.588257,581
799.707153,552
799.826111,589
799.945129,569
800.064087,592
800.183044,591
800.302063,582
800.421021,576
800.539978,558
800.658936,570
800.777893,562
800.896912,581
801.015747,546
801.134705,562
801.253723,588
801.37262,567
801.491638,585
801.610535,577
801.729492,574
801.84845,593
801.967407,583
802.086243,582
802.205261,566
802.324158,572
802.443115,585
802.562073,604
802.680969,570
802.799927,594
802.918762,568
803.037659,580
803.156677,600
803.275574,576
803.39447,577
803.513428,604
803.632263,581
803.751221,596
803.870117,608
803.989014,572
804.107971,581
804.226746,600
804.345642,593
804.4646,610
804.583496,586
804.702393,591
804.821228,594
804.940125,602
805.059021,603
805.177917,583
805.296814,580
805.415649,590
805.534546,607
805.653442,608
805.772278,588
805.891113,615
806.01001,591
806.128906,607
806.247742,607
806.366577,615
806.485413,609
806.604309,600
806.723145,570
806.84198,607
806.960876,606
807.079712,618
807.198486,603
807.317383,604
807.436218,585
807.554993,606
807.673889,613
807.792725,614
807.91156,615
808.030396,606
808.14917,617
808.268005,600
808.386841,619
808.505676,610
808.624451,629
808.743286,615
808.862122,631
808.980896,605
809.099731,596
809.218506,636
809.337341,612
809.456116,606
809.57489,605
809.693726,612
809.8125,608
809.931274,609
810.050049,620
810.168884,616
810.287659,630
810.406372,646
810.525269,615
810.643982,608
810.762756,596
810.881531,599
811.000305,618
811.11908,589
811.237854,633
811.356567,601
811.475403,628
811.594116,633
811.71283,636
811.831604,631
811.950378,598
812.069153,613
812.187927,600
812.30658,626
812.425415,638
812.544128,633
812.662781,622
812.781616,619
812.900269,619
813.019043,607
813.137756,634
813.256531,613
813.375244,612
813.493896,618
813.612671,631
813.731384,642
813.850037,621
813.96875,611
814.087524,622
814.206238,637
814.324951,614
814.443604,602
814.562256,618
814.68103,636
814.799683,606
814.918335,621
815.037109,606
815.155762,592
815.274475,608
815.393188,619
815.511841,602
815.630554,599
815.749146,613
815.867859,606
815.986572,600
816.105164,582
816.223877,595
816.342529,596
816.461182,627
816.579895,583
816.698486,607
816.817139,601
816.935791,623
817.054504,588
817.173096,619
817.291748,602
817.4104,591
817.529053,581
817.647644,576
817.766235,591
817.884949,576
818.00354,561
818.122192,562
818.240845,553
818.359436,550
818.478088,539
818.59668,555
818.715271,550
818.833923,521
818.952515,529
819.071106,536
819.189758,547
819.30835,511
819.426941,502
819.545532,504
819.664124,526
819.782715,501
819.901306,516
820.019897,481
820.138489,505
820.25708,487
820.375671,518
820.494202,498
820.612732,496
820.731384,494
820.849915,466
820.968506,509
821.087097,477
821.205627,511
821.324158,498
821.442749,501
821.561279,506
821.679871,504
821.798401,487
821.916931,485
822.035461,495
822.154053,474
822.272583,513
822.391174,455
822.509583,492
822.628174,508
822.746704,479
822.865234,487
822.983765,497
823.102295,508
823.220825,483
823.339294,479
823.457825,484
823.576355,475
823.694824,491
823.813354,465
823.931885,463
824.050354,475
824.168884,509
824.287354,495
824.405823,487
824.524353,500
824.642822,496
824.761353,494
824.879822,502
824.998291,493
825.116699,483
825.235291,490
825.353699,503
825.472168,491
825.590637,486
825.709106,490
825.827576,487
825.946045,472
826.064453,499
826.182983,478
826.301392,479
826.4198,477
826.53833,465
826.656738,461
826.775208,463
826.893677,476
827.012024,473
827.130493,468
827.248962,484
827.36731,472
827.485779,462
827.604248,471
827.722595,473
827.841064,469
827.959412,465
828.077942,467
828.196289,464
828.314636,475
828.433105,463
828.551514,478
828.669861,451
828.78833,463
828.906677,456
829.025085,487
829.143433,454
829.261841,474
829.38031,456
829.498657,485
829.617004,455
829.735413,468
829.85376,455
829.972107,427
830.090515,473
830.208862,446
830.327209,480
830.445557,462
830.563904,445
830.682312,456
830.800659,460
830.919006,453
831.037354,453
831.155701,467
831.274048,468
831.392395,462
831.51062,469
831.629028,448
831.747314,474
831.865662,459
831.984009,480
832.102356,449
832.220642,473
832.338928,456
832.457275,451
832.575623,457
832.693909,449
832.812134,470
832.930481,462
833.048828,472
833.167114,467
833.2854,477
833.403687,457
833.521973,471
833.640259,456
833.758545,461
833.876831,459
833.995056,476
834.113281,476
834.231628,467
834.349915,461
834.468201,456
834.586426,477
834.704651,453
834.822998,473
834.941162,472
835.059448,460
835.177673,468
835.295959,452
835.414246,462
835.53241,474
835.650635,477
835.768921,459
835.887146,455
836.005371,459
836.123596,453
836.241821,459
836.360046,464
836.478271,468
836.596497,485
836.714722,474
836.832886,451
836.95105,471
837.069336,481
837.1875,480
837.305725,478
837.423889,485
837.542053,473
837.660339,481
837.778503,470
837.896667,485
838.014832,473
838.132996,499
838.25116,477
838.369385,489
838.487488,479
838.605713,487
838.723877,496
838.84198,476
838.960205,482
839.078308,494
839.196472,449
839.314636,471
839.4328,503
839.550964,479
839.669067,463
839.787231,467
839.905396,485
840.023499,480
840.141602,469
840.259766,480
840.377869,466
840.495972,497
840.614136,458
840.732239,472
840.850342,463
840.968445,473
841.086548,478
841.204651,466
841.322754,467
841.440918,456
841.55896,459
841.677002,485
841.795166,466
841.913208,458
842.031311,453
842.149353,479
842.267456,475
842.385498,460
842.503601,443
842.621643,469
842.739746,476
842.857788,482
842.97583,467
843.093933,472
843.211975,444
843.330017,445
843.44812,458
843.566101,452
843.684204,451
843.802246,449
843.920227,487
844.038269,443
844.156311,471
844.274292,462
844.392395,457
844.510376,446
844.628357,448
844.74646,431
844.864441,457
844.982422,472
845.100403,448
845.218384,462
845.336426,467
845.454468,451
845.572449,457
845.69043,459
845.808411,471
845.926453,457
846.044373,451
846.162354,446
846.280396,458
846.398315,460
846.516296,452
846.634216,457
846.752197,472
846.870178,455
846.988098,461
847.106079,479
847.22406,460
847.34198,465
847.4599,479
847.577881,464
847.695801,462
847.813782,466
847.931641,450
848.049561,476
848.167603,469
848.285461,459
848.403381,465
848.521362,471
848.639221,454
848.75708,463
848.875,466
848.99292,471
849.110901,466
849.22876,452
849.34668,446
849.464539,457
849.582458,464
849.700317,458
849.818176,450
849.936096,468
850.053955,460
850.171875,474
850.289673,465
850.407593,459
850.525452,481
850.643311,467
850.761169,457
850.878967,451
850.996887,476
851.114746,452
851.232544,460
851.350403,466
851.468262,451
851.58606,466
851.703979,440
851.821777,462
851.939636,455
852.057434,475
852.175232,449
852.293091,468
852.410889,465
852.528687,444
852.646545,461
852.764343,456
852.88208,474
852.999939,471
853.117676,460
853.235535,450
853.353271,452
853.471069,467
853.588928,454
853.706604,456
853.824402,452
853.9422,465
854.059998,434
854.177734,470
854.295532,455
854.413269,471
854.531006,468
854.648804,456
854.766541,481
854.884277,457
855.002014,474
855.119751,468
855.237549,468
855.355225,466
855.473022,487
855.590698,470
855.708435,448
855.826172,465
855.943848,460
856.061646,450
856.179321,493
856.296997,451
856.414795,459
856.53241,478
856.650085,476
856.767822,479
856.885559,450
857.003174,479
857.120911,479
857.238586,478
857.356201,478
857.473938,492
857.591614,452
857.709351,476
857.826965,468
857.944641,469
858.062317,467
858.179993,462
858.297668,452
858.415283,463
858.532959,472
858.650574,467
858.768188,469
858.885803,469
859.003479,466
859.121094,459
859.23877,463
859.356384,472
859.473999,489
859.591675,472
859.709229,461
859.826843,457
859.944458,470
860.062012,464
860.179626,458
860.297302,482
860.414856,442
860.532471,474
860.650024,463
860.767639,468
860.885193,491
861.002808,467
861.120361,466
861.237976,449
861.35553,481
861.473022,451
861.590698,457
861.708191,455
861.825745,493
861.943298,477
862.060852,481
862.178406,439
862.295959,476
862.413513,453
862.531006,460
862.64856,468
862.766113,469
862.883667,467
863.00116,460
863.118713,461
863.236206,488
863.353699,466
863.471252,478
863.588745,453
863.706177,464
863.82373,486
863.941162,464
864.058716,478
864.176208,460
864.29364,477
864.411194,467
864.528687,470
864.646118,489
864.763611,465
864.881042,468
864.998535,481
865.116028,480
865.233459,465
865.350891,453
865.468384,470
865.585754,468
865.703308,471
865.820679,473
865.938171,476
866.055542,462
866.173035,470
866.290466,458
866.407837,473
866.52533,466
866.6427,469
866.760071,458
866.877563,468
866.994934,455
867.112305,463
867.229736,462
867.347107,471
867.464539,464
867.58197,479
867.699341,470
867.81665,462
867.934082,461
868.051453,472
868.168823,462
868.286194,464
868.403564,471
868.520935,468
868.638306,479
868.755676,467
868.872986,469
868.990295,474
869.107727,477
869.225037,468
869.342346,476
869.459717,466
869.577026,449
869.694336,463
869.811707,459
869.929016,484
870.046326,470
870.163635,474
870.280945,465
870.398254,465
870.515564,474
870.632812,477
870.750183,464
870.867432,468
870.984741,458
871.102051,480
871.219299,495
871.336609,472
871.453918,471
871.571106,468
871.688416,466
871.805664,467
871.922852,452
872.040222,493
872.157471,472
872.274719,482
872.391968,469
872.509155,465
872.626465,487
872.743652,466
872.860962,474
872.978149,455
873.095337,462
873.212646,480
873.329834,465
873.44696,462
873.564209,458
873.681396,484
873.798645,461
873.915894,482
874.03302,465
874.150208,466
874.267456,459
874.384583,453
874.501831,457
874.618958,448
874.736145,480
874.853333,471
874.970459,483
875.087646,448
875.204834,477
875.32196,478
875.439148,486
875.556274,469
875.673401,475
875.790527,455
875.907715,467
876.024841,470
876.141968,473
876.259094,498
876.376282,471
876.493347,471
876.610474,473
876.7276,474
876.844727,471
876.961853,481
877.078918,455
877.195984,482
877.313171,488
877.430237,473
877.547302,492
877.664368,488
877.781433,454
877.898499,478
878.015625,480
878.13269,471
878.249695,467
878.366821,483
878.483887,481
878.600952,470
878.717957,464
878.834961,480
878.952087,478
879.069092,491
879.186157,452
879.303162,461
879.420227,457
879.537231,467
879.654236,460
879.77124,441
879.888306,463
880.005249,464
880.122314,483
880.239319,458
880.356323,466
880.473328,481
880.590271,488
880.707275,468
880.824341,473
880.941284,470
881.058228,465
881.175232,469
881.292236,448
881.40918,457
881.526123,488
881.643066,486
881.760071,463
881.877014,464
881.993958,479
882.11084,474
882.227783,482
882.344727,463
882.46167,482
882.578613,482
882.695618,457
882.812439,491
882.929382,481
883.046326,480
883.163208,492
883.280151,473
883.397034,467
883.513916,462
883.630798,458
883.747742,474
883.864563,474
883.981506,483
884.098389,487
884.21521,464
884.332153,497
884.448975,465
884.565796,487
884.682678,479
884.7995,474
884.916443,488
885.033264,470
885.150085,482
885.266968,486
885.383789,479
885.500671,483
885.617493,482
885.734314,511
885.851196,486
885.967896,480
886.084717,495
886.201599,482
886.318359,483
886.435181,474
886.552002,470
886.668762,460
886.785645,486
886.902344,480
887.019165,485
887.135925,462
887.252747,490
887.369446,472
887.486267,480
887.603027,468
887.719788,488
887.836548,486
887.953247,487
888.070068,474
888.186829,466
888.303528,481
888.420288,491
888.536987,469
888.653687,473
888.770447,457
888.887146,492
889.003967,460
889.120667,473
889.237305,467
889.354065,475
889.470703,479
889.587463,490
889.704163,479
889.820862,497
889.937561,478
890.054199,489
890.170837,483
890.287598,478
890.404236,482
890.520874,478
890.637634,467
890.754211,487
890.87085,476
890.987549,481
891.104187,485
891.220886,488
891.337463,484
891.454102,471
891.57074,493
891.687378,482
891.804077,480
891.920654,471
892.037231,483
892.15387,515
892.270447,479
892.387085,486
892.503723,500
892.6203,506
892.736877,475
892.853516,485
892.970032,465
893.08667,474
893.203186,464
893.319763,483
893.43634,493
893.552917,477
893.669556,493
893.786011,490
893.902588,498
894.019165,495
894.135681,464
894.252197,484
894.368835,489
894.485291,486
894.601868,485
894.718384,488
894.8349,457
894.951355,494
895.067932,491
895.184448,488
895.300964,488
895.417419,511
895.533936,488
895.650452,506
895.766907,473
895.883423,477
895.999878,486
896.116333,491
896.232849,466
896.349304,490
896.465759,494
896.582214,497
896.698669,483
896.815125,478
896.931641,485
897.048035,467
897.164551,472
897.280884,498
897.397339,469
897.513794,507
897.630249,469
897.746582,506
897.863098,478
897.979431,509
898.095886,476
898.212341,483
898.328674,499
898.445129,483
898.561462,482
898.677795,497
898.794312,494
898.910645,477
899.026978,466
899.143433,479
899.259766,466
899.37616,487
899.492493,482
899.608765,496
899.725159,485
899.841553,503
899.957947,485
900.07428,496
900.190552,494
900.306946,478
900.423157,476
900.53949,479
900.655884,500
900.772156,512
900.888489,497
901.004822,501
901.121033,482
901.237366,474
901.353699,491
901.46991,500
901.586304,478
901.702515,501
901.818787,493
901.93512,483
902.051331,461
902.167603,486
902.283875,489
902.400085,493
902.516418,485
902.632629,506
902.74884,488
902.865112,485
902.981384,486
903.097595,496
903.213867,491
903.330017,498
903.446289,499
903.5625,482
903.67865,490
903.794922,503
903.911072,486
904.027344,503
904.143494,485
904.259705,489
904.375916,475
904.492065,476
904.608215,493
904.724426,497
904.840576,473
904.956726,492
905.072876,502
905.189087,491
905.305176,485
905.421387,484
905.537537,481
905.653687,494
905.769775,492
905.885925,500
906.002014,473
906.118164,497
906.234314,471
906.350403,512
906.466492,472
906.582642,480
906.69873,492
906.814758,505
906.930908,466
907.046936,484
907.163086,504
907.279175,492
907.395264,491
907.511353,492
907.62738,516
907.743408,509
907.859497,493
907.975525,484
908.091553,488
908.207703,508
908.32373,489
908.439758,499
908.555786,490
908.671814,505
908.787842,470
908.90387,489
909.019775,493
909.135864,490
909.251892,499
909.367859,496
909.483826,467
909.599854,511
909.715881,489
909.831848,506
909.947815,506
910.063782,496
910.179749,492
910.295776,511
910.411743,489
910.527649,522
910.643616,505
910.759583,485
910.875488,527
910.991455,501
911.107361,484
911.223267,466
911.339294,505
911.4552,499
911.571106,497
911.687073,491
911.802979,490
911.918823,482
912.034729,496
912.150635,506
912.266602,496
912.382446,494
912.498352,481
912.614197,488
912.730103,478
912.846008,501
