792.44574,584
792.56488,605
792.68396,649
792.80304,640
792.92218,610
793.041199,574
793.160339,598
793.279419,596
793.398499,609
793.517578,555
793.636658,575
793.755737,581
793.874817,594
793.993896,624
794.112976,608
794.232056,572
794.351074,584
794.470215,566
794.589233,594
794.708313,568
794.827393,570
794.946411,574
795.065552,611
795.18457,586
795.303589,571
795.422668,586
795.541687,568
795.660767,602
795.779846,592
795.898865,577
796.017883,559
796.136963,584
796.255981,575
796.375061,553
796.49408,560
796.613037,574
796.732117,565
796.851135,554
796.970154,592
797.089233,543
797.208191,560
797.327271,567
797.446228,572
797.565186,572
797.684265,565
797.803223,555
797.922241,580
798.04126,558
798.160278,566
798.279297,557
798.398315,587
798.517273,574
798.636292,565
798.75531,561
798.874268,583
798.993286,591
799.112244,560
799.231323,532
799.350281,575
799.469238,559
799.588257,558
799.707153,592
799.826111,572
799.945129,560
800.064087,565
800.183044,564
800.302063,570
800.421021,549
800.539978,565
800.658936,551
800.777893,570
800.896912,570
801.015747,587
801.134705,583
801.253723,550
801.37262,554
801.491638,549
801.610535,561
801.729492,561
801.84845,567
801.967407,584
802.086243,580
802.205261,554
802.324158,581
802.443115,606
802.562073,584
802.680969,572
802.799927,558
802.918762,574
803.037659,559
803.156677,591
803.275574,563
803.39447,587
803.513428,582
803.632263,598
803.751221,580
803.870117,579
803.989014,571
804.107971,588
804.226746,574
804.345642,565
804.4646,586
804.583496,595
804.702393,575
804.821228,610
804.940125,585
805.059021,566
805.177917,583
805.296814,581
805.415649,604
805.534546,587
805.653442,586
805.772278,595
805.891113,604
806.01001,591
806.128906,605
806.247742,568
806.366577,595
806.485413,613
806.604309,587
806.723145,614
806.84198,603
806.960876,592
807.079712,616
807.198486,620
807.317383,602
807.436218,622
807.554993,588
807.673889,599
807.792725,602
807.91156,589
808.030396,614
808.14917,610
808.268005,604
808.386841,620
808.505676,597
808.624451,623
808.743286,623
808.862122,611
808.980896,602
809.099731,620
809.218506,609
809.337341,608
809.456116,621
809.57489,628
809.693726,613
809.8125,614
809.931274,613
810.050049,612
810.168884,623
810.287659,622
810.406372,598
810.525269,613
810.643982,618
810.762756,638
810.881531,624
811.000305,622
811.11908,631
811.237854,603
811.356567,624
811.475403,621
811.594116,610
811.71283,611
811.831604,612
811.950378,632
812.069153,632
812.187927,623
812.30658,607
812.425415,602
812.544128,619
812.662781,636
812.781616,612
812.900269,616
813.019043,612
813.137756,634
813.256531,602
813.375244,591
813.493896,618
813.612671,610
813.731384,614
813.850037,624
813.96875,606
814.087524,620
814.206238,592
814.324951,627
814.443604,597
814.562256,648
814.68103,626
814.799683,598
814.918335,606
815.037109,601
815.155762,620
815.274475,601
815.393188,599
815.511841,609
815.630554,593
815.749146,562
815.867859,581
815.986572,611
816.105164,582
816.223877,569
816.342529,611
816.461182,603
816.579895,612
816.698486,608
816.817139,638
816.935791,605
817.054504,585
817.173096,594
817.291748,588
817.4104,592
817.529053,586
817.647644,592
817.766235,575
817.884949,579
818.00354,557
818.122192,528
818.240845,535
818.359436,541
818.478088,549
818.59668,529
818.715271,535
818.833923,539
818.952515,503
819.071106,521
819.189758,514
819.30835,535
819.426941,522
819.545532,499
819.664124,505
819.782715,493
819.901306,498
820.019897,506
820.138489,496
820.25708,495
820.375671,458
820.494202,501
820.612732,486
820.731384,498
820.849915,468
820.968506,493
821.087097,454
821.205627,502
821.324158,483
821.442749,489
821.561279,485
821.679871,475
821.798401,472
821.916931,491
822.035461,472
822.154053,484
822.272583,471
822.391174,495
822.509583,461
822.628174,502
822.746704,468
822.865234,466
822.983765,473
823.102295,508
823.220825,479
823.339294,477
823.457825,470
823.576355,490
823.694824,479
823.813354,513
823.931885,492
824.050354,493
824.168884,488
824.287354,500
824.405823,486
824.524353,481
824.642822,482
824.761353,506
824.879822,496
824.998291,495
825.116699,471
825.235291,483
825.353699,485
825.472168,480
825.590637,469
825.709106,485
825.827576,481
825.946045,461
826.064453,469
826.182983,467
826.301392,482
826.4198,477
826.53833,467
826.656738,475
826.775208,457
826.893677,469
827.012024,467
827.130493,464
827.248962,476
827.36731,461
827.485779,480
827.604248,486
827.722595,459
827.841064,472
827.959412,448
828.077942,462
828.196289,468
828.314636,461
828.433105,443
828.551514,477
828.669861,461
828.78833,467
828.906677,451
829.025085,453
829.143433,444
829.261841,471
829.38031,461
829.498657,449
829.617004,456
829.735413,467
829.85376,444
829.972107,483
830.090515,444
830.208862,476
830.327209,464
830.445557,451
830.563904,461
830.682312,473
830.800659,421
830.919006,458
831.037354,442
831.155701,461
831.274048,466
831.392395,454
831.51062,462
831.629028,460
831.747314,462
831.865662,460
831.984009,463
832.102356,457
832.220642,458
832.338928,452
832.457275,451
832.575623,446
832.693909,453
832.812134,460
832.930481,464
833.048828,462
833.167114,449
833.2854,474
833.403687,443
833.521973,455
833.640259,431
833.758545,462
833.876831,469
833.995056,467
834.113281,451
834.231628,462
834.349915,453
834.468201,464
834.586426,480
834.704651,468
834.822998,448
834.941162,475
835.059448,447
835.177673,464
835.295959,466
835.414246,449
835.53241,452
835.650635,459
835.768921,459
835.887146,452
836.005371,475
836.123596,464
836.241821,466
836.360046,476
836.478271,476
836.596497,480
836.714722,479
836.832886,477
836.95105,460
837.069336,474
837.1875,466
837.305725,474
837.423889,477
837.542053,468
837.660339,482
837.778503,481
837.896667,491
838.014832,474
838.132996,469
838.25116,478
838.369385,466
838.487488,496
838.605713,460
838.723877,483
838.84198,476
838.960205,478
839.078308,465
839.196472,511
839.314636,478
839.4328,474
839.550964,455
839.669067,473
839.787231,473
839.905396,483
840.023499,483
840.141602,473
840.259766,485
840.377869,464
840.495972,476
840.614136,462
840.732239,465
840.850342,454
840.968445,458
841.086548,451
841.204651,457
841.322754,475
841.440918,454
841.55896,473
841.677002,444
841.795166,470
841.913208,441
842.031311,468
842.149353,450
842.267456,459
842.385498,441
842.503601,469
842.621643,454
842.739746,448
842.857788,452
842.97583,446
843.093933,453
843.211975,456
843.330017,473
843.44812,455
843.566101,456
843.684204,463
843.802246,456
843.920227,475
844.038269,467
844.156311,473
844.274292,438
844.392395,462
844.510376,463
844.628357,463
844.74646,465
844.864441,449
844.982422,466
845.100403,474
845.218384,453
845.336426,460
845.454468,457
845.572449,456
845.69043,433
845.808411,456
845.926453,455
846.044373,446
846.162354,451
846.280396,445
846.398315,440
846.516296,452
846.634216,453
846.752197,452
846.870178,446
846.988098,460
847.106079,466
847.22406,440
847.34198,436
847.4599,474
847.577881,441
847.695801,446
847.813782,452
847.931641,471
848.049561,447
848.167603,443
848.285461,462
848.403381,454
848.521362,448
848.639221,466
848.75708,447
848.875,462
848.99292,426
849.110901,452
849.22876,459
849.34668,449
849.464539,441
849.582458,470
849.700317,447
849.818176,455
849.936096,448
850.053955,453
850.171875,425
850.289673,484
850.407593,459
850.525452,459
850.643311,444
850.761169,456
850.878967,449
850.996887,448
851.114746,463
851.232544,457
851.350403,449
851.468262,433
851.58606,475
851.703979,462
851.821777,426
851.939636,448
852.057434,448
852.175232,448
852.293091,438
852.410889,466
852.528687,460
852.646545,488
852.764343,459
852.88208,467
852.999939,457
853.117676,448
853.235535,441
853.353271,459
853.471069,458
853.588928,468
853.706604,443
853.824402,462
853.9422,472
854.059998,447
854.177734,452
854.295532,448
854.413269,460
854.531006,480
854.648804,457
854.766541,464
854.884277,447
855.002014,455
855.119751,461
855.237549,459
855.355225,464
855.473022,441
855.590698,461
855.708435,437
855.826172,457
855.943848,474
856.061646,466
856.179321,467
856.296997,464
856.414795,477
856.53241,452
856.650085,466
856.767822,470
856.885559,470
857.003174,436
857.120911,475
857.238586,463
857.356201,467
857.473938,472
857.591614,459
857.709351,452
857.826965,468
857.944641,460
858.062317,481
858.179993,470
858.297668,453
858.415283,455
858.532959,458
858.650574,444
858.768188,488
858.885803,467
859.003479,458
859.121094,466
859.23877,457
859.356384,454
859.473999,450
859.591675,464
859.709229,473
859.826843,436
859.944458,460
860.062012,439
860.179626,453
860.297302,471
860.414856,474
860.532471,437
860.650024,458
860.767639,458
860.885193,467
861.002808,466
861.120361,463
861.237976,464
861.35553,470
861.473022,460
861.590698,461
861.708191,444
861.825745,468
861.943298,450
862.060852,466
862.178406,451
862.295959,475
862.413513,469
862.531006,459
862.64856,438
862.766113,469
862.883667,465
863.00116,454
863.118713,465
863.236206,485
863.353699,466
863.471252,482
863.588745,456
863.706177,466
863.82373,460
863.941162,451
864.058716,472
864.176208,469
864.29364,452
864.411194,466
864.528687,446
864.646118,458
864.763611,441
864.881042,456
864.998535,466
865.116028,449
865.233459,442
865.350891,456
865.468384,460
865.585754,456
865.703308,449
865.820679,473
865.938171,483
866.055542,479
866.173035,435
866.290466,483
866.407837,458
866.52533,471
866.6427,469
866.760071,464
866.877563,466
866.994934,464
867.112305,440
867.229736,456
867.347107,469
867.464539,467
867.58197,463
867.699341,442
867.81665,451
867.934082,461
868.051453,441
868.168823,453
868.286194,458
868.403564,462
868.520935,435
868.638306,473
868.755676,468
868.872986,438
868.990295,467
869.107727,454
869.225037,457
869.342346,462
869.459717,448
869.577026,483
869.694336,457
869.811707,472
869.929016,469
870.046326,457
870.163635,462
870.280945,473
870.398254,489
870.515564,458
870.632812,482
870.750183,472
870.867432,459
870.984741,454
871.102051,453
871.219299,470
871.336609,466
871.453918,478
871.571106,451
871.688416,467
871.805664,452
871.922852,451
872.040222,464
872.157471,485
872.274719,455
872.391968,485
872.509155,459
872.626465,459
872.743652,459
872.860962,473
872.978149,469
873.095337,451
873.212646,470
873.329834,457
873.44696,454
873.564209,464
873.681396,463
873.798645,462
873.915894,474
874.03302,484
874.150208,454
874.267456,464
874.384583,454
874.501831,432
874.618958,461
874.736145,465
874.853333,454
874.970459,488
875.087646,449
875.204834,481
875.32196,468
875.439148,451
875.556274,468
875.673401,453
875.790527,475
875.907715,478
876.024841,461
876.141968,457
876.259094,468
876.376282,475
876.493347,472
876.610474,462
876.7276,476
876.844727,481
876.961853,469
877.078918,479
877.195984,460
877.313171,464
877.430237,473
877.547302,477
877.664368,457
877.781433,450
877.898499,479
878.015625,457
878.13269,468
878.249695,467
878.366821,484
878.483887,471
878.600952,481
878.717957,461
878.834961,459
878.952087,444
879.069092,456
879.186157,458
879.303162,467
879.420227,471
879.537231,477
879.654236,477
879.77124,460
879.888306,470
880.005249,453
880.122314,480
880.239319,449
880.356323,484
880.473328,452
880.590271,471
880.707275,475
880.824341,466
880.941284,486
881.058228,468
881.175232,449
881.292236,481
881.40918,469
881.526123,460
881.643066,456
881.760071,475
881.877014,465
881.993958,486
882.11084,466
882.227783,469
882.344727,459
882.46167,484
882.578613,457
882.695618,468
882.812439,461
882.929382,481
883.046326,463
883.163208,480
883.280151,466
883.397034,482
883.513916,478
883.630798,462
883.747742,467
883.864563,466
883.981506,456
884.098389,490
884.21521,474
884.332153,478
884.448975,471
884.565796,504
884.682678,479
884.7995,472
884.916443,459
885.033264,497
885.150085,464
885.266968,484
885.383789,474
885.500671,512
885.617493,477
885.734314,467
885.851196,468
885.967896,473
886.084717,465
886.201599,474
886.318359,473
886.435181,465
886.552002,466
886.668762,489
886.785645,462
886.902344,469
887.019165,475
887.135925,467
887.252747,460
887.369446,474
887.486267,485
887.603027,470
887.719788,454
887.836548,463
887.953247,470
888.070068,475
888.186829,487
888.303528,475
888.420288,475
888.536987,470
888.653687,459
888.770447,500
888.887146,483
889.003967,485
889.120667,473
889.237305,482
889.354065,476
889.470703,488
889.587463,461
889.704163,483
889.820862,458
889.937561,488
890.054199,480
890.170837,463
890.287598,468
890.404236,480
890.520874,456
890.637634,470
890.754211,500
890.87085,479
890.987549,472
891.104187,474
891.220886,481
891.337463,469
891.454102,469
891.57074,492
891.687378,458
891.804077,492
891.920654,475
892.037231,472
892.15387,471
892.270447,486
892.387085,486
892.503723,489
892.6203,461
892.736877,486
892.853516,467
892.970032,456
893.08667,468
893.203186,486
893.319763,457
893.43634,477
893.552917,488
893.669556,507
893.786011,460
893.902588,460
894.019165,471
894.135681,480
894.252197,474
894.368835,508
894.485291,490
894.601868,469
894.718384,473
894.8349,478
894.951355,479
895.067932,480
895.184448,474
895.300964,486
895.417419,472
895.533936,491
895.650452,462
895.766907,470
895.883423,493
895.999878,472
896.116333,476
896.232849,473
896.349304,476
896.465759,495
896.582214,474
896.698669,486
896.815125,466
896.931641,484
897.048035,493
897.164551,474
897.280884,486
897.397339,484
897.513794,473
897.630249,482
897.746582,466
897.863098,486
897.979431,500
898.095886,503
898.212341,475
898.328674,491
898.445129,500
898.561462,481
898.677795,495
898.794312,481
898.910645,477
899.026978,508
899.143433,473
899.259766,484
899.37616,472
899.492493,483
899.608765,482
899.725159,468
899.841553,470
899.957947,492
900.07428,478
900.190552,496
900.306946,470
900.423157,481
900.53949,480
900.655884,504
900.772156,481
900.888489,493
901.004822,477
901.121033,490
901.237366,492
901.353699,500
901.46991,474
901.586304,507
901.702515,481
901.818787,492
901.93512,487
902.051331,496
902.167603,477
902.283875,487
902.400085,486
902.516418,491
902.632629,464
902.74884,504
902.865112,478
902.981384,499
903.097595,490
903.213867,479
903.330017,465
903.446289,498
903.5625,506
903.67865,513
903.794922,488
903.911072,492
904.027344,494
904.143494,518
904.259705,474
904.375916,486
904.492065,464
904.608215,480
904.724426,510
904.840576,488
904.956726,474
905.072876,480
905.189087,497
905.305176,496
905.421387,485
905.537537,471
905.653687,480
905.769775,476
905.885925,481
906.002014,472
906.118164,472
906.234314,476
906.350403,484
906.466492,498
906.582642,490
906.69873,508
906.814758,476
906.930908,484
907.046936,496
907.163086,459
907.279175,484
907.395264,476
907.511353,490
907.62738,502
907.743408,488
907.859497,497
907.975525,478
908.091553,498
908.207703,487
908.32373,495
908.439758,484
908.555786,479
908.671814,483
908.787842,490
908.90387,492
909.019775,463
909.135864,495
909.251892,496
909.367859,505
909.483826,499
909.599854,492
909.715881,484
909.831848,486
909.947815,486
910.063782,492
910.179749,500
910.295776,504
910.411743,504
910.527649,490
910.643616,473
910.759583,486
910.875488,517
910.991455,479
911.107361,510
911.223267,499
911.339294,485
911.4552,495
911.571106,498
911.687073,513
911.802979,503
911.918823,475
912.034729,482
912.150635,497
912.266602,497
912.382446,479
912.498352,493
912.614197,477
912.730103,505
912.846008,489
792.44574,601
792.56488,638
792.68396,672
792.80304,654
792.92218,617
793.041199,555
793.160339,599
793.279419,624
793.398499,589
793.517578,599
793.636658,590
793.755737,579
793.874817,607
793.993896,620
794.112976,602
794.232056,603
794.351074,590
794.470215,628
794.589233,588
794.708313,590
794.827393,595
794.946411,579
795.065552,582
795.18457,580
795.303589,568
795.422668,569
795.541687,582
795.660767,589
795.779846,576
795.898865,564
796.017883,587
796.136963,575
796.255981,592
796.375061,572
796.49408,590
796.613037,564
796.732117,560
796.851135,572
796.970154,596
797.089233,577
797.208191,586
797.327271,586
797.446228,590
797.565186,596
797.684265,575
797.803223,562
797.922241,557
798.04126,590
798.160278,562
798.279297,589
798.398315,584
798.517273,573
798.636292,560
798.75531,584
798.874268,566
798.993286,568
799.112244,567
799.231323,561
799.350281,582
799.469238,573
799.588257,578
799.707153,554
799.826111,567
799.945129,571
800.064087,566
800.183044,572
800.302063,570
800.421021,567
800.539978,564
800.658936,575
800.777893,551
800.896912,573
801.015747,598
801.134705,550
801.253723,572
801.37262,569
801.491638,561
801.610535,584
801.729492,588
801.84845,567
801.967407,565
802.086243,575
802.205261,569
802.324158,546
802.443115,586
802.562073,608
802.680969,569
802.799927,566
802.918762,578
803.037659,582
803.156677,591
803.275574,594
803.39447,595
803.513428,573
803.632263,573
803.751221,588
803.870117,577
803.989014,577
804.107971,560
804.226746,596
804.345642,588
804.4646,594
804.583496,604
804.702393,598
804.821228,585
804.940125,607
805.059021,594
805.177917,584
805.296814,591
805.415649,599
805.534546,599
805.653442,599
805.772278,621
805.891113,588
806.01001,606
806.128906,606
806.247742,607
806.366577,612
806.485413,612
806.604309,605
806.723145,611
806.84198,599
806.960876,601
807.079712,606
807.198486,605
807.317383,592
807.436218,587
807.554993,590
807.673889,604
807.792725,601
807.91156,629
808.030396,597
808.14917,646
808.268005,625
808.386841,602
808.505676,626
808.624451,590
808.743286,614
808.862122,599
808.980896,614
809.099731,610
809.218506,612
809.337341,615
809.456116,606
809.57489,627
809.693726,622
809.8125,631
809.931274,623
810.050049,628
810.168884,609
810.287659,619
810.406372,640
810.525269,614
810.643982,631
810.762756,615
810.881531,618
811.000305,622
811.11908,643
811.237854,619
811.356567,620
811.475403,631
811.594116,629
811.71283,626
811.831604,647
811.950378,611
812.069153,620
812.187927,622
812.30658,631
812.425415,627
812.544128,646
812.662781,613
812.781616,589
812.900269,609
813.019043,613
813.137756,646
813.256531,614
813.375244,623
813.493896,635
813.612671,609
813.731384,613
813.850037,617
813.96875,637
814.087524,623
814.206238,602
814.324951,647
814.443604,623
814.562256,611
814.68103,623
814.799683,616
814.918335,604
815.037109,593
815.155762,598
815.274475,598
815.393188,606
815.511841,611
815.630554,615
815.749146,622
815.867859,629
815.986572,590
816.105164,599
816.223877,603
816.342529,579
816.461182,620
816.579895,603
816.698486,606
816.817139,609
816.935791,615
817.054504,597
817.173096,600
817.291748,629
817.4104,584
817.529053,584
817.647644,571
817.766235,566
817.884949,559
818.00354,576
818.122192,551
818.240845,551
818.359436,537
818.478088,547
818.59668,536
818.715271,522
818.833923,522
818.952515,547
819.071106,524
819.189758,518
819.30835,512
819.426941,522
819.545532,521
819.664124,514
819.782715,498
819.901306,505
820.019897,500
820.138489,509
820.25708,502
820.375671,498
820.494202,502
820.612732,503
820.731384,471
820.849915,477
820.968506,505
821.087097,507
821.205627,485
821.324158,482
821.442749,508
821.561279,481
821.679871,470
821.798401,474
821.916931,483
822.035461,476
822.154053,480
822.272583,496
822.391174,491
822.509583,482
822.628174,481
822.746704,491
822.865234,495
822.983765,511
823.102295,473
823.220825,487
823.339294,491
823.457825,486
823.576355,467
823.694824,478
823.813354,472
823.931885,499
824.050354,497
824.168884,484
824.287354,490
824.405823,495
824.524353,481
824.642822,500
824.761353,486
824.879822,491
824.998291,486
825.116699,479
825.235291,479
825.353699,485
825.472168,487
825.590637,504
825.709106,477
825.827576,489
825.946045,483
826.064453,477
826.182983,491
826.301392,474
826.4198,502
826.53833,470
826.656738,455
826.775208,481
826.893677,478
827.012024,466
827.130493,465
827.248962,481
827.36731,450
827.485779,465
827.604248,469
827.722595,463
827.841064,463
827.959412,439
828.077942,483
828.196289,469
828.314636,455
828.433105,471
828.551514,459
828.669861,467
828.78833,476
828.906677,475
829.025085,468
829.143433,479
829.261841,472
829.38031,489
829.498657,458
829.617004,473
829.735413,450
829.85376,472
829.972107,470
830.090515,466
830.208862,459
830.327209,457
830.445557,468
830.563904,455
830.682312,483
830.800659,459
830.919006,460
831.037354,467
831.155701,454
831.274048,440
831.392395,448
831.51062,456
831.629028,464
831.747314,462
831.865662,477
831.984009,469
832.102356,462
832.220642,463
832.338928,448
832.457275,458
832.575623,441
832.693909,462
832.812134,457
832.930481,471
833.048828,450
833.167114,465
833.2854,462
833.403687,467
833.521973,474
833.640259,446
833.758545,472
833.876831,444
833.995056,468
834.113281,452
834.231628,454
834.349915,467
834.468201,470
834.586426,473
834.704651,466
834.822998,459
834.941162,442
835.059448,457
835.177673,455
835.295959,465
835.414246,477
835.53241,463
835.650635,466
835.768921,468
835.887146,464
836.005371,487
836.123596,470
836.241821,469
836.360046,465
836.478271,485
836.596497,508
836.714722,492
836.832886,469
836.95105,483
837.069336,483
837.1875,472
837.305725,484
837.423889,497
837.542053,482
837.660339,499
837.778503,477
837.896667,495
838.014832,484
838.132996,482
838.25116,465
838.369385,471
838.487488,484
838.605713,505
838.723877,481
838.84198,504
838.960205,470
839.078308,465
839.196472,469
839.314636,457
839.4328,490
839.550964,480
839.669067,460
839.787231,474
839.905396,466
840.023499,472
840.141602,467
840.259766,474
840.377869,474
840.495972,478
840.614136,481
840.732239,493
840.850342,467
840.968445,464
841.086548,447
841.204651,451
841.322754,472
841.440918,456
841.55896,474
841.677002,463
841.795166,452
841.913208,472
842.031311,458
842.149353,466
842.267456,455
842.385498,462
842.503601,467
842.621643,459
842.739746,470
842.857788,446
842.97583,458
843.093933,452
843.211975,438
843.330017,472
843.44812,455
843.566101,462
843.684204,433
843.802246,458
843.920227,444
844.038269,462
844.156311,453
844.274292,440
844.392395,458
844.510376,461
844.628357,461
844.74646,471
844.864441,461
844.982422,473
845.100403,449
845.218384,457
845.336426,456
845.454468,452
845.572449,463
845.69043,468
845.808411,459
845.926453,450
846.044373,443
846.162354,463
846.280396,453
846.398315,446
846.516296,448
846.634216,458
846.752197,473
846.870178,465
846.988098,455
847.106079,448
847.22406,456
847.34198,446
847.4599,479
847.577881,452
847.695801,452
847.813782,449
847.931641,459
848.049561,468
848.167603,466
848.285461,448
848.403381,469
848.521362,453
848.639221,455
848.75708,465
848.875,462
848.99292,472
849.110901,467
849.22876,468
849.34668,461
849.464539,453
849.582458,467
849.700317,458
849.818176,458
849.936096,460
850.053955,438
850.171875,476
850.289673,463
850.407593,454
850.525452,466
850.643311,449
850.761169,449
850.878967,457
850.996887,446
851.114746,440
851.232544,448
851.350403,450
851.468262,449
851.58606,463
851.703979,458
851.821777,469
851.939636,460
852.057434,469
852.175232,456
852.293091,462
852.410889,454
852.528687,454
852.646545,464
852.764343,447
852.88208,467
852.999939,463
853.117676,433
853.235535,460
853.353271,458
853.471069,445
853.588928,441
853.706604,463
853.824402,452
853.9422,467
854.059998,462
854.177734,465
854.295532,446
854.413269,458
854.531006,463
854.648804,461
854.766541,453
854.884277,467
855.002014,465
855.119751,473
855.237549,463
855.355225,448
855.473022,478
855.590698,447
855.708435,442
855.826172,454
855.943848,460
856.061646,469
856.179321,458
856.296997,439
856.414795,474
856.53241,457
856.650085,454
856.767822,465
856.885559,475
857.003174,457
857.120911,473
857.238586,469
857.356201,482
857.473938,474
857.591614,479
857.709351,456
857.826965,461
857.944641,473
858.062317,497
858.179993,472
858.297668,470
858.415283,476
858.532959,467
858.650574,476
858.768188,473
858.885803,454
859.003479,460
859.121094,464
859.23877,474
859.356384,465
859.473999,450
859.591675,462
859.709229,471
859.826843,480
859.944458,462
860.062012,468
860.179626,473
860.297302,460
860.414856,463
860.532471,477
860.650024,432
860.767639,450
860.885193,457
861.002808,472
861.120361,483
861.237976,450
861.35553,468
861.473022,463
861.590698,460
861.708191,458
861.825745,468
861.943298,463
862.060852,454
862.178406,457
862.295959,456
862.413513,448
862.531006,460
862.64856,450
862.766113,457
862.883667,456
863.00116,454
863.118713,445
863.236206,469
863.353699,466
863.471252,461
863.588745,464
863.706177,469
863.82373,443
863.941162,458
864.058716,444
864.176208,443
864.29364,480
864.411194,465
864.528687,450
864.646118,457
864.763611,455
864.881042,472
864.998535,459
865.116028,467
865.233459,480
865.350891,464
865.468384,468
865.585754,468
865.703308,476
865.820679,454
865.938171,454
866.055542,466
866.173035,481
866.290466,454
866.407837,478
866.52533,471
866.6427,471
866.760071,472
866.877563,450
866.994934,476
867.112305,467
867.229736,483
867.347107,481
867.464539,482
867.58197,469
867.699341,461
867.81665,483
867.934082,463
868.051453,469
868.168823,469
868.286194,462
868.403564,481
868.520935,465
868.638306,480
868.755676,476
868.872986,480
868.990295,451
869.107727,481
869.225037,455
869.342346,472
869.459717,475
869.577026,473
869.694336,477
869.811707,470
869.929016,468
870.046326,473
870.163635,470
870.280945,468
870.398254,460
870.515564,483
870.632812,479
870.750183,472
870.867432,483
870.984741,456
871.102051,485
871.219299,488
871.336609,459
871.453918,439
871.571106,473
871.688416,473
871.805664,472
871.922852,485
872.040222,492
872.157471,466
872.274719,477
872.391968,447
872.509155,484
872.626465,456
872.743652,481
872.860962,469
872.978149,472
873.095337,482
873.212646,471
873.329834,474
873.44696,460
873.564209,481
873.681396,483
873.798645,462
873.915894,478
874.03302,466
874.150208,469
874.267456,470
874.384583,472
874.501831,471
874.618958,477
874.736145,480
874.853333,455
874.970459,462
875.087646,469
875.204834,468
875.32196,451
875.439148,489
875.556274,474
875.673401,480
875.790527,455
875.907715,453
876.024841,489
876.141968,460
876.259094,485
876.376282,473
876.493347,467
876.610474,466
876.7276,487
876.844727,467
876.961853,491
877.078918,476
877.195984,474
877.313171,473
877.430237,470
877.547302,469
877.664368,468
877.781433,471
877.898499,480
878.015625,469
878.13269,471
878.249695,450
878.366821,456
878.483887,467
878.600952,481
878.717957,476
878.834961,448
878.952087,465
879.069092,496
879.186157,480
879.303162,475
879.420227,477
879.537231,464
879.654236,475
879.77124,473
879.888306,478
880.005249,454
880.122314,477
880.239319,467
880.356323,489
880.473328,476
880.590271,465
880.707275,461
880.824341,462
880.941284,465
881.058228,463
881.175232,472
881.292236,463
881.40918,470
881.526123,503
881.643066,470
881.760071,483
881.877014,488
881.993958,456
882.11084,467
882.227783,473
882.344727,466
882.46167,465
882.578613,478
882.695618,464
882.812439,485
882.929382,461
883.046326,466
883.163208,458
883.280151,466
883.397034,465
883.513916,453
883.630798,493
883.747742,470
883.864563,475
883.981506,504
884.098389,471
884.21521,484
884.332153,479
884.448975,469
884.565796,501
884.682678,468
884.7995,469
884.916443,478
885.033264,478
885.150085,466
885.266968,488
885.383789,471
885.500671,477
885.617493,499
885.734314,455
885.851196,495
885.967896,474
886.084717,479
886.201599,467
886.318359,480
886.435181,471
886.552002,481
886.668762,482
886.785645,480
886.902344,483
887.019165,476
887.135925,476
887.252747,470
887.369446,483
887.486267,477
887.603027,475
887.719788,489
887.836548,485
887.953247,468
888.070068,484
888.186829,476
888.303528,480
888.420288,474
888.536987,479
888.653687,497
888.770447,479
888.887146,475
889.003967,476
889.120667,510
889.237305,472
889.354065,469
889.470703,475
889.587463,470
889.704163,491
889.820862,474
889.937561,472
890.054199,461
890.170837,495
890.287598,445
890.404236,462
890.520874,498
890.637634,498
890.754211,488
890.87085,471
890.987549,496
891.104187,484
891.220886,490
891.337463,497
891.454102,489
891.57074,450
891.687378,501
891.804077,467
891.920654,481
892.037231,475
892.15387,494
892.270447,486
892.387085,492
892.503723,481
892.6203,494
892.736877,468
892.853516,483
892.970032,496
893.08667,485
893.203186,496
893.319763,480
893.43634,485
893.552917,486
893.669556,481
893.786011,501
893.902588,494
894.019165,503
894.135681,477
894.252197,487
894.368835,481
894.485291,489
894.601868,481
894.718384,482
894.8349,489
894.951355,500
895.067932,485
895.184448,487
895.300964,500
895.417419,497
895.533936,491
895.650452,484
895.766907,493
895.883423,468
895.999878,478
896.116333,488
896.232849,481
896.349304,481
896.465759,504
896.582214,477
896.698669,474
896.815125,500
896.931641,479
897.048035,493
897.164551,481
897.280884,488
897.397339,482
897.513794,492
897.630249,495
897.746582,490
897.863098,500
897.979431,488
898.095886,494
898.212341,484
898.328674,482
898.445129,598
898.561462,3407
898.677795,458
898.794312,493
898.910645,472
899.026978,500
899.143433,483
899.259766,496
899.37616,486
899.492493,496
899.608765,486
899.725159,492
899.841553,489
899.957947,478
900.07428,481
900.190552,472
900.306946,490
900.423157,492
900.53949,506
900.655884,496
900.772156,492
900.888489,497
901.004822,498
901.121033,497
901.237366,473
901.353699,477
901.46991,506
901.586304,494
901.702515,487
901.818787,491
901.93512,494
902.051331,491
902.167603,487
902.283875,487
902.400085,493
902.516418,483
902.632629,472
902.74884,507
902.865112,501
902.981384,494
903.097595,504
903.213867,484
903.330017,492
903.446289,496
903.5625,499
903.67865,485
903.794922,493
903.911072,502
904.027344,508
904.143494,519
904.259705,500
904.375916,478
904.492065,501
904.608215,502
904.724426,501
904.840576,511
904.956726,489
905.072876,490
905.189087,493
905.305176,494
905.421387,496
905.537537,510
905.653687,484
905.769775,522
905.885925,477
906.002014,493
906.118164,487
906.234314,493
906.350403,482
906.466492,499
906.582642,505
906.69873,474
906.814758,522
906.930908,486
907.046936,499
907.163086,497
907.279175,490
907.395264,492
907.511353,478
907.62738,499
907.743408,499
907.859497,513
907.975525,483
908.091553,498
908.207703,508
908.32373,486
908.439758,489
908.555786,516
908.671814,512
908.787842,471
908.90387,496
909.019775,492
909.135864,484
909.251892,501
909.367859,497
909.483826,489
909.599854,481
909.715881,497
909.831848,496
909.947815,493
910.063782,498
910.179749,481
910.295776,497
910.411743,496
910.527649,485
910.643616,487
910.759583,493
910.875488,495
910.991455,495
911.107361,484
911.223267,488
911.339294,493
911.4552,504
911.571106,486
911.687073,482
911.802979,498
911.918823,518
912.034729,484
912.150635,482
912.266602,508
912.382446,512
912.498352,498
912.614197,498
912.730103,513
912.846008,516
792.44574,611
792.56488,632
792.68396,685
792.80304,630
792.92218,628
793.041199,594
793.160339,597
793.279419,632
793.398499,611
793.517578,601
793.636658,589
793.755737,606
793.874817,621
793.993896,591
794.112976,594
794.232056,588
794.351074,595
794.470215,576
794.589233,603
794.708313,574
794.827393,575
794.946411,569
795.065552,613
795.18457,600
795.303589,592
795.422668,597
795.541687,580
795.660767,596
795.779846,570
795.898865,578
796.017883,570
796.136963,576
796.255981,566
796.375061,580
796.49408,580
796.613037,574
796.732117,572
796.851135,575
796.970154,562
797.089233,580
797.208191,569
797.327271,579
797.446228,556
797.565186,563
797.684265,571
797.803223,579
797.922241,563
798.04126,566
798.160278,576
798.279297,583
798.398315,549
798.517273,559
798.636292,560
798.75531,554
798.874268,564
798.993286,570
799.112244,563
799.231323,556
799.350281,564
799.469238,572
799.588257,569
799.707153,614
799.826111,576
799.945129,586
800.064087,577
800.183044,582
800.302063,582
800.421021,582
800.539978,565
800.658936,575
800.777893,600
800.896912,592
801.015747,566
801.134705,589
801.253723,588
801.37262,569
801.491638,574
801.610535,555
801.729492,572
801.84845,573
801.967407,596
802.086243,583
802.205261,593
802.324158,576
802.443115,574
802.562073,595
802.680969,581
802.799927,598
802.918762,571
803.037659,561
803.156677,588
803.275574,587
803.39447,598
803.513428,571
803.632263,588
803.751221,577
803.870117,588
803.989014,610
804.107971,591
804.226746,595
804.345642,582
804.4646,594
804.583496,594
804.702393,588
804.821228,599
804.940125,581
805.059021,580
805.177917,584
805.296814,610
805.415649,599
805.534546,580
805.653442,593
805.772278,606
805.891113,602
806.01001,597
806.128906,625
806.247742,592
806.366577,617
806.485413,607
806.604309,593
806.723145,612
806.84198,588
806.960876,612
807.079712,599
807.198486,608
807.317383,620
807.436218,612
807.554993,610
807.673889,593
807.792725,618
807.91156,606
808.030396,618
808.14917,644
808.268005,600
808.386841,602
808.505676,601
808.624451,601
808.743286,622
808.862122,603
808.980896,596
809.099731,638
809.218506,605
809.337341,595
809.456116,598
809.57489,613
809.693726,605
809.8125,619
809.931274,619
810.050049,622
810.168884,604
810.287659,606
810.406372,617
810.525269,625
810.643982,626
810.762756,605
810.881531,623
811.000305,620
811.11908,647
811.237854,605
811.356567,632
811.475403,610
811.594116,601
811.71283,630
811.831604,650
811.950378,633
812.069153,616
812.187927,621
812.30658,617
812.425415,635
812.544128,607
812.662781,633
812.781616,623
812.900269,607
813.019043,638
813.137756,625
813.256531,627
813.375244,638
813.493896,642
813.612671,619
813.731384,610
813.850037,620
813.96875,628
814.087524,631
814.206238,609
814.324951,623
814.443604,620
814.562256,618
814.68103,587
814.799683,611
814.918335,612
815.037109,626
815.155762,606
815.274475,620
815.393188,614
815.511841,600
815.630554,603
815.749146,624
815.867859,615
815.986572,592
816.105164,618
816.223877,605
816.342529,595
816.461182,607
816.579895,586
816.698486,604
816.817139,608
816.935791,600
817.054504,615
817.173096,617
817.291748,609
817.4104,600
817.529053,597
817.647644,573
817.766235,580
817.884949,588
818.00354,559
818.122192,556
818.240845,538
818.359436,546
818.478088,558
818.59668,542
818.715271,527
818.833923,521
818.952515,531
819.071106,526
819.189758,507
819.30835,526
819.426941,515
819.545532,507
819.664124,514
819.782715,503
819.901306,511
820.019897,500
820.138489,523
820.25708,500
820.375671,489
820.494202,502
820.612732,483
820.731384,486
820.849915,479
820.968506,474
821.087097,497
821.205627,482
821.324158,486
821.442749,483
821.561279,515
821.679871,470
821.798401,495
821.916931,487
822.035461,485
822.154053,468
822.272583,506
822.391174,489
822.509583,486
822.628174,475
822.746704,471
822.865234,469
822.983765,502
823.102295,496
823.220825,491
823.339294,464
823.457825,499
823.576355,481
823.694824,485
823.813354,492
823.931885,499
824.050354,482
824.168884,475
824.287354,500
824.405823,486
824.524353,479
824.642822,486
824.761353,478
824.879822,486
824.998291,498
825.116699,480
825.235291,512
825.353699,478
825.472168,460
825.590637,462
825.709106,466
825.827576,484
825.946045,482
826.064453,474
826.182983,458
826.301392,489
826.4198,479
826.53833,461
826.656738,476
826.775208,472
826.893677,477
827.012024,473
827.130493,493
827.248962,482
827.36731,478
827.485779,486
827.604248,472
827.722595,462
827.841064,463
827.959412,482
828.077942,472
828.196289,474
828.314636,450
828.433105,469
828.551514,454
828.669861,463
828.78833,469
828.906677,478
829.025085,462
829.143433,477
829.261841,455
829.38031,470
829.498657,476
829.617004,444
829.735413,479
829.85376,478
829.972107,460
830.090515,452
830.208862,472
830.327209,480
830.445557,441
830.563904,485
830.682312,474
830.800659,487
830.919006,459
831.037354,456
831.155701,465
831.274048,456
831.392395,485
831.51062,464
831.629028,468
831.747314,455
831.865662,456
831.984009,468
832.102356,460
832.220642,479
832.338928,467
832.457275,461
832.575623,449
832.693909,481
832.812134,455
832.930481,463
833.048828,471
833.167114,465
833.2854,476
833.403687,469
833.521973,463
833.640259,471
833.758545,452
833.876831,468
833.995056,452
834.113281,475
834.231628,463
834.349915,445
834.468201,464
834.586426,468
834.704651,468
834.822998,464
834.941162,453
835.059448,460
835.177673,457
835.295959,481
835.414246,453
835.53241,448
835.650635,461
835.768921,475
835.887146,469
836.005371,457
836.123596,470
836.241821,463
836.360046,470
836.478271,454
836.596497,456
836.714722,474
836.832886,474
836.95105,495
837.069336,471
837.1875,474
837.305725,473
837.423889,491
837.542053,474
837.660339,483
837.778503,481
837.896667,487
838.014832,474
838.132996,472
838.25116,472
838.369385,482
838.487488,468
838.605713,480
838.723877,475
838.84198,483
838.960205,479
839.078308,457
839.196472,464
839.314636,495
839.4328,474
839.550964,481
839.669067,465
839.787231,485
839.905396,476
840.023499,465
840.141602,487
840.259766,459
840.377869,461
840.495972,461
840.614136,476
840.732239,468
840.850342,476
840.968445,469
841.086548,463
841.204651,466
841.322754,479
841.440918,469
841.55896,450
841.677002,480
841.795166,450
841.913208,470
842.031311,472
842.149353,463
842.267456,431
842.385498,463
842.503601,465
842.621643,460
842.739746,464
842.857788,458
842.97583,480
843.093933,461
843.211975,466
843.330017,459
843.44812,440
843.566101,466
843.684204,464
843.802246,446
843.920227,466
844.038269,471
844.156311,463
844.274292,450
844.392395,439
844.510376,456
844.628357,459
844.74646,469
844.864441,457
844.982422,458
845.100403,458
845.218384,467
845.336426,457
845.454468,445
845.572449,451
845.69043,463
845.808411,471
845.926453,458
846.044373,446
846.162354,452
846.280396,471
846.398315,456
846.516296,446
846.634216,450
846.752197,456
846.870178,453
846.988098,443
847.106079,470
847.22406,443
847.34198,439
847.4599,471
847.577881,454
847.695801,463
847.813782,464
847.931641,447
848.049561,463
848.167603,444
848.285461,453
848.403381,447
848.521362,448
848.639221,439
848.75708,454
848.875,458
848.99292,473
849.110901,472
849.22876,467
849.34668,458
849.464539,447
849.582458,464
849.700317,454
849.818176,463
849.936096,462
850.053955,443
850.171875,461
850.289673,446
850.407593,447
850.525452,462
850.643311,472
850.761169,453
850.878967,448
850.996887,466
851.114746,475
851.232544,457
851.350403,464
851.468262,462
851.58606,457
851.703979,454
851.821777,456
851.939636,449
852.057434,475
852.175232,462
852.293091,459
852.410889,457
852.528687,456
852.646545,467
852.764343,472
852.88208,449
852.999939,463
853.117676,464
853.235535,455
853.353271,468
853.471069,475
853.588928,469
853.706604,449
853.824402,458
853.9422,458
854.059998,463
854.177734,466
854.295532,452
854.413269,452
854.531006,478
854.648804,453
854.766541,454
854.884277,473
855.002014,469
855.119751,475
855.237549,461
855.355225,448
855.473022,448
855.590698,467
855.708435,453
855.826172,460
855.943848,473
856.061646,475
856.179321,467
856.296997,464
856.414795,472
856.53241,467
856.650085,463
856.767822,451
856.885559,454
857.003174,484
857.120911,478
857.238586,460
857.356201,473
857.473938,470
857.591614,473
857.709351,489
857.826965,482
857.944641,472
858.062317,456
858.179993,472
858.297668,468
858.415283,481
858.532959,444
858.650574,478
858.768188,450
858.885803,450
859.003479,458
859.121094,476
859.23877,449
859.356384,461
859.473999,467
859.591675,465
859.709229,454
859.826843,447
859.944458,468
860.062012,477
860.179626,457
860.297302,480
860.414856,464
860.532471,458
860.650024,481
860.767639,468
860.885193,459
861.002808,459
861.120361,471
861.237976,456
861.35553,462
861.473022,486
861.590698,460
861.708191,468
861.825745,472
861.943298,460
862.060852,455
862.178406,468
862.295959,469
862.413513,485
862.531006,458
862.64856,444
862.766113,478
862.883667,469
863.00116,455
863.118713,461
863.236206,460
863.353699,471
863.471252,478
863.588745,453
863.706177,457
863.82373,462
863.941162,472
864.058716,474
864.176208,471
864.29364,450
864.411194,464
864.528687,493
864.646118,452
864.763611,455
864.881042,494
864.998535,458
865.116028,475
865.233459,464
865.350891,472
865.468384,480
865.585754,470
865.703308,472
865.820679,452
865.938171,476
866.055542,472
866.173035,468
866.290466,454
866.407837,483
866.52533,458
866.6427,474
866.760071,476
866.877563,480
866.994934,461
867.112305,480
867.229736,498
867.347107,479
867.464539,471
867.58197,476
867.699341,460
867.81665,478
867.934082,446
868.051453,472
868.168823,471
868.286194,454
868.403564,456
868.520935,449
868.638306,461
868.755676,477
868.872986,483
868.990295,459
869.107727,468
869.225037,479
869.342346,446
869.459717,468
869.577026,463
869.694336,456
869.811707,474
869.929016,473
870.046326,469
870.163635,473
870.280945,479
870.398254,478
870.515564,453
870.632812,471
870.750183,484
870.867432,471
870.984741,472
871.102051,458
871.219299,458
871.336609,464
871.453918,471
871.571106,485
871.688416,491
871.805664,445
871.922852,462
872.040222,474
872.157471,459
872.274719,460
872.391968,475
872.509155,466
872.626465,469
872.743652,468
872.860962,482
872.978149,467
873.095337,485
873.212646,455
873.329834,454
873.44696,459
873.564209,459
873.681396,471
873.798645,473
873.915894,469
874.03302,463
874.150208,478
874.267456,467
874.384583,459
874.501831,468
874.618958,463
874.736145,490
874.853333,468
874.970459,471
875.087646,480
875.204834,461
875.32196,467
875.439148,474
875.556274,463
875.673401,470
875.790527,475
875.907715,468
876.024841,459
876.141968,457
876.259094,469
876.376282,462
876.493347,470
876.610474,449
876.7276,459
876.844727,477
876.961853,472
877.078918,492
877.195984,466
877.313171,455
877.430237,464
877.547302,459
877.664368,465
877.781433,488
877.898499,471
878.015625,478
878.13269,488
878.249695,469
878.366821,498
878.483887,447
878.600952,476
878.717957,462
878.834961,469
878.952087,478
879.069092,495
879.186157,458
879.303162,470
879.420227,464
879.537231,480
879.654236,480
879.77124,496
879.888306,444
880.005249,472
880.122314,445
880.239319,490
880.356323,471
880.473328,457
880.590271,479
880.707275,487
880.824341,471
880.941284,481
881.058228,488
881.175232,492
881.292236,464
881.40918,470
881.526123,476
881.643066,489
881.760071,476
881.877014,481
881.993958,470
882.11084,481
882.227783,474
882.344727,472
882.46167,478
882.578613,477
882.695618,484
882.812439,474
882.929382,474
883.046326,474
883.163208,481
883.280151,486
883.397034,472
883.513916,467
883.630798,471
883.747742,470
883.864563,472
883.981506,470
884.098389,468
884.21521,466
884.332153,463
884.448975,482
884.565796,477
884.682678,497
884.7995,477
884.916443,474
885.033264,479
885.150085,478
885.266968,461
885.383789,478
885.500671,476
885.617493,473
885.734314,457
885.851196,478
885.967896,475
886.084717,454
886.201599,503
886.318359,470
886.435181,476
886.552002,487
886.668762,504
886.785645,479
886.902344,465
887.019165,482
887.135925,482
887.252747,501
887.369446,486
887.486267,476
887.603027,458
887.719788,494
887.836548,487
887.953247,479
888.070068,468
888.186829,498
888.303528,462
888.420288,470
888.536987,486
888.653687,467
888.770447,492
888.887146,487
889.003967,478
889.120667,481
889.237305,466
889.354065,480
889.470703,498
889.587463,479
889.704163,475
889.820862,466
889.937561,496
890.054199,467
890.170837,450
890.287598,481
890.404236,483
890.520874,490
890.637634,486
890.754211,490
890.87085,494
890.987549,482
891.104187,497
891.220886,486
891.337463,474
891.454102,481
891.57074,484
891.687378,497
891.804077,492
891.920654,494
892.037231,479
892.15387,480
892.270447,492
892.387085,488
892.503723,486
892.6203,487
892.736877,499
892.853516,476
892.970032,490
893.08667,478
893.203186,466
893.319763,497
893.43634,485
893.552917,480
893.669556,479
893.786011,504
893.902588,482
894.019165,469
894.135681,493
894.252197,500
894.368835,485
894.485291,483
894.601868,493
894.718384,485
894.8349,490
894.951355,490
895.067932,476
895.184448,485
895.300964,481
895.417419,501
895.533936,478
895.650452,478
895.766907,472
895.883423,486
895.999878,481
896.116333,498
896.232849,489
896.349304,485
896.465759,489
896.582214,474
896.698669,495
896.815125,482
896.931641,480
897.048035,488
897.164551,491
897.280884,504
897.397339,498
897.513794,489
897.630249,486
897.746582,480
897.863098,513
897.979431,470
898.095886,503
898.212341,491
898.328674,488
898.445129,473
898.561462,478
898.677795,495
898.794312,481
898.910645,501
899.026978,464
899.143433,492
899.259766,492
899.37616,481
899.492493,493
899.608765,509
899.725159,499
899.841553,524
899.957947,488
900.07428,501
900.190552,500
900.306946,481
900.423157,519
900.53949,504
900.655884,470
900.772156,502
900.888489,487
901.004822,525
901.121033,486
901.237366,501
901.353699,472
901.46991,488
901.586304,498
901.702515,493
901.818787,478
901.93512,480
902.051331,466
902.167603,488
902.283875,482
902.400085,502
902.516418,480
902.632629,506
902.74884,515
902.865112,497
902.981384,472
903.097595,498
903.213867,483
903.330017,501
903.446289,497
903.5625,499
903.67865,468
903.794922,481
903.911072,498
904.027344,510
904.143494,513
904.259705,492
904.375916,472
904.492065,507
904.608215,484
904.724426,493
904.840576,494
904.956726,498
905.072876,485
905.189087,498
905.305176,487
905.421387,492
905.537537,504
905.653687,496
905.769775,483
905.885925,495
906.002014,473
906.118164,479
906.234314,495
906.350403,499
906.466492,511
906.582642,492
906.69873,494
906.814758,494
906.930908,490
907.046936,482
907.163086,498
907.279175,477
907.395264,513
907.511353,499
907.62738,506
907.743408,499
907.859497,499
907.975525,512
908.091553,485
908.207703,495
908.32373,521
908.439758,506
908.555786,493
908.671814,482
908.787842,487
908.90387,501
909.019775,498
909.135864,499
909.251892,499
909.367859,503
909.483826,494
909.599854,488
909.715881,501
909.831848,472
909.947815,502
910.063782,499
910.179749,496
910.295776,503
910.411743,517
910.527649,499
910.643616,498
910.759583,503
910.875488,505
910.991455,495
911.107361,494
911.223267,514
911.339294,496
911.4552,477
911.571106,499
911.687073,506
911.802979,484
911.918823,491
912.034729,500
912.150635,494
912.266602,499
912.382446,509
912.498352,493
912.614197,508
912.730103,493
912.846008,492
