792.44574,607
792.56488,623
792.68396,697
792.80304,648
792.92218,625
793.041199,601
793.160339,601
793.279419,614
793.398499,620
793.517578,585
793.636658,581
793.755737,595
793.874817,618
793.993896,621
794.112976,624
794.232056,551
794.351074,578
794.470215,585
794.589233,581
794.708313,582
794.827393,578
794.946411,600
795.065552,593
795.18457,546
795.303589,582
795.422668,571
795.541687,547
795.660767,567
795.779846,576
795.898865,568
796.017883,579
796.136963,556
796.255981,578
796.375061,557
796.49408,581
796.613037,559
796.732117,549
796.851135,555
796.970154,564
797.089233,558
797.208191,549
797.327271,567
797.446228,560
797.565186,563
797.684265,543
797.803223,559
797.922241,539
798.04126,552
798.160278,553
798.279297,557
798.398315,539
798.517273,543
798.636292,536
798.75531,530
798.874268,551
798.993286,561
799.112244,542
799.231323,553
799.350281,559
799.469238,559
799.588257,558
799.707153,559
799.826111,568
799.945129,540
800.064087,562
800.183044,536
800.302063,551
800.421021,532
800.539978,554
800.658936,541
800.777893,556
800.896912,554
801.015747,561
801.134705,529
801.253723,541
801.37262,548
801.491638,563
801.610535,550
801.729492,534
801.84845,555
801.967407,532
802.086243,570
802.205261,563
802.324158,551
802.443115,549
802.562073,581
802.680969,562
802.799927,575
802.918762,558
803.037659,547
803.156677,581
803.275574,551
803.39447,560
803.513428,549
803.632263,559
803.751221,561
803.870117,573
803.989014,568
804.107971,570
804.226746,565
804.345642,563
804.4646,560
804.583496,553
804.702393,582
804.821228,548
804.940125,564
805.059021,562
805.177917,562
805.296814,567
805.415649,579
805.534546,584
805.653442,573
805.772278,559
805.891113,565
806.01001,560
806.128906,568
806.247742,582
806.366577,571
806.485413,556
806.604309,579
806.723145,575
806.84198,568
806.960876,582
807.079712,592
807.198486,565
807.317383,587
807.436218,573
807.554993,569
807.673889,567
807.792725,567
807.91156,587
808.030396,572
808.14917,563
808.268005,568
808.386841,577
808.505676,573
808.624451,574
808.743286,552
808.862122,609
808.980896,587
809.099731,577
809.218506,585
809.337341,577
809.456116,580
809.57489,582
809.693726,590
809.8125,582
809.931274,573
810.050049,584
810.168884,568
810.287659,583
810.406372,590
810.525269,563
810.643982,596
810.762756,597
810.881531,604
811.000305,579
811.11908,582
811.237854,558
811.356567,578
811.475403,597
811.594116,579
811.71283,580
811.831604,581
811.950378,587
812.069153,591
812.187927,580
812.30658,601
812.425415,557
812.544128,589
812.662781,580
812.781616,594
812.900269,580
813.019043,564
813.137756,596
813.256531,587
813.375244,592
813.493896,594
813.612671,597
813.731384,586
813.850037,590
813.96875,592
814.087524,600
814.206238,570
814.324951,566
814.443604,591
814.562256,595
814.68103,589
814.799683,584
814.918335,581
815.037109,562
815.155762,577
815.274475,587
815.393188,573
815.511841,585
815.630554,586
815.749146,566
815.867859,575
815.986572,567
816.105164,566
816.223877,574
816.342529,568
816.461182,564
816.579895,572
816.698486,565
816.817139,560
816.935791,571
817.054504,570
817.173096,569
817.291748,558
817.4104,553
817.529053,563
817.647644,532
817.766235,553
817.884949,557
818.00354,532
818.122192,534
818.240845,548
818.359436,529
818.478088,525
818.59668,511
818.715271,505
818.833923,517
818.952515,508
819.071106,515
819.189758,517
819.30835,506
819.426941,530
819.545532,500
819.664124,508
819.782715,495
819.901306,491
820.019897,511
820.138489,502
820.25708,498
820.375671,492
820.494202,475
820.612732,504
820.731384,492
820.849915,496
820.968506,482
821.087097,481
821.205627,495
821.324158,484
821.442749,503
821.561279,499
821.679871,486
821.798401,486
821.916931,493
822.035461,484
822.154053,491
822.272583,480
822.391174,456
822.509583,479
822.628174,485
822.746704,488
822.865234,471
822.983765,486
823.102295,461
823.220825,472
823.339294,472
823.457825,483
823.576355,478
823.694824,478
823.813354,503
823.931885,469
824.050354,479
824.168884,497
824.287354,482
824.405823,484
824.524353,478
824.642822,473
824.761353,488
824.879822,487
824.998291,483
825.116699,493
825.235291,489
825.353699,486
825.472168,481
825.590637,466
825.709106,464
825.827576,466
825.946045,461
826.064453,473
826.182983,475
826.301392,455
826.4198,456
826.53833,470
826.656738,435
826.775208,461
826.893677,471
827.012024,464
827.130493,484
827.248962,454
827.36731,460
827.485779,459
827.604248,471
827.722595,466
827.841064,470
827.959412,468
828.077942,478
828.196289,445
828.314636,481
828.433105,472
828.551514,455
828.669861,452
828.78833,464
828.906677,465
829.025085,455
829.143433,454
829.261841,448
829.38031,449
829.498657,466
829.617004,470
829.735413,462
829.85376,466
829.972107,447
830.090515,456
830.208862,458
830.327209,469
830.445557,474
830.563904,465
830.682312,466
830.800659,470
830.919006,442
831.037354,456
831.155701,473
831.274048,467
831.392395,481
831.51062,462
831.629028,482
831.747314,455
831.865662,468
831.984009,468
832.102356,459
832.220642,452
832.338928,469
832.457275,467
832.575623,460
832.693909,463
832.812134,467
832.930481,464
833.048828,457
833.167114,468
833.2854,470
833.403687,463
833.521973,449
833.640259,483
833.758545,476
833.876831,449
833.995056,465
834.113281,460
834.231628,454
834.349915,449
834.468201,445
834.586426,472
834.704651,461
834.822998,459
834.941162,442
835.059448,465
835.177673,466
835.295959,462
835.414246,469
835.53241,453
835.650635,460
835.768921,458
835.887146,459
836.005371,471
836.123596,477
836.241821,478
836.360046,462
836.478271,461
836.596497,464
836.714722,468
836.832886,485
836.95105,463
837.069336,468
837.1875,462
837.305725,481
837.423889,475
837.542053,479
837.660339,472
837.778503,464
837.896667,464
838.014832,483
838.132996,474
838.25116,485
838.369385,468
838.487488,450
838.605713,485
838.723877,472
838.84198,482
838.960205,487
839.078308,469
839.196472,454
839.314636,484
839.4328,472
839.550964,486
839.669067,459
839.787231,485
839.905396,451
840.023499,463
840.141602,466
840.259766,465
840.377869,480
840.495972,463
840.614136,472
840.732239,481
840.850342,457
840.968445,468
841.086548,456
841.204651,469
841.322754,471
841.440918,461
841.55896,460
841.677002,470
841.795166,460
841.913208,441
842.031311,477
842.149353,466
842.267456,460
842.385498,460
842.503601,466
842.621643,445
842.739746,476
842.857788,464
842.97583,435
843.093933,468
843.211975,468
843.330017,461
843.44812,447
843.566101,475
843.684204,434
843.802246,446
843.920227,459
844.038269,469
844.156311,443
844.274292,453
844.392395,450
844.510376,478
844.628357,480
844.74646,468
844.864441,460
844.982422,464
845.100403,453
845.218384,465
845.336426,477
845.454468,467
845.572449,450
845.69043,467
845.808411,476
845.926453,459
846.044373,465
846.162354,478
846.280396,467
846.398315,442
846.516296,464
846.634216,458
846.752197,451
846.870178,454
846.988098,446
847.106079,441
847.22406,460
847.34198,490
847.4599,463
847.577881,460
847.695801,456
847.813782,467
847.931641,464
848.049561,444
848.167603,447
848.285461,472
848.403381,472
848.521362,467
848.639221,460
848.75708,488
848.875,466
848.99292,458
849.110901,465
849.22876,463
849.34668,453
849.464539,451
849.582458,458
849.700317,457
849.818176,455
849.936096,454
850.053955,472
850.171875,467
850.289673,461
850.407593,464
850.525452,466
850.643311,467
850.761169,456
850.878967,455
850.996887,473
851.114746,468
851.232544,449
851.350403,440
851.468262,476
851.58606,436
851.703979,472
851.821777,459
851.939636,470
852.057434,455
852.175232,468
852.293091,461
852.410889,453
852.528687,457
852.646545,467
852.764343,468
852.88208,480
852.999939,477
853.117676,470
853.235535,465
853.353271,457
853.471069,467
853.588928,472
853.706604,473
853.824402,460
853.9422,464
854.059998,436
854.177734,476
854.295532,463
854.413269,447
854.531006,439
854.648804,457
854.766541,452
854.884277,472
855.002014,453
855.119751,464
855.237549,466
855.355225,448
855.473022,446
855.590698,477
855.708435,471
855.826172,459
855.943848,470
856.061646,473
856.179321,480
856.296997,456
856.414795,461
856.53241,466
856.650085,450
856.767822,473
856.885559,462
857.003174,450
857.120911,446
857.238586,466
857.356201,462
857.473938,472
857.591614,446
857.709351,472
857.826965,472
857.944641,450
858.062317,458
858.179993,447
858.297668,444
858.415283,482
858.532959,476
858.650574,478
858.768188,464
858.885803,455
859.003479,465
859.121094,475
859.23877,443
859.356384,469
859.473999,464
859.591675,478
859.709229,474
859.826843,454
859.944458,473
860.062012,474
860.179626,460
860.297302,482
860.414856,467
860.532471,473
860.650024,454
860.767639,473
860.885193,461
861.002808,462
861.120361,458
861.237976,468
861.35553,455
861.473022,448
861.590698,473
861.708191,457
861.825745,460
861.943298,469
862.060852,446
862.178406,468
862.295959,469
862.413513,467
862.531006,464
862.64856,447
862.766113,471
862.883667,448
863.00116,461
863.118713,485
863.236206,468
863.353699,452
863.471252,455
863.588745,452
863.706177,456
863.82373,462
863.941162,460
864.058716,470
864.176208,457
864.29364,463
864.411194,460
864.528687,469
864.646118,450
864.763611,463
864.881042,460
864.998535,448
865.116028,458
865.233459,450
865.350891,481
865.468384,462
865.585754,453
865.703308,445
865.820679,452
865.938171,460
866.055542,422
866.173035,476
866.290466,477
866.407837,456
866.52533,450
866.6427,480
866.760071,456
866.877563,466
866.994934,474
867.112305,449
867.229736,476
867.347107,463
867.464539,465
867.58197,447
867.699341,471
867.81665,467
867.934082,477
868.051453,437
868.168823,445
868.286194,459
868.403564,474
868.520935,472
868.638306,466
868.755676,478
868.872986,471
868.990295,477
869.107727,450
869.225037,461
869.342346,445
869.459717,460
869.577026,488
869.694336,472
869.811707,479
869.929016,466
870.046326,450
870.163635,485
870.280945,457
870.398254,473
870.515564,460
870.632812,460
870.750183,487
870.867432,462
870.984741,476
871.102051,463
871.219299,477
871.336609,471
871.453918,445
871.571106,481
871.688416,443
871.805664,473
871.922852,479
872.040222,462
872.157471,453
872.274719,461
872.391968,461
872.509155,460
872.626465,460
872.743652,474
872.860962,452
872.978149,469
873.095337,491
873.212646,468
873.329834,457
873.44696,464
873.564209,465
873.681396,502
873.798645,474
873.915894,479
874.03302,461
874.150208,489
874.267456,473
874.384583,460
874.501831,471
874.618958,474
874.736145,471
874.853333,474
874.970459,481
875.087646,495
875.204834,438
875.32196,476
875.439148,465
875.556274,482
875.673401,456
875.790527,466
875.907715,459
876.024841,468
876.141968,456
876.259094,468
876.376282,473
876.493347,470
876.610474,480
876.7276,479
876.844727,457
876.961853,467
877.078918,464
877.195984,465
877.313171,463
877.430237,485
877.547302,480
877.664368,467
877.781433,461
877.898499,479
878.015625,460
878.13269,477
878.249695,482
878.366821,471
878.483887,461
878.600952,448
878.717957,461
878.834961,461
878.952087,467
879.069092,467
879.186157,473
879.303162,466
879.420227,479
879.537231,478
879.654236,465
879.77124,471
879.888306,462
880.005249,475
880.122314,481
880.239319,476
880.356323,470
880.473328,496
880.590271,468
880.707275,477
880.824341,461
880.941284,473
881.058228,468
881.175232,481
881.292236,497
881.40918,464
881.526123,461
881.643066,480
881.760071,479
881.877014,466
881.993958,456
882.11084,463
882.227783,475
882.344727,454
882.46167,461
882.578613,461
882.695618,474
882.812439,449
882.929382,474
883.046326,480
883.163208,463
883.280151,470
883.397034,463
883.513916,470
883.630798,455
883.747742,464
883.864563,457
883.981506,459
884.098389,477
884.21521,474
884.332153,470
884.448975,495
884.565796,467
884.682678,481
884.7995,465
884.916443,477
885.033264,454
885.150085,497
885.266968,483
885.383789,482
885.500671,478
885.617493,493
885.734314,479
885.851196,483
885.967896,476
886.084717,465
886.201599,471
886.318359,491
886.435181,479
886.552002,475
886.668762,469
886.785645,488
886.902344,490
887.019165,469
887.135925,489
887.252747,476
887.369446,481
887.486267,480
887.603027,471
887.719788,485
887.836548,460
887.953247,477
888.070068,470
888.186829,466
888.303528,461
888.420288,457
888.536987,470
888.653687,496
888.770447,482
888.887146,483
889.003967,465
889.120667,501
889.237305,487
889.354065,475
889.470703,474
889.587463,477
889.704163,501
889.820862,460
889.937561,478
890.054199,459
890.170837,506
890.287598,486
890.404236,456
890.520874,480
890.637634,467
890.754211,470
890.87085,471
890.987549,481
891.104187,471
891.220886,450
891.337463,480
891.454102,483
891.57074,482
891.687378,470
891.804077,476
891.920654,477
892.037231,481
892.15387,484
892.270447,458
892.387085,490
892.503723,477
892.6203,482
892.736877,468
892.853516,461
892.970032,462
893.08667,483
893.203186,474
893.319763,487
893.43634,462
893.552917,492
893.669556,470
893.786011,466
893.902588,469
894.019165,481
894.135681,496
894.252197,490
894.368835,471
894.485291,462
894.601868,488
894.718384,489
894.8349,480
894.951355,481
895.067932,470
895.184448,483
895.300964,495
895.417419,481
895.533936,474
895.650452,477
895.766907,483
895.883423,483
895.999878,459
896.116333,463
896.232849,479
896.349304,491
896.465759,455
896.582214,485
896.698669,475
896.815125,496
896.931641,463
897.048035,471
897.164551,471
897.280884,477
897.397339,494
897.513794,466
897.630249,482
897.746582,476
897.863098,482
897.979431,468
898.095886,489
898.212341,495
898.328674,471
898.445129,486
898.561462,470
898.677795,478
898.794312,449
898.910645,491
899.026978,494
899.143433,509
899.259766,479
899.37616,477
899.492493,488
899.608765,490
899.725159,467
899.841553,461
899.957947,462
900.07428,483
900.190552,458
900.306946,486
900.423157,461
900.53949,484
900.655884,476
900.772156,488
900.888489,499
901.004822,479
901.121033,474
901.237366,483
901.353699,482
901.46991,492
901.586304,468
901.702515,490
901.818787,487
901.93512,479
902.051331,478
902.167603,486
902.283875,479
902.400085,494
902.516418,475
902.632629,496
902.74884,488
902.865112,481
902.981384,476
903.097595,481
903.213867,483
903.330017,481
903.446289,464
903.5625,482
903.67865,474
903.794922,470
903.911072,453
904.027344,487
904.143494,495
904.259705,479
904.375916,475
904.492065,489
904.608215,499
904.724426,520
904.840576,479
904.956726,498
905.072876,482
905.189087,482
905.305176,471
905.421387,499
905.537537,492
905.653687,483
905.769775,470
905.885925,486
906.002014,475
906.118164,511
906.234314,474
906.350403,489
906.466492,481
906.582642,477
906.69873,478
906.814758,494
906.930908,493
907.046936,485
907.163086,491
907.279175,487
907.395264,481
907.511353,487
907.62738,472
907.743408,485
907.859497,486
907.975525,482
908.091553,481
908.207703,487
908.32373,481
908.439758,491
908.555786,471
908.671814,477
908.787842,484
908.90387,501
909.019775,478
909.135864,490
909.251892,495
909.367859,490
909.483826,500
909.599854,485
909.715881,498
909.831848,498
909.947815,476
910.063782,494
910.179749,515
910.295776,497
910.411743,483
910.527649,485
910.643616,482
910.759583,481
910.875488,476
910.991455,480
911.107361,495
911.223267,474
911.339294,512
911.4552,478
911.571106,485
911.687073,492
911.802979,480
911.918823,486
912.034729,471
912.150635,490
912.266602,493
912.382446,493
912.498352,477
912.614197,459
912.730103,505
912.846008,496
792.44574,635
792.56488,658
792.68396,703
792.80304,663
792.92218,618
793.041199,619
793.160339,609
793.279419,600
793.398499,598
793.517578,589
793.636658,598
793.755737,594
793.874817,610
793.993896,604
794.112976,599
794.232056,568
794.351074,609
794.470215,582
794.589233,575
794.708313,591
794.827393,574
794.946411,571
795.065552,619
795.18457,565
795.303589,580
795.422668,559
795.541687,567
795.660767,579
795.779846,557
795.898865,577
796.017883,566
796.136963,583
796.255981,564
796.375061,565
796.49408,578
796.613037,548
796.732117,550
796.851135,558
796.970154,560
797.089233,574
797.208191,567
797.327271,557
797.446228,558
797.565186,556
797.684265,559
797.803223,557
797.922241,572
798.04126,555
798.160278,557
798.279297,551
798.398315,559
798.517273,548
798.636292,545
798.75531,551
798.874268,535
798.993286,554
799.112244,542
799.231323,556
799.350281,549
799.469238,554
799.588257,560
799.707153,542
799.826111,555
799.945129,542
800.064087,530
800.183044,556
800.302063,544
800.421021,557
800.539978,561
800.658936,575
800.777893,571
800.896912,548
801.015747,540
801.134705,553
801.253723,575
801.37262,544
801.491638,553
801.610535,563
801.729492,547
801.84845,557
801.967407,548
802.086243,559
802.205261,564
802.324158,555
802.443115,567
802.562073,578
802.680969,546
802.799927,566
802.918762,557
803.037659,575
803.156677,555
803.275574,542
803.39447,550
803.513428,568
803.632263,526
803.751221,553
803.870117,556
803.989014,560
804.107971,551
804.226746,569
804.345642,571
804.4646,545
804.583496,574
804.702393,559
804.821228,553
804.940125,590
805.059021,571
805.177917,566
805.296814,587
805.415649,560
805.534546,555
805.653442,565
805.772278,571
805.891113,547
806.01001,584
806.128906,580
806.247742,584
806.366577,584
806.485413,578
806.604309,588
806.723145,577
806.84198,566
806.960876,554
807.079712,593
807.198486,574
807.317383,572
807.436218,589
807.554993,588
807.673889,605
807.792725,579
807.91156,577
808.030396,586
808.14917,571
808.268005,588
808.386841,583
808.505676,575
808.624451,561
808.743286,589
808.862122,599
808.980896,570
809.099731,563
809.218506,581
809.337341,588
809.456116,572
809.57489,600
809.693726,582
809.8125,567
809.931274,591
810.050049,584
810.168884,590
810.287659,582
810.406372,611
810.525269,586
810.643982,584
810.762756,577
810.881531,590
811.000305,578
811.11908,594
811.237854,581
811.356567,597
811.475403,581
811.594116,573
811.71283,595
811.831604,593
811.950378,599
812.069153,561
812.187927,581
812.30658,607
812.425415,588
812.544128,573
812.662781,586
812.781616,610
812.900269,595
813.019043,575
813.137756,583
813.256531,616
813.375244,591
813.493896,605
813.612671,568
813.731384,596
813.850037,601
813.96875,610
814.087524,582
814.206238,575
814.324951,591
814.443604,583
814.562256,563
814.68103,597
814.799683,574
814.918335,571
815.037109,610
815.155762,580
815.274475,568
815.393188,569
815.511841,576
815.630554,577
815.749146,582
815.867859,594
815.986572,552
816.105164,564
816.223877,571
816.342529,593
816.461182,563
816.579895,586
816.698486,551
816.817139,591
816.935791,581
817.054504,570
817.173096,572
817.291748,576
817.4104,576
817.529053,558
817.647644,547
817.766235,544
817.884949,560
818.00354,556
818.122192,553
818.240845,535
818.359436,528
818.478088,541
818.59668,503
818.715271,511
818.833923,502
818.952515,490
819.071106,497
819.189758,490
819.30835,507
819.426941,488
819.545532,497
819.664124,506
819.782715,487
819.901306,487
820.019897,484
820.138489,511
820.25708,493
820.375671,493
820.494202,472
820.612732,516
820.731384,478
820.849915,476
820.968506,478
821.087097,474
821.205627,504
821.324158,488
821.442749,513
821.561279,502
821.679871,480
821.798401,501
821.916931,483
822.035461,495
822.154053,491
822.272583,483
822.391174,485
822.509583,495
822.628174,474
822.746704,488
822.865234,476
822.983765,469
823.102295,465
823.220825,477
823.339294,466
823.457825,477
823.576355,492
823.694824,470
823.813354,474
823.931885,496
824.050354,479
824.168884,477
824.287354,481
824.405823,478
824.524353,507
824.642822,493
824.761353,490
824.879822,467
824.998291,493
825.116699,480
825.235291,473
825.353699,485
825.472168,471
825.590637,478
825.709106,474
825.827576,449
825.946045,479
826.064453,482
826.182983,484
826.301392,485
826.4198,501
826.53833,475
826.656738,466
826.775208,471
826.893677,472
827.012024,469
827.130493,482
827.248962,464
827.36731,478
827.485779,465
827.604248,464
827.722595,481
827.841064,456
827.959412,460
828.077942,468
828.196289,442
828.314636,460
828.433105,461
828.551514,470
828.669861,469
828.78833,483
828.906677,461
829.025085,473
829.143433,457
829.261841,448
829.38031,481
829.498657,457
829.617004,461
829.735413,453
829.85376,469
829.972107,450
830.090515,454
830.208862,454
830.327209,469
830.445557,481
830.563904,458
830.682312,466
830.800659,457
830.919006,451
831.037354,458
831.155701,456
831.274048,464
831.392395,450
831.51062,457
831.629028,470
831.747314,469
831.865662,475
831.984009,454
832.102356,461
832.220642,477
832.338928,463
832.457275,455
832.575623,481
832.693909,463
832.812134,444
832.930481,456
833.048828,446
833.167114,447
833.2854,461
833.403687,452
833.521973,460
833.640259,457
833.758545,463
833.876831,460
833.995056,445
834.113281,464
834.231628,452
834.349915,450
834.468201,476
834.586426,457
834.704651,472
834.822998,461
834.941162,463
835.059448,459
835.177673,439
835.295959,461
835.414246,463
835.53241,447
835.650635,455
835.768921,465
835.887146,484
836.005371,467
836.123596,445
836.241821,470
836.360046,454
836.478271,474
836.596497,459
836.714722,494
836.832886,464
836.95105,469
837.069336,475
837.1875,467
837.305725,453
837.423889,477
837.542053,462
837.660339,461
837.778503,467
837.896667,482
838.014832,467
838.132996,466
838.25116,465
838.369385,476
838.487488,463
838.605713,464
838.723877,473
838.84198,476
838.960205,486
839.078308,467
839.196472,456
839.314636,470
839.4328,469
839.550964,470
839.669067,470
839.787231,470
839.905396,466
840.023499,459
840.141602,458
840.259766,457
840.377869,471
840.495972,476
840.614136,443
840.732239,453
840.850342,466
840.968445,466
841.086548,445
841.204651,463
841.322754,461
841.440918,476
841.55896,466
841.677002,456
841.795166,483
841.913208,463
842.031311,456
842.149353,456
842.267456,465
842.385498,462
842.503601,438
842.621643,467
842.739746,460
842.857788,476
842.97583,455
843.093933,470
843.211975,442
843.330017,442
843.44812,452
843.566101,466
843.684204,453
843.802246,462
843.920227,463
844.038269,477
844.156311,445
844.274292,458
844.392395,443
844.510376,463
844.628357,452
844.74646,467
844.864441,468
844.982422,461
845.100403,472
845.218384,450
845.336426,437
845.454468,452
845.572449,461
845.69043,463
845.808411,452
845.926453,476
846.044373,461
846.162354,473
846.280396,425
846.398315,468
846.516296,466
846.634216,447
846.752197,469
846.870178,463
846.988098,467
847.106079,463
847.22406,449
847.34198,481
847.4599,448
847.577881,468
847.695801,472
847.813782,465
847.931641,477
848.049561,471
848.167603,456
848.285461,445
848.403381,457
848.521362,481
848.639221,491
848.75708,477
848.875,449
848.99292,476
849.110901,456
849.22876,460
849.34668,464
849.464539,455
849.582458,461
849.700317,454
849.818176,458
849.936096,467
850.053955,435
850.171875,449
850.289673,461
850.407593,457
850.525452,450
850.643311,452
850.761169,461
850.878967,463
850.996887,461
851.114746,458
851.232544,449
851.350403,465
851.468262,474
851.58606,451
851.703979,460
851.821777,464
851.939636,457
852.057434,452
852.175232,469
852.293091,473
852.410889,473
852.528687,453
852.646545,440
852.764343,473
852.88208,461
852.999939,488
853.117676,456
853.235535,453
853.353271,456
853.471069,454
853.588928,469
853.706604,451
853.824402,471
853.9422,480
854.059998,443
854.177734,465
854.295532,456
854.413269,447
854.531006,458
854.648804,461
854.766541,452
854.884277,462
855.002014,480
855.119751,477
855.237549,463
855.355225,469
855.473022,471
855.590698,453
855.708435,467
855.826172,453
855.943848,463
856.061646,465
856.179321,481
856.296997,462
856.414795,477
856.53241,471
856.650085,458
856.767822,459
856.885559,460
857.003174,457
857.120911,462
857.238586,476
857.356201,459
857.473938,462
857.591614,462
857.709351,462
857.826965,470
857.944641,457
858.062317,474
858.179993,459
858.297668,465
858.415283,477
858.532959,471
858.650574,471
858.768188,486
858.885803,467
859.003479,465
859.121094,447
859.23877,462
859.356384,480
859.473999,454
859.591675,463
859.709229,463
859.826843,461
859.944458,447
860.062012,455
860.179626,472
860.297302,462
860.414856,460
860.532471,452
860.650024,471
860.767639,465
860.885193,464
861.002808,455
861.120361,457
861.237976,448
861.35553,455
861.473022,447
861.590698,482
861.708191,469
861.825745,448
861.943298,459
862.060852,467
862.178406,457
862.295959,454
862.413513,464
862.531006,470
862.64856,453
862.766113,454
862.883667,459
863.00116,461
863.118713,456
863.236206,452
863.353699,469
863.471252,449
863.588745,461
863.706177,455
863.82373,446
863.941162,461
864.058716,445
864.176208,482
864.29364,481
864.411194,453
864.528687,460
864.646118,466
864.763611,459
864.881042,473
864.998535,467
865.116028,452
865.233459,450
865.350891,472
865.468384,458
865.585754,460
865.703308,462
865.820679,455
865.938171,472
866.055542,464
866.173035,470
866.290466,471
866.407837,456
866.52533,454
866.6427,467
866.760071,445
866.877563,456
866.994934,464
867.112305,477
867.229736,455
867.347107,453
867.464539,465
867.58197,464
867.699341,469
867.81665,452
867.934082,462
868.051453,464
868.168823,465
868.286194,456
868.403564,444
868.520935,467
868.638306,464
868.755676,464
868.872986,462
868.990295,464
869.107727,452
869.225037,458
869.342346,458
869.459717,454
869.577026,457
869.694336,486
869.811707,470
869.929016,450
870.046326,450
870.163635,463
870.280945,453
870.398254,468
870.515564,482
870.632812,453
870.750183,465
870.867432,455
870.984741,451
871.102051,465
871.219299,453
871.336609,458
871.453918,460
871.571106,478
871.688416,457
871.805664,468
871.922852,467
872.040222,484
872.157471,474
872.274719,459
872.391968,444
872.509155,487
872.626465,466
872.743652,482
872.860962,465
872.978149,469
873.095337,492
873.212646,461
873.329834,447
873.44696,461
873.564209,458
873.681396,483
873.798645,469
873.915894,471
874.03302,449
874.150208,475
874.267456,470
874.384583,486
874.501831,463
874.618958,449
874.736145,458
874.853333,462
874.970459,466
875.087646,471
875.204834,459
875.32196,467
875.439148,492
875.556274,466
875.673401,479
875.790527,463
875.907715,470
876.024841,478
876.141968,455
876.259094,475
876.376282,453
876.493347,455
876.610474,452
876.7276,473
876.844727,464
876.961853,480
877.078918,464
877.195984,480
877.313171,468
877.430237,480
877.547302,457
877.664368,465
877.781433,459
877.898499,485
878.015625,454
878.13269,456
878.249695,481
878.366821,461
878.483887,444
878.600952,471
878.717957,468
878.834961,474
878.952087,468
879.069092,457
879.186157,464
879.303162,473
879.420227,463
879.537231,469
879.654236,468
879.77124,476
879.888306,452
880.005249,466
880.122314,459
880.239319,477
880.356323,469
880.473328,463
880.590271,465
880.707275,477
880.824341,480
880.941284,482
881.058228,453
881.175232,469
881.292236,470
881.40918,455
881.526123,453
881.643066,471
881.760071,449
881.877014,459
881.993958,455
882.11084,476
882.227783,480
882.344727,466
882.46167,453
882.578613,461
882.695618,481
882.812439,465
882.929382,468
883.046326,472
883.163208,479
883.280151,478
883.397034,470
883.513916,463
883.630798,467
883.747742,470
883.864563,481
883.981506,468
884.098389,491
884.21521,477
884.332153,480
884.448975,493
884.565796,471
884.682678,465
884.7995,471
884.916443,471
885.033264,476
885.150085,463
885.266968,464
885.383789,485
885.500671,484
885.617493,477
885.734314,478
885.851196,472
885.967896,484
886.084717,475
886.201599,485
886.318359,479
886.435181,492
886.552002,488
886.668762,486
886.785645,492
886.902344,476
887.019165,477
887.135925,469
887.252747,484
887.369446,467
887.486267,476
887.603027,450
887.719788,470
887.836548,465
887.953247,492
888.070068,497
888.186829,478
888.303528,479
888.420288,476
888.536987,473
888.653687,479
888.770447,472
888.887146,459
889.003967,468
889.120667,475
889.237305,489
889.354065,467
889.470703,460
889.587463,478
889.704163,501
889.820862,459
889.937561,462
890.054199,485
890.170837,490
890.287598,490
890.404236,481
890.520874,478
890.637634,473
890.754211,467
890.87085,483
890.987549,481
891.104187,463
891.220886,494
891.337463,468
891.454102,467
891.57074,484
891.687378,453
891.804077,488
891.920654,469
892.037231,476
892.15387,477
892.270447,475
892.387085,496
892.503723,461
892.6203,478
892.736877,480
892.853516,471
892.970032,482
893.08667,492
893.203186,489
893.319763,468
893.43634,477
893.552917,481
893.669556,469
893.786011,475
893.902588,467
894.019165,490
894.135681,473
894.252197,458
894.368835,493
894.485291,493
894.601868,499
894.718384,474
894.8349,483
894.951355,466
895.067932,475
895.184448,470
895.300964,485
895.417419,480
895.533936,480
895.650452,499
895.766907,478
895.883423,496
895.999878,485
896.116333,480
896.232849,472
896.349304,490
896.465759,470
896.582214,471
896.698669,470
896.815125,489
896.931641,468
897.048035,483
897.164551,478
897.280884,488
897.397339,472
897.513794,484
897.630249,467
897.746582,468
897.863098,487
897.979431,474
898.095886,493
898.212341,490
898.328674,467
898.445129,503
898.561462,464
898.677795,467
898.794312,493
898.910645,472
899.026978,475
899.143433,473
899.259766,485
899.37616,472
899.492493,477
899.608765,487
899.725159,478
899.841553,496
899.957947,475
900.07428,477
900.190552,469
900.306946,480
900.423157,473
900.53949,464
900.655884,489
900.772156,474
900.888489,484
901.004822,486
901.121033,492
901.237366,469
901.353699,473
901.46991,488
901.586304,481
901.702515,485
901.818787,483
901.93512,472
902.051331,488
902.167603,494
902.283875,463
902.400085,482
902.516418,487
902.632629,490
902.74884,482
902.865112,508
902.981384,491
903.097595,489
903.213867,506
903.330017,463
903.446289,488
903.5625,480
903.67865,488
903.794922,506
903.911072,478
904.027344,469
904.143494,476
904.259705,470
904.375916,487
904.492065,463
904.608215,496
904.724426,472
904.840576,479
904.956726,491
905.072876,465
905.189087,505
905.305176,483
905.421387,484
905.537537,483
905.653687,496
905.769775,470
905.885925,492
906.002014,501
906.118164,493
906.234314,484
906.350403,506
906.466492,496
906.582642,491
906.69873,473
906.814758,483
906.930908,497
907.046936,484
907.163086,499
907.279175,485
907.395264,492
907.511353,494
907.62738,490
907.743408,482
907.859497,467
907.975525,485
908.091553,495
908.207703,493
908.32373,517
908.439758,492
908.555786,509
908.671814,473
908.787842,484
908.90387,483
909.019775,472
909.135864,471
909.251892,494
909.367859,494
909.483826,491
909.599854,482
909.715881,479
909.831848,485
909.947815,479
910.063782,509
910.179749,477
910.295776,494
910.411743,488
910.527649,485
910.643616,488
910.759583,509
910.875488,466
910.991455,482
911.107361,488
911.223267,481
911.339294,505
911.4552,481
911.571106,491
911.687073,492
911.802979,483
911.918823,487
912.034729,471
912.150635,492
912.266602,479
912.382446,484
912.498352,477
912.614197,491
912.730103,480
912.846008,473
792.44574,646
792.56488,642
792.68396,691
792.80304,671
792.92218,607
793.041199,581
793.160339,606
793.279419,610
793.398499,634
793.517578,603
793.636658,595
793.755737,634
793.874817,601
793.993896,615
794.112976,594
794.232056,587
794.351074,588
794.470215,566
794.589233,577
794.708313,585
794.827393,583
794.946411,566
795.065552,605
795.18457,563
795.303589,602
795.422668,581
795.541687,583
795.660767,598
795.779846,561
795.898865,570
796.017883,580
796.136963,580
796.255981,553
796.375061,566
796.49408,560
796.613037,556
796.732117,562
796.851135,564
796.970154,565
797.089233,571
797.208191,557
797.327271,528
797.446228,568
797.565186,570
797.684265,566
797.803223,564
797.922241,558
798.04126,586
798.160278,568
798.279297,567
798.398315,578
798.517273,540
798.636292,544
798.75531,548
798.874268,572
798.993286,548
799.112244,534
799.231323,571
799.350281,562
799.469238,549
799.588257,554
799.707153,543
799.826111,545
799.945129,543
800.064087,571
800.183044,540
800.302063,563
800.421021,538
800.539978,543
800.658936,539
800.777893,561
800.896912,558
801.015747,575
801.134705,558
801.253723,563
801.37262,566
801.491638,568
801.610535,558
801.729492,554
801.84845,562
801.967407,555
802.086243,564
802.205261,582
802.324158,570
802.443115,569
802.562073,558
802.680969,563
802.799927,565
802.918762,556
803.037659,549
803.156677,541
803.275574,544
803.39447,572
803.513428,557
803.632263,584
803.751221,546
803.870117,567
803.989014,565
804.107971,566
804.226746,559
804.345642,561
804.4646,592
804.583496,588
804.702393,560
804.821228,578
804.940125,555
805.059021,557
805.177917,562
805.296814,573
805.415649,572
805.534546,559
805.653442,548
805.772278,573
805.891113,574
806.01001,589
806.128906,570
806.247742,567
806.366577,555
806.485413,607
806.604309,568
806.723145,575
806.84198,562
806.960876,585
807.079712,570
807.198486,575
807.317383,576
807.436218,581
807.554993,588
807.673889,564
807.792725,559
807.91156,583
808.030396,589
808.14917,583
808.268005,564
808.386841,591
808.505676,588
808.624451,581
808.743286,585
808.862122,565
808.980896,595
809.099731,578
809.218506,591
809.337341,589
809.456116,562
809.57489,598
809.693726,586
809.8125,573
809.931274,603
810.050049,575
810.168884,603
810.287659,593
810.406372,614
810.525269,588
810.643982,579
810.762756,609
810.881531,571
811.000305,605
811.11908,584
811.237854,584
811.356567,574
811.475403,599
811.594116,578
811.71283,599
811.831604,573
811.950378,598
812.069153,610
812.187927,597
812.30658,580
812.425415,602
812.544128,595
812.662781,597
812.781616,600
812.900269,607
813.019043,590
813.137756,595
813.256531,577
813.375244,573
813.493896,594
813.612671,577
813.731384,585
813.850037,594
813.96875,584
814.087524,575
814.206238,559
814.324951,594
814.443604,582
814.562256,590
814.68103,583
814.799683,585
814.918335,566
815.037109,604
815.155762,591
815.274475,575
815.393188,566
815.511841,582
815.630554,580
815.749146,573
815.867859,572
815.986572,558
816.105164,570
816.223877,567
816.342529,576
816.461182,595
816.579895,566
816.698486,607
816.817139,574
816.935791,567
817.054504,581
817.173096,566
817.291748,560
817.4104,587
817.529053,550
817.647644,593
817.766235,557
817.884949,519
818.00354,524
818.122192,543
818.240845,519
818.359436,528
818.478088,534
818.59668,519
818.715271,505
818.833923,534
818.952515,532
819.071106,504
819.189758,500
819.30835,508
819.426941,509
819.545532,508
819.664124,497
819.782715,489
819.901306,510
820.019897,504
820.138489,492
820.25708,506
820.375671,487
820.494202,492
820.612732,499
820.731384,494
820.849915,488
820.968506,484
821.087097,487
821.205627,491
821.324158,481
821.442749,484
821.561279,471
821.679871,471
821.798401,481
821.916931,481
822.035461,469
822.154053,481
822.272583,479
822.391174,486
822.509583,498
822.628174,506
822.746704,460
822.865234,474
822.983765,496
823.102295,482
823.220825,464
823.339294,484
823.457825,458
823.576355,487
823.694824,464
823.813354,480
823.931885,490
824.050354,515
824.168884,485
824.287354,488
824.405823,500
824.524353,479
824.642822,476
824.761353,499
824.879822,498
824.998291,493
825.116699,492
825.235291,509
825.353699,478
825.472168,494
825.590637,481
825.709106,512
825.827576,452
825.946045,464
826.064453,475
826.182983,481
826.301392,472
826.4198,441
826.53833,460
826.656738,472
826.775208,490
826.893677,477
827.012024,474
827.130493,486
827.248962,473
827.36731,454
827.485779,467
827.604248,467
827.722595,473
827.841064,468
827.959412,462
828.077942,457
828.196289,460
828.314636,497
828.433105,446
828.551514,478
828.669861,461
828.78833,454
828.906677,479
829.025085,466
829.143433,467
829.261841,477
829.38031,452
829.498657,455
829.617004,469
829.735413,475
829.85376,448
829.972107,474
830.090515,469
830.208862,470
830.327209,455
830.445557,451
830.563904,438
830.682312,473
830.800659,474
830.919006,467
831.037354,462
831.155701,465
831.274048,462
831.392395,451
831.51062,465
831.629028,441
831.747314,455
831.865662,464
831.984009,464
832.102356,481
832.220642,487
832.338928,467
832.457275,469
832.575623,446
832.693909,469
832.812134,482
832.930481,448
833.048828,437
833.167114,476
833.2854,441
833.403687,462
833.521973,457
833.640259,477
833.758545,459
833.876831,449
833.995056,453
834.113281,454
834.231628,473
834.349915,455
834.468201,453
834.586426,474
834.704651,466
834.822998,453
834.941162,470
835.059448,477
835.177673,465
835.295959,481
835.414246,471
835.53241,460
835.650635,451
835.768921,450
835.887146,459
836.005371,476
836.123596,451
836.241821,457
836.360046,507
836.478271,459
836.596497,460
836.714722,472
836.832886,467
836.95105,486
837.069336,473
837.1875,474
837.305725,469
837.423889,474
837.542053,480
837.660339,438
837.778503,493
837.896667,467
838.014832,486
838.132996,477
838.25116,500
838.369385,481
838.487488,492
838.605713,475
838.723877,467
838.84198,463
838.960205,468
839.078308,477
839.196472,483
839.314636,473
839.4328,464
839.550964,456
839.669067,476
839.787231,444
839.905396,484
840.023499,471
840.141602,465
840.259766,451
840.377869,482
840.495972,453
840.614136,465
840.732239,476
840.850342,444
840.968445,461
841.086548,466
841.204651,458
841.322754,464
841.440918,484
841.55896,474
841.677002,470
841.795166,467
841.913208,455
842.031311,462
842.149353,459
842.267456,486
842.385498,439
842.503601,467
842.621643,470
842.739746,462
842.857788,459
842.97583,483
843.093933,463
843.211975,473
843.330017,458
843.44812,469
843.566101,470
843.684204,482
843.802246,455
843.920227,471
844.038269,452
844.156311,463
844.274292,478
844.392395,463
844.510376,457
844.628357,459
844.74646,468
844.864441,454
844.982422,457
845.100403,481
845.218384,469
845.336426,474
845.454468,466
845.572449,470
845.69043,448
845.808411,459
845.926453,451
846.044373,456
846.162354,462
846.280396,467
846.398315,457
846.516296,447
846.634216,449
846.752197,481
846.870178,452
846.988098,463
847.106079,469
847.22406,461
847.34198,450
847.4599,460
847.577881,472
847.695801,457
847.813782,461
847.931641,453
848.049561,461
848.167603,456
848.285461,439
848.403381,466
848.521362,455
848.639221,472
848.75708,467
848.875,462
848.99292,447
849.110901,467
849.22876,450
849.34668,471
849.464539,458
849.582458,486
849.700317,468
849.818176,479
849.936096,478
850.053955,459
850.171875,479
850.289673,460
850.407593,453
850.525452,475
850.643311,463
850.761169,457
850.878967,457
850.996887,462
851.114746,461
851.232544,467
851.350403,447
851.468262,472
851.58606,456
851.703979,477
851.821777,455
851.939636,470
852.057434,464
852.175232,475
852.293091,452
852.410889,450
852.528687,457
852.646545,443
852.764343,465
852.88208,486
852.999939,451
853.117676,450
853.235535,450
853.353271,494
853.471069,453
853.588928,456
853.706604,459
853.824402,455
853.9422,456
854.059998,478
854.177734,459
854.295532,460
854.413269,469
854.531006,448
854.648804,461
854.766541,463
854.884277,480
855.002014,476
855.119751,445
855.237549,475
855.355225,436
855.473022,486
855.590698,461
855.708435,471
855.826172,461
855.943848,482
856.061646,465
856.179321,485
856.296997,464
856.414795,457
856.53241,467
856.650085,474
856.767822,464
856.885559,484
857.003174,466
857.120911,470
857.238586,449
857.356201,471
857.473938,467
857.591614,475
857.709351,462
857.826965,475
857.944641,461
858.062317,469
858.179993,461
858.297668,471
858.415283,458
858.532959,469
858.650574,459
858.768188,472
858.885803,468
859.003479,462
859.121094,464
859.23877,479
859.356384,464
859.473999,453
859.591675,455
859.709229,473
859.826843,481
859.944458,472
860.062012,428
860.179626,472
860.297302,451
860.414856,461
860.532471,470
860.650024,461
860.767639,464
860.885193,474
861.002808,462
861.120361,460
861.237976,458
861.35553,481
861.473022,452
861.590698,473
861.708191,438
861.825745,448
861.943298,467
862.060852,497
862.178406,463
862.295959,459
862.413513,476
862.531006,446
862.64856,449
862.766113,476
862.883667,462
863.00116,458
863.118713,450
863.236206,458
863.353699,480
863.471252,462
863.588745,464
863.706177,465
863.82373,468
863.941162,470
864.058716,459
864.176208,469
864.29364,462
864.411194,463
864.528687,470
864.646118,470
864.763611,455
864.881042,467
864.998535,467
865.116028,466
865.233459,444
865.350891,453
865.468384,471
865.585754,456
865.703308,469
865.820679,480
865.938171,480
866.055542,471
866.173035,455
866.290466,457
866.407837,462
866.52533,485
866.6427,466
866.760071,482
866.877563,474
866.994934,478
867.112305,464
867.229736,465
867.347107,453
867.464539,487
867.58197,462
867.699341,476
867.81665,468
867.934082,469
868.051453,463
868.168823,461
868.286194,456
868.403564,471
868.520935,456
868.638306,470
868.755676,445
868.872986,456
868.990295,466
869.107727,462
869.225037,477
869.342346,481
869.459717,458
869.577026,480
869.694336,445
869.811707,462
869.929016,467
870.046326,467
870.163635,466
870.280945,477
870.398254,474
870.515564,476
870.632812,445
870.750183,477
870.867432,453
870.984741,498
871.102051,471
871.219299,473
871.336609,464
871.453918,451
871.571106,467
871.688416,462
871.805664,462
871.922852,478
872.040222,458
872.157471,490
872.274719,459
872.391968,473
872.509155,451
872.626465,459
872.743652,477
872.860962,483
872.978149,465
873.095337,477
873.212646,465
873.329834,494
873.44696,474
873.564209,459
873.681396,462
873.798645,461
873.915894,475
874.03302,465
874.150208,458
874.267456,487
874.384583,450
874.501831,461
874.618958,456
874.736145,463
874.853333,455
874.970459,454
875.087646,464
875.204834,479
875.32196,463
875.439148,480
875.556274,487
875.673401,491
875.790527,445
875.907715,484
876.024841,477
876.141968,459
876.259094,483
876.376282,477
876.493347,490
876.610474,458
876.7276,450
876.844727,468
876.961853,463
877.078918,487
877.195984,495
877.313171,479
877.430237,487
877.547302,471
877.664368,453
877.781433,471
877.898499,466
878.015625,469
878.13269,474
878.249695,482
878.366821,481
878.483887,469
878.600952,487
878.717957,459
878.834961,457
878.952087,486
879.069092,474
879.186157,457
879.303162,480
879.420227,470
879.537231,470
879.654236,485
879.77124,486
879.888306,459
880.005249,470
880.122314,479
880.239319,486
880.356323,478
880.473328,470
880.590271,480
880.707275,469
880.824341,479
880.941284,469
881.058228,458
881.175232,470
881.292236,468
881.40918,466
881.526123,471
881.643066,477
881.760071,455
881.877014,477
881.993958,488
882.11084,463
882.227783,458
882.344727,462
882.46167,486
882.578613,479
882.695618,480
882.812439,477
882.929382,454
883.046326,456
883.163208,478
883.280151,460
883.397034,470
883.513916,465
883.630798,468
883.747742,478
883.864563,484
883.981506,471
884.098389,470
884.21521,470
884.332153,481
884.448975,483
884.565796,463
884.682678,475
884.7995,468
884.916443,458
885.033264,494
885.150085,467
885.266968,464
885.383789,477
885.500671,482
885.617493,470
885.734314,493
885.851196,481
885.967896,489
886.084717,483
886.201599,472
886.318359,476
886.435181,485
886.552002,512
886.668762,490
886.785645,491
886.902344,474
887.019165,458
887.135925,473
887.252747,481
887.369446,494
887.486267,491
887.603027,492
887.719788,478
887.836548,501
887.953247,474
888.070068,478
888.186829,474
888.303528,468
888.420288,498
888.536987,474
888.653687,460
888.770447,489
888.887146,457
889.003967,478
889.120667,459
889.237305,470
889.354065,477
889.470703,489
889.587463,470
889.704163,472
889.820862,471
889.937561,475
890.054199,488
890.170837,477
890.287598,477
890.404236,492
890.520874,454
890.637634,506
890.754211,473
890.87085,489
890.987549,454
891.104187,461
891.220886,457
891.337463,479
891.454102,494
891.57074,473
891.687378,476
891.804077,490
891.920654,471
892.037231,476
892.15387,467
892.270447,479
892.387085,489
892.503723,479
892.6203,484
892.736877,487
892.853516,469
892.970032,481
893.08667,480
893.203186,497
893.319763,474
893.43634,471
893.552917,471
893.669556,498
893.786011,479
893.902588,502
894.019165,480
894.135681,475
894.252197,454
894.368835,496
894.485291,486
894.601868,487
894.718384,476
894.8349,474
894.951355,471
895.067932,488
895.184448,449
895.300964,488
895.417419,492
895.533936,491
895.650452,480
895.766907,503
895.883423,491
895.999878,477
896.116333,470
896.232849,497
896.349304,475
896.465759,495
896.582214,446
896.698669,465
896.815125,476
896.931641,480
897.048035,472
897.164551,485
897.280884,486
897.397339,475
897.513794,460
897.630249,482
897.746582,480
897.863098,490
897.979431,454
898.095886,480
898.212341,482
898.328674,475
898.445129,498
898.561462,491
898.677795,480
898.794312,490
898.910645,483
899.026978,495
899.143433,486
899.259766,486
899.37616,487
899.492493,475
899.608765,491
899.725159,516
899.841553,493
899.957947,493
900.07428,468
900.190552,492
900.306946,487
900.423157,493
900.53949,470
900.655884,495
900.772156,471
900.888489,478
901.004822,473
901.121033,503
901.237366,471
901.353699,488
901.46991,500
901.586304,480
901.702515,478
901.818787,503
901.93512,468
902.051331,498
902.167603,492
902.283875,477
902.400085,470
902.516418,493
902.632629,484
902.74884,495
902.865112,474
902.981384,496
903.097595,480
903.213867,502
903.330017,493
903.446289,471
903.5625,471
903.67865,505
903.794922,463
903.911072,499
904.027344,505
904.143494,477
904.259705,514
904.375916,494
904.492065,486
904.608215,508
904.724426,470
904.840576,492
904.956726,485
905.072876,507
905.189087,478
905.305176,471
905.421387,508
905.537537,492
905.653687,494
905.769775,502
905.885925,484
906.002014,521
906.118164,490
906.234314,494
906.350403,494
906.466492,464
906.582642,504
906.69873,473
906.814758,491
906.930908,501
907.046936,474
907.163086,505
907.279175,468
907.395264,480
907.511353,464
907.62738,497
907.743408,476
907.859497,504
907.975525,493
908.091553,498
908.207703,475
908.32373,514
908.439758,477
908.555786,496
908.671814,493
908.787842,500
908.90387,485
909.019775,481
909.135864,484
909.251892,500
909.367859,498
909.483826,499
909.599854,495
909.715881,477
909.831848,471
909.947815,490
910.063782,479
910.179749,506
910.295776,476
910.411743,508
910.527649,499
910.643616,508
910.759583,505
910.875488,489
910.991455,470
911.107361,491
911.223267,471
911.339294,465
911.4552,486
911.571106,501
911.687073,507
911.802979,492
911.918823,491
912.034729,473
912.150635,491
912.266602,464
912.382446,489
912.498352,485
912.614197,463
912.730103,489
912.846008,488
