792.44574,490
792.56488,511
792.68396,588
792.80304,562
792.92218,537
793.041199,502
793.160339,504
793.279419,506
793.398499,518
793.517578,481
793.636658,495
793.755737,522
793.874817,511
793.993896,508
794.112976,501
794.232056,479
794.351074,481
794.470215,498
794.589233,504
794.708313,504
794.827393,489
794.946411,505
795.065552,522
795.18457,502
795.303589,504
795.422668,504
795.541687,504
795.660767,504
795.779846,506
795.898865,501
796.017883,490
796.136963,493
796.255981,503
796.375061,473
796.49408,511
796.613037,490
796.732117,510
796.851135,502
796.970154,493
797.089233,502
797.208191,487
797.327271,500
797.446228,499
797.565186,480
797.684265,500
797.803223,486
797.922241,491
798.04126,495
798.160278,484
798.279297,473
798.398315,481
798.517273,506
798.636292,486
798.75531,489
798.874268,470
798.993286,494
799.112244,484
799.231323,481
799.350281,502
799.469238,496
799.588257,484
799.707153,491
799.826111,477
799.945129,511
800.064087,479
800.183044,500
800.302063,488
800.421021,489
800.539978,481
800.658936,469
800.777893,485
800.896912,485
801.015747,475
801.134705,494
801.253723,499
801.37262,454
801.491638,470
801.610535,481
801.729492,503
801.84845,480
801.967407,471
802.086243,477
802.205261,493
802.324158,495
802.443115,484
802.562073,496
802.680969,496
802.799927,507
802.918762,488
803.037659,494
803.156677,490
803.275574,472
803.39447,480
803.513428,499
803.632263,489
803.751221,476
803.870117,488
803.989014,470
804.107971,499
804.226746,484
804.345642,481
804.4646,473
804.583496,482
804.702393,496
804.821228,481
804.940125,487
805.059021,484
805.177917,486
805.296814,474
805.415649,500
805.534546,480
805.653442,486
805.772278,482
805.891113,509
806.01001,482
806.128906,472
806.247742,476
806.366577,499
806.485413,480
806.604309,484
806.723145,495
806.84198,473
806.960876,500
807.079712,491
807.198486,484
807.317383,499
807.436218,478
807.554993,478
807.673889,461
807.792725,480
807.91156,503
808.030396,473
808.14917,481
808.268005,481
808.386841,482
808.505676,477
808.624451,479
808.743286,487
808.862122,474
808.980896,484
809.099731,499
809.218506,487
809.337341,493
809.456116,485
809.57489,483
809.693726,467
809.8125,487
809.931274,480
810.050049,480
810.168884,494
810.287659,469
810.406372,501
810.525269,471
810.643982,487
810.762756,484
810.881531,492
811.000305,475
811.11908,479
811.237854,491
811.356567,482
811.475403,504
811.594116,473
811.71283,500
811.831604,474
811.950378,471
812.069153,511
812.187927,500
812.30658,488
812.425415,473
812.544128,489
812.662781,481
812.781616,492
812.900269,478
813.019043,481
813.137756,483
813.256531,471
813.375244,485
813.493896,484
813.612671,505
813.731384,493
813.850037,494
813.96875,488
814.087524,475
814.206238,484
814.324951,466
814.443604,459
814.562256,499
814.68103,486
814.799683,486
814.918335,474
815.037109,478
815.155762,484
815.274475,473
815.393188,484
815.511841,480
815.630554,479
815.749146,477
815.867859,505
815.986572,472
816.105164,495
816.223877,458
816.342529,480
816.461182,461
816.579895,458
816.698486,470
816.817139,488
816.935791,488
817.054504,485
817.173096,499
817.291748,484
817.4104,487
817.529053,476
817.647644,471
817.766235,488
817.884949,464
818.00354,454
818.122192,480
818.240845,475
818.359436,470
818.478088,482
818.59668,481
818.715271,488
818.833923,458
818.952515,477
819.071106,467
819.189758,459
819.30835,462
819.426941,471
819.545532,468
819.664124,464
819.782715,457
819.901306,459
820.019897,449
820.138489,479
820.25708,458
820.375671,458
820.494202,460
820.612732,456
820.731384,453
820.849915,452
820.968506,475
821.087097,478
821.205627,465
821.324158,482
821.442749,461
821.561279,443
821.679871,457
821.798401,459
821.916931,456
822.035461,459
822.154053,478
822.272583,452
822.391174,464
822.509583,461
822.628174,454
822.746704,463
822.865234,471
822.983765,440
823.102295,465
823.220825,468
823.339294,463
823.457825,454
823.576355,458
823.694824,463
823.813354,460
823.931885,433
824.050354,461
824.168884,451
824.287354,463
824.405823,451
824.524353,446
824.642822,480
824.761353,449
824.879822,434
824.998291,465
825.116699,457
825.235291,443
825.353699,458
825.472168,422
825.590637,467
825.709106,449
825.827576,453
825.946045,444
826.064453,454
826.182983,464
826.301392,444
826.4198,457
826.53833,482
826.656738,436
826.775208,433
826.893677,467
827.012024,456
827.130493,444
827.248962,463
827.36731,450
827.485779,457
827.604248,463
827.722595,478
827.841064,439
827.959412,456
828.077942,454
828.196289,438
828.314636,434
828.433105,460
828.551514,456
828.669861,434
828.78833,441
828.906677,441
829.025085,441
829.143433,452
829.261841,452
829.38031,453
829.498657,445
829.617004,462
829.735413,446
829.85376,445
829.972107,467
830.090515,450
830.208862,463
830.327209,436
830.445557,420
830.563904,462
830.682312,463
830.800659,464
830.919006,440
831.037354,449
831.155701,463
831.274048,455
831.392395,447
831.51062,463
831.629028,469
831.747314,471
831.865662,454
831.984009,450
832.102356,448
832.220642,446
832.338928,459
832.457275,426
832.575623,434
832.693909,472
832.812134,438
832.930481,466
833.048828,437
833.167114,468
833.2854,474
833.403687,442
833.521973,428
833.640259,452
833.758545,438
833.876831,471
833.995056,456
834.113281,446
834.231628,450
834.349915,440
834.468201,443
834.586426,450
834.704651,466
834.822998,436
834.941162,456
835.059448,456
835.177673,431
835.295959,427
835.414246,460
835.53241,447
835.650635,431
835.768921,453
835.887146,445
836.005371,446
836.123596,444
836.241821,462
836.360046,445
836.478271,466
836.596497,448
836.714722,452
836.832886,445
836.95105,452
837.069336,448
837.1875,449
837.305725,451
837.423889,443
837.542053,441
837.660339,446
837.778503,433
837.896667,448
838.014832,444
838.132996,448
838.25116,448
838.369385,446
838.487488,450
838.605713,458
838.723877,443
838.84198,461
838.960205,452
839.078308,455
839.196472,435
839.314636,451
839.4328,455
839.550964,463
839.669067,473
839.787231,450
839.905396,453
840.023499,456
840.141602,471
840.259766,444
840.377869,449
840.495972,442
840.614136,432
840.732239,438
840.850342,447
840.968445,444
841.086548,442
841.204651,458
841.322754,449
841.440918,444
841.55896,439
841.677002,460
841.795166,447
841.913208,457
842.031311,452
842.149353,475
842.267456,419
842.385498,436
842.503601,441
842.621643,443
842.739746,445
842.857788,462
842.97583,440
843.093933,448
843.211975,423
843.330017,460
843.44812,436
843.566101,459
843.684204,436
843.802246,433
843.920227,455
844.038269,448
844.156311,432
844.274292,455
844.392395,461
844.510376,458
844.628357,456
844.74646,451
844.864441,439
844.982422,445
845.100403,442
845.218384,451
845.336426,439
845.454468,443
845.572449,441
845.69043,425
845.808411,447
845.926453,460
846.044373,433
846.162354,445
846.280396,451
846.398315,451
846.516296,445
846.634216,437
846.752197,445
846.870178,449
846.988098,448
847.106079,457
847.22406,442
847.34198,438
847.4599,436
847.577881,451
847.695801,464
847.813782,438
847.931641,447
848.049561,462
848.167603,441
848.285461,464
848.403381,441
848.521362,444
848.639221,456
848.75708,441
848.875,459
848.99292,454
849.110901,457
849.22876,442
849.34668,461
849.464539,438
849.582458,439
849.700317,448
849.818176,434
849.936096,445
850.053955,433
850.171875,431
850.289673,448
850.407593,463
850.525452,448
850.643311,462
850.761169,456
850.878967,441
850.996887,441
851.114746,443
851.232544,459
851.350403,446
851.468262,459
851.58606,451
851.703979,447
851.821777,443
851.939636,461
852.057434,443
852.175232,443
852.293091,453
852.410889,461
852.528687,461
852.646545,467
852.764343,448
852.88208,437
852.999939,458
853.117676,452
853.235535,457
853.353271,458
853.471069,455
853.588928,441
853.706604,440
853.824402,447
853.9422,442
854.059998,431
854.177734,436
854.295532,444
854.413269,459
854.531006,448
854.648804,432
854.766541,447
854.884277,448
855.002014,461
855.119751,449
855.237549,445
855.355225,434
855.473022,441
855.590698,454
855.708435,451
855.826172,436
855.943848,440
856.061646,448
856.179321,445
856.296997,452
856.414795,438
856.53241,449
856.650085,423
856.767822,433
856.885559,439
857.003174,478
857.120911,446
857.238586,436
857.356201,450
857.473938,457
857.591614,455
857.709351,432
857.826965,445
857.944641,464
858.062317,447
858.179993,468
858.297668,442
858.415283,420
858.532959,452
858.650574,442
858.768188,421
858.885803,435
859.003479,444
859.121094,451
859.23877,450
859.356384,440
859.473999,449
859.591675,450
859.709229,470
859.826843,459
859.944458,461
860.062012,441
860.179626,438
860.297302,435
860.414856,441
860.532471,452
860.650024,454
860.767639,460
860.885193,444
861.002808,443
861.120361,452
861.237976,443
861.35553,454
861.473022,439
861.590698,449
861.708191,458
861.825745,442
861.943298,442
862.060852,456
862.178406,459
862.295959,455
862.413513,449
862.531006,458
862.64856,467
862.766113,449
862.883667,452
863.00116,451
863.118713,438
863.236206,431
863.353699,453
863.471252,453
863.588745,439
863.706177,445
863.82373,439
863.941162,434
864.058716,454
864.176208,446
864.29364,434
864.411194,439
864.528687,464
864.646118,476
864.763611,447
864.881042,446
864.998535,459
865.116028,458
865.233459,438
865.350891,440
865.468384,443
865.585754,459
865.703308,449
865.820679,443
865.938171,454
866.055542,454
866.173035,458
866.290466,457
866.407837,447
866.52533,454
866.6427,457
866.760071,441
866.877563,427
866.994934,448
867.112305,451
867.229736,450
867.347107,438
867.464539,434
867.58197,486
867.699341,456
867.81665,436
867.934082,445
868.051453,457
868.168823,466
868.286194,452
868.403564,434
868.520935,436
868.638306,447
868.755676,456
868.872986,441
868.990295,455
869.107727,458
869.225037,469
869.342346,457
869.459717,446
869.577026,446
869.694336,450
869.811707,446
869.929016,459
870.046326,453
870.163635,448
870.280945,451
870.398254,453
870.515564,443
870.632812,452
870.750183,461
870.867432,444
870.984741,435
871.102051,463
871.219299,449
871.336609,448
871.453918,454
871.571106,459
871.688416,446
871.805664,451
871.922852,460
872.040222,469
872.157471,429
872.274719,461
872.391968,447
872.509155,444
872.626465,428
872.743652,427
872.860962,437
872.978149,451
873.095337,458
873.212646,458
873.329834,453
873.44696,462
873.564209,467
873.681396,458
873.798645,446
873.915894,458
874.03302,451
874.150208,451
874.267456,449
874.384583,468
874.501831,440
874.618958,450
874.736145,449
874.853333,439
874.970459,448
875.087646,451
875.204834,435
875.32196,457
875.439148,456
875.556274,450
875.673401,463
875.790527,441
875.907715,462
876.024841,479
876.141968,456
876.259094,456
876.376282,471
876.493347,479
876.610474,457
876.7276,461
876.844727,454
876.961853,439
877.078918,469
877.195984,440
877.313171,475
877.430237,467
877.547302,444
877.664368,454
877.781433,456
877.898499,439
878.015625,444
878.13269,446
878.249695,454
878.366821,472
878.483887,457
878.600952,454
878.717957,466
878.834961,467
878.952087,462
879.069092,464
879.186157,466
879.303162,461
879.420227,459
879.537231,461
879.654236,443
879.77124,463
879.888306,459
880.005249,465
880.122314,456
880.239319,468
880.356323,447
880.473328,442
880.590271,461
880.707275,448
880.824341,446
880.941284,442
881.058228,453
881.175232,465
881.292236,459
881.40918,465
881.526123,450
881.643066,460
881.760071,457
881.877014,463
881.993958,469
882.11084,468
882.227783,461
882.344727,459
882.46167,446
882.578613,460
882.695618,462
882.812439,458
882.929382,459
883.046326,468
883.163208,471
883.280151,441
883.397034,457
883.513916,437
883.630798,425
883.747742,463
883.864563,448
883.981506,461
884.098389,464
884.21521,477
884.332153,459
884.448975,465
884.565796,458
884.682678,456
884.7995,446
884.916443,440
885.033264,446
885.150085,445
885.266968,459
885.383789,467
885.500671,448
885.617493,452
885.734314,452
885.851196,467
885.967896,471
886.084717,449
886.201599,482
886.318359,459
886.435181,476
886.552002,457
886.668762,455
886.785645,483
886.902344,462
887.019165,468
887.135925,455
887.252747,444
887.369446,456
887.486267,451
887.603027,439
887.719788,463
887.836548,446
887.953247,457
888.070068,472
888.186829,467
888.303528,459
888.420288,458
888.536987,464
888.653687,462
888.770447,454
888.887146,454
889.003967,456
889.120667,469
889.237305,451
889.354065,438
889.470703,444
889.587463,459
889.704163,476
889.820862,463
889.937561,460
890.054199,470
890.170837,481
890.287598,449
890.404236,462
890.520874,456
890.637634,451
890.754211,452
890.87085,452
890.987549,448
891.104187,459
891.220886,475
891.337463,478
891.454102,454
891.57074,458
891.687378,484
891.804077,462
891.920654,478
892.037231,450
892.15387,470
892.270447,462
892.387085,456
892.503723,472
892.6203,465
892.736877,460
892.853516,450
892.970032,459
893.08667,470
893.203186,477
893.319763,467
893.43634,468
893.552917,480
893.669556,465
893.786011,457
893.902588,472
894.019165,461
894.135681,462
894.252197,472
894.368835,472
894.485291,450
894.601868,459
894.718384,496
894.8349,455
894.951355,450
895.067932,461
895.184448,450
895.300964,462
895.417419,473
895.533936,459
895.650452,467
895.766907,454
895.883423,472
895.999878,480
896.116333,473
896.232849,452
896.349304,473
896.465759,457
896.582214,461
896.698669,456
896.815125,455
896.931641,470
897.048035,476
897.164551,451
897.280884,466
897.397339,464
897.513794,463
897.630249,453
897.746582,467
897.863098,460
897.979431,468
898.095886,467
898.212341,466
898.328674,441
898.445129,470
898.561462,452
898.677795,452
898.794312,450
898.910645,462
899.026978,455
899.143433,484
899.259766,468
899.37616,458
899.492493,460
899.608765,475
899.725159,447
899.841553,460
899.957947,467
900.07428,463
900.190552,453
900.306946,465
900.423157,473
900.53949,474
900.655884,472
900.772156,474
900.888489,470
901.004822,468
901.121033,445
901.237366,455
901.353699,463
901.46991,456
901.586304,462
901.702515,447
901.818787,484
901.93512,460
902.051331,450
902.167603,466
902.283875,465
902.400085,459
902.516418,459
902.632629,471
902.74884,454
902.865112,461
902.981384,460
903.097595,466
903.213867,465
903.330017,459
903.446289,450
903.5625,471
903.67865,466
903.794922,469
903.911072,485
904.027344,466
904.143494,473
904.259705,462
904.375916,460
904.492065,477
904.608215,449
904.724426,446
904.840576,474
904.956726,485
905.072876,447
905.189087,468
905.305176,473
905.421387,459
905.537537,462
905.653687,471
905.769775,463
905.885925,475
906.002014,470
906.118164,470
906.234314,482
906.350403,458
906.466492,461
906.582642,469
906.69873,473
906.814758,474
906.930908,491
907.046936,476
907.163086,455
907.279175,455
907.395264,482
907.511353,486
907.62738,470
907.743408,466
907.859497,480
907.975525,462
908.091553,478
908.207703,455
908.32373,477
908.439758,449
908.555786,459
908.671814,478
908.787842,468
908.90387,477
909.019775,484
909.135864,454
909.251892,478
909.367859,468
909.483826,494
909.599854,450
909.715881,489
909.831848,465
909.947815,467
910.063782,490
910.179749,459
910.295776,464
910.411743,471
910.527649,478
910.643616,468
910.759583,484
910.875488,485
910.991455,478
911.107361,463
911.223267,489
911.339294,457
911.4552,469
911.571106,463
911.687073,494
911.802979,463
911.918823,464
912.034729,476
912.150635,469
912.266602,463
912.382446,477
912.498352,465
912.614197,500
912.730103,468
912.846008,466
792.44574,499
792.56488,543
792.68396,572
792.80304,558
792.92218,525
793.041199,495
793.160339,518
793.279419,516
793.398499,514
793.517578,490
793.636658,504
793.755737,521
793.874817,531
793.993896,502
794.112976,508
794.232056,500
794.351074,495
794.470215,511
794.589233,525
794.708313,501
794.827393,501
794.946411,489
795.065552,515
795.18457,483
795.303589,498
795.422668,503
795.541687,507
795.660767,524
795.779846,482
795.898865,482
796.017883,492
796.136963,485
796.255981,503
796.375061,495
796.49408,496
796.613037,495
796.732117,487
796.851135,483
796.970154,492
797.089233,489
797.208191,488
797.327271,512
797.446228,466
797.565186,499
797.684265,506
797.803223,506
797.922241,468
798.04126,494
798.160278,500
798.279297,497
798.398315,476
798.517273,474
798.636292,482
798.75531,497
798.874268,503
798.993286,492
799.112244,490
799.231323,504
799.350281,479
799.469238,473
799.588257,483
799.707153,515
799.826111,507
799.945129,490
800.064087,462
800.183044,483
800.302063,506
800.421021,494
800.539978,481
800.658936,486
800.777893,491
800.896912,490
801.015747,470
801.134705,480
801.253723,488
801.37262,492
801.491638,491
801.610535,500
801.729492,492
801.84845,484
801.967407,506
802.086243,491
802.205261,500
802.324158,478
802.443115,486
802.562073,485
802.680969,472
802.799927,484
802.918762,488
803.037659,492
803.156677,474
803.275574,495
803.39447,474
803.513428,498
803.632263,470
803.751221,483
803.870117,479
803.989014,465
804.107971,484
804.226746,484
804.345642,485
804.4646,500
804.583496,486
804.702393,494
804.821228,491
804.940125,492
805.059021,484
805.177917,477
805.296814,496
805.415649,487
805.534546,491
805.653442,491
805.772278,473
805.891113,485
806.01001,498
806.128906,489
806.247742,482
806.366577,520
806.485413,486
806.604309,479
806.723145,491
806.84198,484
806.960876,493
807.079712,488
807.198486,491
807.317383,487
807.436218,498
807.554993,493
807.673889,495
807.792725,493
807.91156,482
808.030396,470
808.14917,484
808.268005,491
808.386841,488
808.505676,487
808.624451,484
808.743286,488
808.862122,484
808.980896,482
809.099731,493
809.218506,483
809.337341,489
809.456116,483
809.57489,498
809.693726,508
809.8125,483
809.931274,487
810.050049,490
810.168884,482
810.287659,479
810.406372,487
810.525269,489
810.643982,495
810.762756,497
810.881531,489
811.000305,494
811.11908,483
811.237854,491
811.356567,473
811.475403,497
811.594116,482
811.71283,491
811.831604,481
811.950378,499
812.069153,495
812.187927,484
812.30658,500
812.425415,493
812.544128,491
812.662781,506
812.781616,503
812.900269,488
813.019043,496
813.137756,469
813.256531,501
813.375244,491
813.493896,485
813.612671,482
813.731384,478
813.850037,485
813.96875,499
814.087524,493
814.206238,508
814.324951,480
814.443604,491
814.562256,478
814.68103,476
814.799683,481
814.918335,484
815.037109,466
815.155762,492
815.274475,471
815.393188,480
815.511841,495
815.630554,495
815.749146,454
815.867859,494
815.986572,494
816.105164,470
816.223877,485
816.342529,472
816.461182,483
816.579895,478
816.698486,473
816.817139,462
816.935791,480
817.054504,494
817.173096,472
817.291748,486
817.4104,484
817.529053,476
817.647644,485
817.766235,458
817.884949,469
818.00354,478
818.122192,491
818.240845,468
818.359436,487
818.478088,455
818.59668,494
818.715271,472
818.833923,458
818.952515,459
819.071106,479
819.189758,454
819.30835,472
819.426941,465
819.545532,456
819.664124,450
819.782715,458
819.901306,467
820.019897,450
820.138489,457
820.25708,454
820.375671,473
820.494202,478
820.612732,464
820.731384,457
820.849915,447
820.968506,470
821.087097,453
821.205627,471
821.324158,442
821.442749,455
821.561279,466
821.679871,446
821.798401,451
821.916931,460
822.035461,472
822.154053,462
822.272583,461
822.391174,451
822.509583,460
822.628174,444
822.746704,447
822.865234,449
822.983765,464
823.102295,463
823.220825,454
823.339294,458
823.457825,449
823.576355,468
823.694824,460
823.813354,465
823.931885,476
824.050354,457
824.168884,471
824.287354,449
824.405823,463
824.524353,452
824.642822,452
824.761353,471
824.879822,468
824.998291,444
825.116699,454
825.235291,453
825.353699,461
825.472168,459
825.590637,452
825.709106,448
825.827576,463
825.946045,456
826.064453,446
826.182983,462
826.301392,468
826.4198,481
826.53833,475
826.656738,445
826.775208,464
826.893677,460
827.012024,459
827.130493,455
827.248962,467
827.36731,443
827.485779,461
827.604248,439
827.722595,484
827.841064,442
827.959412,450
828.077942,443
828.196289,465
828.314636,446
828.433105,448
828.551514,439
828.669861,456
828.78833,445
828.906677,459
829.025085,456
829.143433,457
829.261841,455
829.38031,447
829.498657,455
829.617004,472
829.735413,453
829.85376,440
829.972107,440
830.090515,461
830.208862,460
830.327209,437
830.445557,461
830.563904,473
830.682312,440
830.800659,456
830.919006,441
831.037354,447
831.155701,434
831.274048,451
831.392395,454
831.51062,458
831.629028,459
831.747314,440
831.865662,465
831.984009,462
832.102356,431
832.220642,466
832.338928,436
832.457275,443
832.575623,441
832.693909,435
832.812134,446
832.930481,458
833.048828,463
833.167114,453
833.2854,443
833.403687,457
833.521973,443
833.640259,466
833.758545,436
833.876831,448
833.995056,449
834.113281,446
834.231628,429
834.349915,452
834.468201,442
834.586426,433
834.704651,454
834.822998,453
834.941162,451
835.059448,433
835.177673,431
835.295959,460
835.414246,444
835.53241,451
835.650635,451
835.768921,442
835.887146,468
836.005371,471
836.123596,453
836.241821,447
836.360046,448
836.478271,458
836.596497,453
836.714722,452
836.832886,447
836.95105,445
837.069336,459
837.1875,445
837.305725,444
837.423889,457
837.542053,471
837.660339,453
837.778503,446
837.896667,460
838.014832,438
838.132996,438
838.25116,442
838.369385,433
838.487488,461
838.605713,436
838.723877,451
838.84198,462
838.960205,448
839.078308,441
839.196472,438
839.314636,460
839.4328,446
839.550964,462
839.669067,453
839.787231,446
839.905396,457
840.023499,444
840.141602,455
840.259766,457
840.377869,429
840.495972,441
840.614136,443
840.732239,466
840.850342,464
840.968445,446
841.086548,463
841.204651,439
841.322754,437
841.440918,444
841.55896,448
841.677002,463
841.795166,452
841.913208,438
842.031311,428
842.149353,439
842.267456,436
842.385498,445
842.503601,449
842.621643,461
842.739746,442
842.857788,458
842.97583,435
843.093933,453
843.211975,444
843.330017,455
843.44812,440
843.566101,441
843.684204,443
843.802246,450
843.920227,428
844.038269,443
844.156311,432
844.274292,455
844.392395,447
844.510376,451
844.628357,454
844.74646,470
844.864441,454
844.982422,450
845.100403,457
845.218384,448
845.336426,449
845.454468,448
845.572449,454
845.69043,443
845.808411,450
845.926453,437
846.044373,447
846.162354,429
846.280396,443
846.398315,446
846.516296,451
846.634216,463
846.752197,445
846.870178,442
846.988098,464
847.106079,449
847.22406,442
847.34198,452
847.4599,449
847.577881,459
847.695801,445
847.813782,445
847.931641,429
848.049561,448
848.167603,435
848.285461,439
848.403381,447
848.521362,444
848.639221,442
848.75708,442
848.875,447
848.99292,449
849.110901,441
849.22876,448
849.34668,463
849.464539,451
849.582458,439
849.700317,446
849.818176,440
849.936096,465
850.053955,441
850.171875,445
850.289673,444
850.407593,440
850.525452,477
850.643311,433
850.761169,438
850.878967,451
850.996887,436
851.114746,456
851.232544,450
851.350403,445
851.468262,466
851.58606,442
851.703979,455
851.821777,446
851.939636,444
852.057434,449
852.175232,457
852.293091,438
852.410889,442
852.528687,438
852.646545,436
852.764343,448
852.88208,451
852.999939,460
853.117676,445
853.235535,457
853.353271,454
853.471069,448
853.588928,429
853.706604,447
853.824402,442
853.9422,443
854.059998,436
854.177734,456
854.295532,446
854.413269,437
854.531006,456
854.648804,432
854.766541,439
854.884277,444
855.002014,442
855.119751,452
855.237549,452
855.355225,432
855.473022,440
855.590698,436
855.708435,439
855.826172,477
855.943848,445
856.061646,465
856.179321,442
856.296997,442
856.414795,454
856.53241,440
856.650085,462
856.767822,461
856.885559,449
857.003174,450
857.120911,439
857.238586,424
857.356201,449
857.473938,450
857.591614,446
857.709351,459
857.826965,453
857.944641,456
858.062317,437
858.179993,443
858.297668,452
858.415283,463
858.532959,442
858.650574,436
858.768188,470
858.885803,452
859.003479,441
859.121094,446
859.23877,455
859.356384,455
859.473999,449
859.591675,424
859.709229,449
859.826843,453
859.944458,429
860.062012,446
860.179626,422
860.297302,451
860.414856,448
860.532471,462
860.650024,444
860.767639,460
860.885193,441
861.002808,451
861.120361,455
861.237976,446
861.35553,447
861.473022,444
861.590698,456
861.708191,467
861.825745,448
861.943298,462
862.060852,462
862.178406,445
862.295959,444
862.413513,464
862.531006,437
862.64856,433
862.766113,458
862.883667,457
863.00116,441
863.118713,451
863.236206,457
863.353699,444
863.471252,475
863.588745,445
863.706177,451
863.82373,465
863.941162,448
864.058716,456
864.176208,436
864.29364,448
864.411194,447
864.528687,436
864.646118,479
864.763611,437
864.881042,442
864.998535,447
865.116028,439
865.233459,442
865.350891,441
865.468384,449
865.585754,450
865.703308,465
865.820679,450
865.938171,451
866.055542,461
866.173035,449
866.290466,435
866.407837,430
866.52533,462
866.6427,472
866.760071,441
866.877563,449
866.994934,446
867.112305,443
867.229736,453
867.347107,461
867.464539,439
867.58197,458
867.699341,444
867.81665,463
867.934082,444
868.051453,432
868.168823,450
868.286194,448
868.403564,441
868.520935,466
868.638306,449
868.755676,448
868.872986,451
868.990295,484
869.107727,450
869.225037,420
869.342346,440
869.459717,438
869.577026,463
869.694336,444
869.811707,447
869.929016,449
870.046326,450
870.163635,446
870.280945,456
870.398254,463
870.515564,451
870.632812,456
870.750183,459
870.867432,450
870.984741,452
871.102051,453
871.219299,444
871.336609,449
871.453918,464
871.571106,468
871.688416,474
871.805664,444
871.922852,457
872.040222,447
872.157471,446
872.274719,462
872.391968,461
872.509155,474
872.626465,454
872.743652,439
872.860962,451
872.978149,460
873.095337,453
873.212646,449
873.329834,443
873.44696,454
873.564209,460
873.681396,451
873.798645,445
873.915894,453
874.03302,463
874.150208,439
874.267456,442
874.384583,457
874.501831,469
874.618958,440
874.736145,467
874.853333,453
874.970459,456
875.087646,465
875.204834,451
875.32196,458
875.439148,464
875.556274,467
875.673401,432
875.790527,456
875.907715,447
876.024841,459
876.141968,430
876.259094,450
876.376282,456
876.493347,463
876.610474,458
876.7276,455
876.844727,426
876.961853,449
877.078918,455
877.195984,453
877.313171,460
877.430237,474
877.547302,458
877.664368,467
877.781433,475
877.898499,443
878.015625,442
878.13269,465
878.249695,456
878.366821,468
878.483887,468
878.600952,450
878.717957,442
878.834961,459
878.952087,461
879.069092,441
879.186157,438
879.303162,453
879.420227,454
879.537231,461
879.654236,465
879.77124,435
879.888306,459
880.005249,458
880.122314,438
880.239319,460
880.356323,445
880.473328,464
880.590271,455
880.707275,463
880.824341,449
880.941284,460
881.058228,460
881.175232,451
881.292236,466
881.40918,457
881.526123,445
881.643066,456
881.760071,455
881.877014,449
881.993958,456
882.11084,470
882.227783,448
882.344727,453
882.46167,450
882.578613,458
882.695618,452
882.812439,465
882.929382,440
883.046326,468
883.163208,464
883.280151,451
883.397034,465
883.513916,465
883.630798,457
883.747742,461
883.864563,449
883.981506,471
884.098389,452
884.21521,468
884.332153,459
884.448975,452
884.565796,451
884.682678,461
884.7995,455
884.916443,468
885.033264,465
885.150085,471
885.266968,453
885.383789,442
885.500671,470
885.617493,465
885.734314,448
885.851196,467
885.967896,471
886.084717,454
886.201599,459
886.318359,470
886.435181,466
886.552002,460
886.668762,459
886.785645,464
886.902344,446
887.019165,473
887.135925,457
887.252747,441
887.369446,454
887.486267,477
887.603027,468
887.719788,475
887.836548,456
887.953247,466
888.070068,463
888.186829,457
888.303528,456
888.420288,453
888.536987,458
888.653687,447
888.770447,444
888.887146,465
889.003967,459
889.120667,485
889.237305,470
889.354065,442
889.470703,457
889.587463,459
889.704163,446
889.820862,458
889.937561,469
890.054199,468
890.170837,470
890.287598,454
890.404236,459
890.520874,464
890.637634,485
890.754211,470
890.87085,456
890.987549,481
891.104187,461
891.220886,457
891.337463,489
891.454102,463
891.57074,471
891.687378,469
891.804077,469
891.920654,449
892.037231,462
892.15387,451
892.270447,459
892.387085,465
892.503723,457
892.6203,462
892.736877,466
892.853516,461
892.970032,461
893.08667,471
893.203186,486
893.319763,464
893.43634,448
893.552917,460
893.669556,425
893.786011,462
893.902588,458
894.019165,456
894.135681,468
894.252197,460
894.368835,473
894.485291,467
894.601868,454
894.718384,466
894.8349,482
894.951355,471
895.067932,466
895.184448,453
895.300964,480
895.417419,463
895.533936,449
895.650452,459
895.766907,453
895.883423,471
895.999878,459
896.116333,475
896.232849,455
896.349304,483
896.465759,468
896.582214,477
896.698669,477
896.815125,463
896.931641,467
897.048035,465
897.164551,467
897.280884,460
897.397339,468
897.513794,443
897.630249,473
897.746582,462
897.863098,470
897.979431,457
898.095886,466
898.212341,463
898.328674,473
898.445129,479
898.561462,458
898.677795,453
898.794312,468
898.910645,434
899.026978,446
899.143433,458
899.259766,469
899.37616,464
899.492493,465
899.608765,474
899.725159,471
899.841553,479
899.957947,465
900.07428,466
900.190552,452
900.306946,465
900.423157,474
900.53949,494
900.655884,462
900.772156,466
900.888489,466
901.004822,458
901.121033,466
901.237366,467
901.353699,454
901.46991,447
901.586304,465
901.702515,456
901.818787,469
901.93512,462
902.051331,462
902.167603,465
902.283875,467
902.400085,461
902.516418,448
902.632629,457
902.74884,469
902.865112,460
902.981384,460
903.097595,464
903.213867,473
903.330017,471
903.446289,461
903.5625,483
903.67865,468
903.794922,472
903.911072,480
904.027344,479
904.143494,485
904.259705,452
904.375916,454
904.492065,467
904.608215,466
904.724426,475
904.840576,462
904.956726,450
905.072876,455
905.189087,465
905.305176,452
905.421387,467
905.537537,461
905.653687,469
905.769775,472
905.885925,464
906.002014,476
906.118164,476
906.234314,472
906.350403,453
906.466492,462
906.582642,467
906.69873,468
906.814758,481
906.930908,472
907.046936,472
907.163086,480
907.279175,493
907.395264,481
907.511353,458
907.62738,474
907.743408,455
907.859497,461
907.975525,476
908.091553,457
908.207703,461
908.32373,483
908.439758,464
908.555786,451
908.671814,504
908.787842,462
908.90387,480
909.019775,472
909.135864,464
909.251892,470
909.367859,466
909.483826,453
909.599854,470
909.715881,461
909.831848,481
909.947815,487
910.063782,487
910.179749,467
910.295776,474
910.411743,459
910.527649,483
910.643616,467
910.759583,481
910.875488,481
910.991455,465
911.107361,470
911.223267,486
911.339294,474
911.4552,495
911.571106,459
911.687073,461
911.802979,470
911.918823,468
912.034729,475
912.150635,474
912.266602,470
912.382446,475
912.498352,469
912.614197,453
912.730103,466
912.846008,448
792.44574,525
792.56488,553
792.68396,589
792.80304,608
792.92218,521
793.041199,515
793.160339,518
793.279419,511
793.398499,492
793.517578,488
793.636658,504
793.755737,521
793.874817,542
793.993896,535
794.112976,497
794.232056,492
794.351074,487
794.470215,514
794.589233,490
794.708313,493
794.827393,507
794.946411,499
795.065552,497
795.18457,503
795.303589,484
795.422668,486
795.541687,494
795.660767,498
795.779846,519
795.898865,499
796.017883,508
796.136963,500
796.255981,490
796.375061,490
796.49408,495
796.613037,499
796.732117,503
796.851135,501
796.970154,490
797.089233,492
797.208191,495
797.327271,498
797.446228,503
797.565186,488
797.684265,492
797.803223,505
797.922241,478
798.04126,491
798.160278,517
798.279297,489
798.398315,491
798.517273,503
798.636292,487
798.75531,495
798.874268,501
798.993286,533
799.112244,507
799.231323,501
799.350281,481
799.469238,494
799.588257,494
799.707153,481
799.826111,502
799.945129,494
800.064087,483
800.183044,497
800.302063,482
800.421021,482
800.539978,483
800.658936,495
800.777893,482
800.896912,509
801.015747,489
801.134705,477
801.253723,476
801.37262,505
801.491638,490
801.610535,512
801.729492,500
801.84845,497
801.967407,484
802.086243,512
802.205261,468
802.324158,493
802.443115,482
802.562073,488
802.680969,509
802.799927,499
802.918762,484
803.037659,498
803.156677,478
803.275574,466
803.39447,483
803.513428,499
803.632263,497
803.751221,494
803.870117,471
803.989014,481
804.107971,485
804.226746,507
804.345642,492
804.4646,476
804.583496,501
804.702393,506
804.821228,476
804.940125,502
805.059021,473
805.177917,481
805.296814,479
805.415649,496
805.534546,496
805.653442,480
805.772278,477
805.891113,501
806.01001,469
806.128906,477
806.247742,493
806.366577,504
806.485413,497
806.604309,501
806.723145,495
806.84198,496
806.960876,482
807.079712,493
807.198486,507
807.317383,499
807.436218,485
807.554993,494
807.673889,467
807.792725,499
807.91156,497
808.030396,481
808.14917,480
808.268005,485
808.386841,493
808.505676,488
808.624451,476
808.743286,498
808.862122,479
808.980896,497
809.099731,479
809.218506,485
809.337341,470
809.456116,495
809.57489,492
809.693726,496
809.8125,488
809.931274,510
810.050049,486
810.168884,480
810.287659,502
810.406372,503
810.525269,487
810.643982,503
810.762756,503
810.881531,497
811.000305,470
811.11908,510
811.237854,500
811.356567,496
811.475403,483
811.594116,505
811.71283,486
811.831604,496
811.950378,496
812.069153,476
812.187927,508
812.30658,505
812.425415,500
812.544128,467
812.662781,465
812.781616,507
812.900269,483
813.019043,497
813.137756,477
813.256531,494
813.375244,501
813.493896,482
813.612671,479
813.731384,498
813.850037,495
813.96875,467
814.087524,491
814.206238,484
814.324951,485
814.443604,499
814.562256,491
814.68103,472
814.799683,504
814.918335,504
815.037109,476
815.155762,478
815.274475,492
815.393188,489
815.511841,493
815.630554,474
815.749146,488
815.867859,477
815.986572,482
816.105164,505
816.223877,474
816.342529,485
816.461182,493
816.579895,476
816.698486,486
816.817139,492
816.935791,474
817.054504,476
817.173096,492
817.291748,484
817.4104,467
817.529053,471
817.647644,470
817.766235,479
817.884949,463
818.00354,483
818.122192,486
818.240845,485
818.359436,478
818.478088,457
818.59668,468
818.715271,467
818.833923,475
818.952515,468
819.071106,471
819.189758,466
819.30835,444
819.426941,460
819.545532,470
819.664124,467
819.782715,456
819.901306,464
820.019897,465
820.138489,464
820.25708,473
820.375671,461
820.494202,470
820.612732,475
820.731384,480
820.849915,466
820.968506,488
821.087097,440
821.205627,466
821.324158,454
821.442749,461
821.561279,449
821.679871,465
821.798401,456
821.916931,458
822.035461,454
822.154053,456
822.272583,467
822.391174,470
822.509583,470
822.628174,465
822.746704,450
822.865234,453
822.983765,474
823.102295,463
823.220825,454
823.339294,458
823.457825,449
823.576355,459
823.694824,455
823.813354,456
823.931885,445
824.050354,482
824.168884,467
824.287354,450
824.405823,432
824.524353,446
824.642822,477
824.761353,475
824.879822,451
824.998291,464
825.116699,441
825.235291,464
825.353699,450
825.472168,463
825.590637,475
825.709106,477
825.827576,446
825.946045,464
826.064453,456
826.182983,451
826.301392,463
826.4198,460
826.53833,462
826.656738,468
826.775208,438
826.893677,451
827.012024,433
827.130493,448
827.248962,444
827.36731,447
827.485779,437
827.604248,455
827.722595,440
827.841064,425
827.959412,460
828.077942,458
828.196289,472
828.314636,470
828.433105,447
828.551514,457
828.669861,462
828.78833,448
828.906677,469
829.025085,462
829.143433,453
829.261841,451
829.38031,464
829.498657,442
829.617004,458
829.735413,437
829.85376,451
829.972107,457
830.090515,462
830.208862,457
830.327209,452
830.445557,460
830.563904,432
830.682312,485
830.800659,450
830.919006,438
831.037354,459
831.155701,453
831.274048,454
831.392395,462
831.51062,434
831.629028,445
831.747314,451
831.865662,443
831.984009,449
832.102356,442
832.220642,466
832.338928,458
832.457275,449
832.575623,458
832.693909,456
832.812134,452
832.930481,469
833.048828,443
833.167114,443
833.2854,456
833.403687,454
833.521973,456
833.640259,469
833.758545,451
833.876831,456
833.995056,458
834.113281,444
834.231628,452
834.349915,443
834.468201,453
834.586426,457
834.704651,459
834.822998,465
834.941162,435
835.059448,449
835.177673,440
835.295959,440
835.414246,457
835.53241,446
835.650635,452
835.768921,452
835.887146,442
836.005371,452
836.123596,433
836.241821,455
836.360046,440
836.478271,442
836.596497,452
836.714722,462
836.832886,460
836.95105,446
837.069336,459
837.1875,457
837.305725,453
837.423889,450
837.542053,450
837.660339,456
837.778503,457
837.896667,455
838.014832,462
838.132996,453
838.25116,435
838.369385,462
838.487488,436
838.605713,456
838.723877,440
838.84198,465
838.960205,453
839.078308,447
839.196472,441
839.314636,441
839.4328,445
839.550964,467
839.669067,438
839.787231,464
839.905396,436
840.023499,431
840.141602,465
840.259766,449
840.377869,451
840.495972,456
840.614136,452
840.732239,446
840.850342,426
840.968445,468
841.086548,445
841.204651,465
841.322754,454
841.440918,455
841.55896,430
841.677002,452
841.795166,456
841.913208,448
842.031311,463
842.149353,424
842.267456,447
842.385498,436
842.503601,446
842.621643,464
842.739746,444
842.857788,459
842.97583,446
843.093933,433
843.211975,451
843.330017,451
843.44812,458
843.566101,450
843.684204,454
843.802246,448
843.920227,447
844.038269,468
844.156311,452
844.274292,449
844.392395,437
844.510376,459
844.628357,450
844.74646,434
844.864441,441
844.982422,460
845.100403,457
845.218384,456
845.336426,447
845.454468,451
845.572449,434
845.69043,445
845.808411,435
845.926453,454
846.044373,447
846.162354,436
846.280396,462
846.398315,443
846.516296,450
846.634216,448
846.752197,449
846.870178,455
846.988098,443
847.106079,444
847.22406,443
847.34198,456
847.4599,433
847.577881,466
847.695801,468
847.813782,457
847.931641,451
848.049561,460
848.167603,451
848.285461,425
848.403381,458
848.521362,453
848.639221,441
848.75708,434
848.875,442
848.99292,445
849.110901,434
849.22876,435
849.34668,445
849.464539,448
849.582458,460
849.700317,444
849.818176,439
849.936096,433
850.053955,439
850.171875,474
850.289673,455
850.407593,446
850.525452,448
850.643311,443
850.761169,444
850.878967,439
850.996887,446
851.114746,437
851.232544,455
851.350403,448
851.468262,447
851.58606,447
851.703979,452
851.821777,431
851.939636,452
852.057434,426
852.175232,461
852.293091,433
852.410889,452
852.528687,465
852.646545,448
852.764343,452
852.88208,446
852.999939,446
853.117676,464
853.235535,477
853.353271,435
853.471069,458
853.588928,443
853.706604,444
853.824402,432
853.9422,452
854.059998,441
854.177734,450
854.295532,443
854.413269,447
854.531006,432
854.648804,465
854.766541,450
854.884277,467
855.002014,437
855.119751,440
855.237549,468
855.355225,456
855.473022,442
855.590698,458
855.708435,436
855.826172,461
855.943848,443
856.061646,462
856.179321,420
856.296997,461
856.414795,455
856.53241,459
856.650085,453
856.767822,454
856.885559,475
857.003174,447
857.120911,447
857.238586,448
857.356201,461
857.473938,464
857.591614,455
857.709351,444
857.826965,454
857.944641,455
858.062317,454
858.179993,447
858.297668,450
858.415283,467
858.532959,438
858.650574,451
858.768188,448
858.885803,461
859.003479,457
859.121094,461
859.23877,454
859.356384,451
859.473999,445
859.591675,466
859.709229,456
859.826843,437
859.944458,461
860.062012,455
860.179626,458
860.297302,448
860.414856,464
860.532471,451
860.650024,445
860.767639,432
860.885193,461
861.002808,454
861.120361,447
861.237976,454
861.35553,454
861.473022,440
861.590698,455
861.708191,461
861.825745,424
861.943298,467
862.060852,452
862.178406,478
862.295959,453
862.413513,452
862.531006,438
862.64856,431
862.766113,449
862.883667,448
863.00116,444
863.118713,449
863.236206,469
863.353699,444
863.471252,443
863.588745,432
863.706177,445
863.82373,468
863.941162,467
864.058716,458
864.176208,423
864.29364,462
864.411194,455
864.528687,449
864.646118,441
864.763611,445
864.881042,474
864.998535,444
865.116028,439
865.233459,449
865.350891,454
865.468384,455
865.585754,449
865.703308,460
865.820679,450
865.938171,452
866.055542,445
866.173035,460
866.290466,456
866.407837,456
866.52533,455
866.6427,471
866.760071,448
866.877563,469
866.994934,447
867.112305,456
867.229736,457
867.347107,431
867.464539,459
867.58197,453
867.699341,458
867.81665,439
867.934082,471
868.051453,460
868.168823,451
868.286194,444
868.403564,443
868.520935,460
868.638306,442
868.755676,454
868.872986,461
868.990295,466
869.107727,452
869.225037,451
869.342346,448
869.459717,451
869.577026,443
869.694336,448
869.811707,457
869.929016,458
870.046326,457
870.163635,448
870.280945,460
870.398254,452
870.515564,440
870.632812,448
870.750183,455
870.867432,477
870.984741,447
871.102051,442
871.219299,467
871.336609,482
871.453918,456
871.571106,466
871.688416,453
871.805664,463
871.922852,433
872.040222,475
872.157471,456
872.274719,464
872.391968,463
872.509155,444
872.626465,443
872.743652,450
872.860962,451
872.978149,452
873.095337,472
873.212646,447
873.329834,454
873.44696,458
873.564209,451
873.681396,465
873.798645,468
873.915894,452
874.03302,466
874.150208,462
874.267456,450
874.384583,461
874.501831,453
874.618958,468
874.736145,456
874.853333,444
874.970459,447
875.087646,467
875.204834,461
875.32196,466
875.439148,466
875.556274,450
875.673401,467
875.790527,467
875.907715,448
876.024841,458
876.141968,430
876.259094,453
876.376282,438
876.493347,454
876.610474,450
876.7276,455
876.844727,461
876.961853,447
877.078918,456
877.195984,444
877.313171,437
877.430237,467
877.547302,434
877.664368,458
877.781433,455
877.898499,462
878.015625,461
878.13269,444
878.249695,431
878.366821,462
878.483887,453
878.600952,456
878.717957,468
878.834961,477
878.952087,465
879.069092,469
879.186157,456
879.303162,444
879.420227,440
879.537231,453
879.654236,457
879.77124,452
879.888306,456
880.005249,457
880.122314,456
880.239319,465
880.356323,455
880.473328,440
880.590271,457
880.707275,445
880.824341,461
880.941284,456
881.058228,449
881.175232,463
881.292236,443
881.40918,461
881.526123,446
881.643066,473
881.760071,463
881.877014,456
881.993958,444
882.11084,461
882.227783,464
882.344727,471
882.46167,456
882.578613,463
882.695618,452
882.812439,466
882.929382,451
883.046326,471
883.163208,463
883.280151,451
883.397034,438
883.513916,448
883.630798,442
883.747742,458
883.864563,463
883.981506,466
884.098389,450
884.21521,460
884.332153,452
884.448975,453
884.565796,473
884.682678,476
884.7995,458
884.916443,471
885.033264,477
885.150085,475
885.266968,455
885.383789,455
885.500671,458
885.617493,464
885.734314,463
885.851196,451
885.967896,450
886.084717,459
886.201599,470
886.318359,448
886.435181,453
886.552002,453
886.668762,477
886.785645,437
886.902344,482
887.019165,463
887.135925,458
887.252747,475
887.369446,445
887.486267,470
887.603027,461
887.719788,467
887.836548,458
887.953247,446
888.070068,455
888.186829,480
888.303528,451
888.420288,475
888.536987,453
888.653687,466
888.770447,460
888.887146,448
889.003967,461
889.120667,461
889.237305,467
889.354065,464
889.470703,463
889.587463,450
889.704163,451
889.820862,476
889.937561,469
890.054199,474
890.170837,457
890.287598,461
890.404236,441
890.520874,456
890.637634,467
890.754211,469
890.87085,466
890.987549,480
891.104187,450
891.220886,475
891.337463,477
891.454102,457
891.57074,464
891.687378,474
891.804077,470
891.920654,449
892.037231,460
892.15387,467
892.270447,459
892.387085,462
892.503723,466
892.6203,465
892.736877,477
892.853516,462
892.970032,464
893.08667,474
893.203186,486
893.319763,462
893.43634,465
893.552917,474
893.669556,470
893.786011,446
893.902588,465
894.019165,454
894.135681,468
894.252197,481
894.368835,479
894.485291,487
894.601868,469
894.718384,487
894.8349,463
894.951355,458
895.067932,457
895.184448,461
895.300964,446
895.417419,478
895.533936,458
895.650452,478
895.766907,462
895.883423,485
895.999878,457
896.116333,492
896.232849,447
896.349304,476
896.465759,449
896.582214,467
896.698669,462
896.815125,483
896.931641,471
897.048035,473
897.164551,467
897.280884,464
897.397339,456
897.513794,460
897.630249,486
897.746582,476
897.863098,455
897.979431,480
898.095886,462
898.212341,459
898.328674,467
898.445129,464
898.561462,480
898.677795,458
898.794312,480
898.910645,459
899.026978,447
899.143433,462
899.259766,445
899.37616,459
899.492493,451
899.608765,474
899.725159,462
899.841553,491
899.957947,470
900.07428,460
900.190552,481
900.306946,474
900.423157,456
900.53949,482
900.655884,460
900.772156,470
900.888489,449
901.004822,475
901.121033,466
901.237366,478
901.353699,448
901.46991,460
901.586304,459
901.702515,467
901.818787,472
901.93512,476
902.051331,477
902.167603,463
902.283875,446
902.400085,473
902.516418,485
902.632629,484
902.74884,459
902.865112,468
902.981384,468
903.097595,457
903.213867,501
903.330017,470
903.446289,482
903.5625,466
903.67865,469
903.794922,474
903.911072,480
904.027344,475
904.143494,469
904.259705,473
904.375916,473
904.492065,493
904.608215,443
904.724426,479
904.840576,476
904.956726,478
905.072876,476
905.189087,475
905.305176,481
905.421387,457
905.537537,480
905.653687,465
905.769775,471
905.885925,467
906.002014,447
906.118164,472
906.234314,466
906.350403,469
906.466492,485
906.582642,482
906.69873,481
906.814758,481
906.930908,461
907.046936,481
907.163086,468
907.279175,486
907.395264,475
907.511353,477
907.62738,481
907.743408,479
907.859497,469
907.975525,473
908.091553,467
908.207703,473
908.32373,464
908.439758,462
908.555786,470
908.671814,483
908.787842,491
908.90387,470
909.019775,472
909.135864,468
909.251892,486
909.367859,470
909.483826,481
909.599854,460
909.715881,464
909.831848,491
909.947815,488
910.063782,481
910.179749,472
910.295776,441
910.411743,482
910.527649,484
910.643616,473
910.759583,483
910.875488,473
910.991455,478
911.107361,474
911.223267,467
911.339294,456
911.4552,490
911.571106,496
911.687073,472
911.802979,465
911.918823,483
912.034729,478
912.150635,485
912.266602,460
912.382446,484
912.498352,468
912.614197,468
912.730103,458
912.846008,479
