792.44574,505
792.56488,534
792.68396,585
792.80304,565
792.92218,542
793.041199,511
793.160339,502
793.279419,503
793.398499,502
793.517578,489
793.636658,482
793.755737,508
793.874817,504
793.993896,534
794.112976,499
794.232056,505
794.351074,510
794.470215,513
794.589233,520
794.708313,502
794.827393,517
794.946411,503
795.065552,498
795.18457,508
795.303589,486
795.422668,513
795.541687,509
795.660767,505
795.779846,501
795.898865,497
796.017883,489
796.136963,493
796.255981,513
796.375061,504
796.49408,493
796.613037,504
796.732117,509
796.851135,506
796.970154,500
797.089233,493
797.208191,491
797.327271,505
797.446228,490
797.565186,489
797.684265,502
797.803223,479
797.922241,485
798.04126,499
798.160278,497
798.279297,494
798.398315,489
798.517273,493
798.636292,497
798.75531,507
798.874268,490
798.993286,499
799.112244,518
799.231323,500
799.350281,485
799.469238,485
799.588257,492
799.707153,478
799.826111,501
799.945129,506
800.064087,478
800.183044,487
800.302063,486
800.421021,509
800.539978,474
800.658936,519
800.777893,495
800.896912,492
801.015747,504
801.134705,504
801.253723,492
801.37262,501
801.491638,489
801.610535,495
801.729492,503
801.84845,505
801.967407,503
802.086243,480
802.205261,495
802.324158,488
802.443115,488
802.562073,490
802.680969,466
802.799927,486
802.918762,484
803.037659,482
803.156677,499
803.275574,472
803.39447,473
803.513428,502
803.632263,484
803.751221,495
803.870117,492
803.989014,495
804.107971,488
804.226746,495
804.345642,476
804.4646,505
804.583496,503
804.702393,482
804.821228,495
804.940125,500
805.059021,479
805.177917,507
805.296814,495
805.415649,470
805.534546,498
805.653442,506
805.772278,501
805.891113,490
806.01001,500
806.128906,505
806.247742,482
806.366577,479
806.485413,494
806.604309,491
806.723145,479
806.84198,485
806.960876,513
807.079712,480
807.198486,485
807.317383,489
807.436218,493
807.554993,513
807.673889,486
807.792725,515
807.91156,479
808.030396,498
808.14917,479
808.268005,498
808.386841,490
808.505676,475
808.624451,500
808.743286,489
808.862122,493
808.980896,497
809.099731,483
809.218506,494
809.337341,504
809.456116,494
809.57489,480
809.693726,495
809.8125,495
809.931274,485
810.050049,505
810.168884,497
810.287659,479
810.406372,486
810.525269,495
810.643982,478
810.762756,493
810.881531,505
811.000305,491
811.11908,515
811.237854,485
811.356567,491
811.475403,487
811.594116,513
811.71283,487
811.831604,512
811.950378,486
812.069153,488
812.187927,487
812.30658,490
812.425415,498
812.544128,462
812.662781,489
812.781616,495
812.900269,481
813.019043,482
813.137756,490
813.256531,484
813.375244,494
813.493896,496
813.612671,507
813.731384,490
813.850037,484
813.96875,490
814.087524,497
814.206238,495
814.324951,494
814.443604,499
814.562256,485
814.68103,476
814.799683,517
814.918335,495
815.037109,484
815.155762,502
815.274475,505
815.393188,507
815.511841,492
815.630554,488
815.749146,494
815.867859,488
815.986572,479
816.105164,480
816.223877,493
816.342529,490
816.461182,473
816.579895,490
816.698486,485
816.817139,492
816.935791,488
817.054504,482
817.173096,484
817.291748,498
817.4104,495
817.529053,441
817.647644,492
817.766235,490
817.884949,477
818.00354,482
818.122192,465
818.240845,492
818.359436,454
818.478088,478
818.59668,478
818.715271,481
818.833923,458
818.952515,469
819.071106,468
819.189758,484
819.30835,462
819.426941,470
819.545532,478
819.664124,464
819.782715,470
819.901306,465
820.019897,479
820.138489,477
820.25708,454
820.375671,469
820.494202,468
820.612732,490
820.731384,482
820.849915,456
820.968506,472
821.087097,473
821.205627,467
821.324158,466
821.442749,467
821.561279,459
821.679871,478
821.798401,482
821.916931,470
822.035461,466
822.154053,466
822.272583,456
822.391174,462
822.509583,469
822.628174,463
822.746704,469
822.865234,468
822.983765,486
823.102295,464
823.220825,454
823.339294,477
823.457825,461
823.576355,460
823.694824,468
823.813354,478
823.931885,453
824.050354,464
824.168884,449
824.287354,439
824.405823,466
824.524353,471
824.642822,465
824.761353,455
824.879822,460
824.998291,459
825.116699,465
825.235291,471
825.353699,478
825.472168,455
825.590637,469
825.709106,467
825.827576,468
825.946045,450
826.064453,461
826.182983,455
826.301392,460
826.4198,455
826.53833,456
826.656738,453
826.775208,466
826.893677,465
827.012024,468
827.130493,463
827.248962,453
827.36731,467
827.485779,458
827.604248,448
827.722595,464
827.841064,441
827.959412,465
828.077942,451
828.196289,468
828.314636,445
828.433105,462
828.551514,453
828.669861,447
828.78833,438
828.906677,450
829.025085,467
829.143433,468
829.261841,459
829.38031,466
829.498657,477
829.617004,472
829.735413,462
829.85376,455
829.972107,455
830.090515,444
830.208862,443
830.327209,445
830.445557,446
830.563904,456
830.682312,473
830.800659,466
830.919006,455
831.037354,444
831.155701,447
831.274048,468
831.392395,468
831.51062,468
831.629028,446
831.747314,470
831.865662,461
831.984009,455
832.102356,443
832.220642,455
832.338928,461
832.457275,464
832.575623,442
832.693909,461
832.812134,453
832.930481,452
833.048828,442
833.167114,453
833.2854,448
833.403687,470
833.521973,452
833.640259,463
833.758545,463
833.876831,472
833.995056,471
834.113281,444
834.231628,455
834.349915,434
834.468201,461
834.586426,483
834.704651,458
834.822998,465
834.941162,470
835.059448,458
835.177673,445
835.295959,434
835.414246,442
835.53241,447
835.650635,450
835.768921,460
835.887146,454
836.005371,450
836.123596,448
836.241821,466
836.360046,463
836.478271,451
836.596497,436
836.714722,469
836.832886,454
836.95105,461
837.069336,460
837.1875,447
837.305725,459
837.423889,462
837.542053,481
837.660339,465
837.778503,446
837.896667,464
838.014832,459
838.132996,468
838.25116,456
838.369385,459
838.487488,453
838.605713,463
838.723877,439
838.84198,463
838.960205,456
839.078308,451
839.196472,458
839.314636,441
839.4328,454
839.550964,461
839.669067,455
839.787231,443
839.905396,459
840.023499,461
840.141602,462
840.259766,461
840.377869,476
840.495972,469
840.614136,448
840.732239,470
840.850342,458
840.968445,461
841.086548,470
841.204651,461
841.322754,472
841.440918,475
841.55896,458
841.677002,455
841.795166,478
841.913208,435
842.031311,433
842.149353,444
842.267456,451
842.385498,456
842.503601,448
842.621643,439
842.739746,452
842.857788,451
842.97583,452
843.093933,436
843.211975,449
843.330017,434
843.44812,441
843.566101,451
843.684204,442
843.802246,435
843.920227,448
844.038269,449
844.156311,451
844.274292,460
844.392395,451
844.510376,445
844.628357,444
844.74646,441
844.864441,440
844.982422,434
845.100403,456
845.218384,436
845.336426,467
845.454468,454
845.572449,449
845.69043,450
845.808411,454
845.926453,435
846.044373,468
846.162354,460
846.280396,463
846.398315,461
846.516296,457
846.634216,452
846.752197,442
846.870178,458
846.988098,437
847.106079,458
847.22406,443
847.34198,435
847.4599,457
847.577881,451
847.695801,461
847.813782,458
847.931641,460
848.049561,447
848.167603,455
848.285461,451
848.403381,461
848.521362,446
848.639221,439
848.75708,448
848.875,446
848.99292,443
849.110901,448
849.22876,461
849.34668,466
849.464539,454
849.582458,427
849.700317,443
849.818176,459
849.936096,456
850.053955,440
850.171875,447
850.289673,457
850.407593,455
850.525452,451
850.643311,445
850.761169,453
850.878967,450
850.996887,466
851.114746,438
851.232544,445
851.350403,451
851.468262,454
851.58606,443
851.703979,441
851.821777,463
851.939636,438
852.057434,477
852.175232,454
852.293091,450
852.410889,444
852.528687,457
852.646545,455
852.764343,441
852.88208,437
852.999939,443
853.117676,463
853.235535,449
853.353271,457
853.471069,449
853.588928,456
853.706604,449
853.824402,448
853.9422,440
854.059998,449
854.177734,455
854.295532,427
854.413269,441
854.531006,434
854.648804,447
854.766541,441
854.884277,446
855.002014,466
855.119751,453
855.237549,449
855.355225,452
855.473022,463
855.590698,460
855.708435,463
855.826172,463
855.943848,463
856.061646,473
856.179321,453
856.296997,472
856.414795,454
856.53241,450
856.650085,466
856.767822,442
856.885559,451
857.003174,432
857.120911,455
857.238586,451
857.356201,440
857.473938,456
857.591614,445
857.709351,458
857.826965,451
857.944641,459
858.062317,460
858.179993,452
858.297668,460
858.415283,487
858.532959,472
858.650574,453
858.768188,449
858.885803,464
859.003479,474
859.121094,471
859.23877,448
859.356384,456
859.473999,448
859.591675,446
859.709229,452
859.826843,470
859.944458,451
860.062012,443
860.179626,460
860.297302,446
860.414856,463
860.532471,475
860.650024,473
860.767639,452
860.885193,458
861.002808,443
861.120361,447
861.237976,468
861.35553,450
861.473022,439
861.590698,442
861.708191,445
861.825745,473
861.943298,460
862.060852,466
862.178406,456
862.295959,463
862.413513,443
862.531006,451
862.64856,449
862.766113,470
862.883667,460
863.00116,438
863.118713,455
863.236206,453
863.353699,449
863.471252,437
863.588745,447
863.706177,456
863.82373,465
863.941162,437
864.058716,453
864.176208,461
864.29364,451
864.411194,465
864.528687,453
864.646118,460
864.763611,454
864.881042,451
864.998535,468
865.116028,444
865.233459,450
865.350891,473
865.468384,457
865.585754,460
865.703308,460
865.820679,457
865.938171,457
866.055542,464
866.173035,447
866.290466,456
866.407837,473
866.52533,462
866.6427,448
866.760071,462
866.877563,470
866.994934,459
867.112305,454
867.229736,456
867.347107,455
867.464539,465
867.58197,454
867.699341,440
867.81665,461
867.934082,436
868.051453,460
868.168823,465
868.286194,455
868.403564,448
868.520935,433
868.638306,453
868.755676,456
868.872986,458
868.990295,466
869.107727,479
869.225037,473
869.342346,462
869.459717,468
869.577026,459
869.694336,478
869.811707,459
869.929016,463
870.046326,443
870.163635,458
870.280945,436
870.398254,451
870.515564,469
870.632812,441
870.750183,451
870.867432,467
870.984741,466
871.102051,466
871.219299,453
871.336609,469
871.453918,462
871.571106,464
871.688416,457
871.805664,450
871.922852,464
872.040222,478
872.157471,463
872.274719,466
872.391968,458
872.509155,462
872.626465,478
872.743652,462
872.860962,465
872.978149,453
873.095337,466
873.212646,461
873.329834,459
873.44696,453
873.564209,453
873.681396,448
873.798645,465
873.915894,459
874.03302,456
874.150208,465
874.267456,469
874.384583,453
874.501831,463
874.618958,458
874.736145,472
874.853333,455
874.970459,454
875.087646,454
875.204834,460
875.32196,456
875.439148,429
875.556274,445
875.673401,461
875.790527,458
875.907715,455
876.024841,457
876.141968,442
876.259094,460
876.376282,458
876.493347,463
876.610474,464
876.7276,465
876.844727,461
876.961853,469
877.078918,466
877.195984,458
877.313171,458
877.430237,472
877.547302,447
877.664368,456
877.781433,465
877.898499,462
878.015625,455
878.13269,476
878.249695,447
878.366821,465
878.483887,464
878.600952,479
878.717957,471
878.834961,469
878.952087,458
879.069092,467
879.186157,445
879.303162,457
879.420227,465
879.537231,470
879.654236,470
879.77124,451
879.888306,467
880.005249,459
880.122314,454
880.239319,467
880.356323,448
880.473328,461
880.590271,466
880.707275,466
880.824341,448
880.941284,454
881.058228,449
881.175232,459
881.292236,462
881.40918,469
881.526123,447
881.643066,456
881.760071,459
881.877014,468
881.993958,472
882.11084,459
882.227783,452
882.344727,490
882.46167,481
882.578613,466
882.695618,457
882.812439,456
882.929382,457
883.046326,458
883.163208,474
883.280151,448
883.397034,466
883.513916,473
883.630798,460
883.747742,458
883.864563,449
883.981506,465
884.098389,430
884.21521,463
884.332153,459
884.448975,450
884.565796,457
884.682678,458
884.7995,438
884.916443,466
885.033264,450
885.150085,449
885.266968,465
885.383789,464
885.500671,458
885.617493,461
885.734314,479
885.851196,456
885.967896,474
886.084717,462
886.201599,453
886.318359,471
886.435181,465
886.552002,482
886.668762,469
886.785645,470
886.902344,452
887.019165,486
887.135925,469
887.252747,468
887.369446,477
887.486267,468
887.603027,466
887.719788,462
887.836548,471
887.953247,475
888.070068,476
888.186829,465
888.303528,454
888.420288,477
888.536987,465
888.653687,451
888.770447,445
888.887146,464
889.003967,481
889.120667,464
889.237305,451
889.354065,475
889.470703,440
889.587463,460
889.704163,451
889.820862,463
889.937561,481
890.054199,462
890.170837,468
890.287598,466
890.404236,459
890.520874,459
890.637634,479
890.754211,439
890.87085,470
890.987549,474
891.104187,470
891.220886,473
891.337463,457
891.454102,465
891.57074,480
891.687378,467
891.804077,470
891.920654,458
892.037231,461
892.15387,471
892.270447,457
892.387085,474
892.503723,474
892.6203,470
892.736877,467
892.853516,468
892.970032,467
893.08667,447
893.203186,473
893.319763,460
893.43634,466
893.552917,481
893.669556,472
893.786011,449
893.902588,472
894.019165,460
894.135681,485
894.252197,477
894.368835,465
894.485291,467
894.601868,456
894.718384,487
894.8349,471
894.951355,467
895.067932,463
895.184448,465
895.300964,477
895.417419,486
895.533936,463
895.650452,474
895.766907,464
895.883423,471
895.999878,461
896.116333,462
896.232849,471
896.349304,478
896.465759,478
896.582214,459
896.698669,477
896.815125,454
896.931641,483
897.048035,449
897.164551,473
897.280884,473
897.397339,486
897.513794,477
897.630249,488
897.746582,483
897.863098,457
897.979431,484
898.095886,472
898.212341,467
898.328674,496
898.445129,460
898.561462,471
898.677795,488
898.794312,486
898.910645,473
899.026978,478
899.143433,484
899.259766,459
899.37616,479
899.492493,469
899.608765,473
899.725159,484
899.841553,450
899.957947,479
900.07428,492
900.190552,470
900.306946,489
900.423157,473
900.53949,470
900.655884,469
900.772156,471
900.888489,467
901.004822,457
901.121033,475
901.237366,474
901.353699,472
901.46991,471
901.586304,464
901.702515,485
901.818787,465
901.93512,477
902.051331,480
902.167603,470
902.283875,474
902.400085,499
902.516418,464
902.632629,458
902.74884,466
902.865112,472
902.981384,450
903.097595,480
903.213867,487
903.330017,474
903.446289,450
903.5625,456
903.67865,450
903.794922,474
903.911072,492
904.027344,473
904.143494,468
904.259705,470
904.375916,461
904.492065,495
904.608215,484
904.724426,485
904.840576,474
904.956726,489
905.072876,463
905.189087,467
905.305176,469
905.421387,483
905.537537,466
905.653687,460
905.769775,481
905.885925,451
906.002014,472
906.118164,471
906.234314,475
906.350403,473
906.466492,480
906.582642,482
906.69873,483
906.814758,483
906.930908,482
907.046936,479
907.163086,481
907.279175,479
907.395264,448
907.511353,477
907.62738,488
907.743408,477
907.859497,474
907.975525,474
908.091553,495
908.207703,498
908.32373,472
908.439758,482
908.555786,492
908.671814,506
908.787842,480
908.90387,491
909.019775,489
909.135864,490
909.251892,512
909.367859,462
909.483826,460
909.599854,485
909.715881,482
909.831848,481
909.947815,492
910.063782,487
910.179749,479
910.295776,481
910.411743,491
910.527649,482
910.643616,468
910.759583,500
910.875488,494
910.991455,479
911.107361,470
911.223267,483
911.339294,482
911.4552,497
911.571106,478
911.687073,495
911.802979,468
911.918823,478
912.034729,459
912.150635,477
912.266602,492
912.382446,470
912.498352,491
912.614197,454
912.730103,470
912.846008,473
792.44574,516
792.56488,559
792.68396,598
792.80304,551
792.92218,520
793.041199,501
793.160339,509
793.279419,501
793.398499,519
793.517578,493
793.636658,515
793.755737,511
793.874817,532
793.993896,503
794.112976,521
794.232056,498
794.351074,505
794.470215,506
794.589233,488
794.708313,499
794.827393,512
794.946411,501
795.065552,511
795.18457,500
795.303589,518
795.422668,509
795.541687,511
795.660767,514
795.779846,504
795.898865,501
796.017883,489
796.136963,505
796.255981,507
796.375061,512
796.49408,491
796.613037,480
796.732117,480
796.851135,497
796.970154,502
797.089233,514
797.208191,494
797.327271,501
797.446228,511
797.565186,482
797.684265,523
797.803223,495
797.922241,512
798.04126,499
798.160278,504
798.279297,494
798.398315,497
798.517273,492
798.636292,502
798.75531,508
798.874268,496
798.993286,478
799.112244,483
799.231323,497
799.350281,473
799.469238,500
799.588257,504
799.707153,494
799.826111,510
799.945129,494
800.064087,502
800.183044,494
800.302063,496
800.421021,496
800.539978,504
800.658936,487
800.777893,495
800.896912,495
801.015747,514
801.134705,495
801.253723,475
801.37262,491
801.491638,485
801.610535,493
801.729492,495
801.84845,477
801.967407,507
802.086243,493
802.205261,509
802.324158,508
802.443115,482
802.562073,492
802.680969,484
802.799927,470
802.918762,487
803.037659,496
803.156677,461
803.275574,497
803.39447,471
803.513428,487
803.632263,502
803.751221,487
803.870117,504
803.989014,479
804.107971,504
804.226746,500
804.345642,473
804.4646,495
804.583496,473
804.702393,491
804.821228,508
804.940125,520
805.059021,507
805.177917,482
805.296814,486
805.415649,476
805.534546,469
805.653442,490
805.772278,500
805.891113,486
806.01001,515
806.128906,495
806.247742,496
806.366577,487
806.485413,466
806.604309,496
806.723145,476
806.84198,493
806.960876,504
807.079712,512
807.198486,481
807.317383,495
807.436218,490
807.554993,478
807.673889,488
807.792725,499
807.91156,478
808.030396,493
808.14917,486
808.268005,495
808.386841,493
808.505676,494
808.624451,509
808.743286,497
808.862122,482
808.980896,515
809.099731,497
809.218506,497
809.337341,509
809.456116,494
809.57489,497
809.693726,494
809.8125,510
809.931274,492
810.050049,473
810.168884,494
810.287659,496
810.406372,487
810.525269,489
810.643982,491
810.762756,506
810.881531,512
811.000305,494
811.11908,487
811.237854,481
811.356567,501
811.475403,479
811.594116,480
811.71283,510
811.831604,498
811.950378,512
812.069153,479
812.187927,485
812.30658,495
812.425415,485
812.544128,487
812.662781,498
812.781616,508
812.900269,483
813.019043,493
813.137756,486
813.256531,487
813.375244,485
813.493896,494
813.612671,480
813.731384,468
813.850037,477
813.96875,501
814.087524,495
814.206238,488
814.324951,459
814.443604,482
814.562256,489
814.68103,504
814.799683,499
814.918335,498
815.037109,484
815.155762,499
815.274475,479
815.393188,482
815.511841,472
815.630554,511
815.749146,485
815.867859,478
815.986572,497
816.105164,508
816.223877,470
816.342529,465
816.461182,481
816.579895,500
816.698486,502
816.817139,494
816.935791,485
817.054504,484
817.173096,506
817.291748,475
817.4104,495
817.529053,501
817.647644,474
817.766235,472
817.884949,465
818.00354,473
818.122192,466
818.240845,477
818.359436,460
818.478088,471
818.59668,475
818.715271,470
818.833923,470
818.952515,459
819.071106,466
819.189758,471
819.30835,465
819.426941,459
819.545532,464
819.664124,464
819.782715,457
819.901306,466
820.019897,458
820.138489,476
820.25708,476
820.375671,483
820.494202,460
820.612732,474
820.731384,471
820.849915,465
820.968506,470
821.087097,472
821.205627,455
821.324158,456
821.442749,462
821.561279,469
821.679871,446
821.798401,471
821.916931,477
822.035461,455
822.154053,471
822.272583,471
822.391174,483
822.509583,467
822.628174,470
822.746704,461
822.865234,464
822.983765,456
823.102295,477
823.220825,472
823.339294,472
823.457825,432
823.576355,470
823.694824,460
823.813354,466
823.931885,449
824.050354,485
824.168884,458
824.287354,453
824.405823,466
824.524353,463
824.642822,484
824.761353,457
824.879822,456
824.998291,467
825.116699,462
825.235291,469
825.353699,467
825.472168,474
825.590637,475
825.709106,452
825.827576,470
825.946045,468
826.064453,458
826.182983,461
826.301392,453
826.4198,454
826.53833,460
826.656738,468
826.775208,462
826.893677,457
827.012024,462
827.130493,468
827.248962,467
827.36731,469
827.485779,446
827.604248,453
827.722595,456
827.841064,449
827.959412,445
828.077942,451
828.196289,460
828.314636,442
828.433105,470
828.551514,448
828.669861,464
828.78833,459
828.906677,456
829.025085,458
829.143433,457
829.261841,468
829.38031,470
829.498657,453
829.617004,448
829.735413,472
829.85376,453
829.972107,442
830.090515,474
830.208862,442
830.327209,468
830.445557,462
830.563904,453
830.682312,448
830.800659,457
830.919006,452
831.037354,464
831.155701,448
831.274048,462
831.392395,455
831.51062,440
831.629028,470
831.747314,461
831.865662,436
831.984009,456
832.102356,468
832.220642,463
832.338928,458
832.457275,434
832.575623,450
832.693909,427
832.812134,451
832.930481,460
833.048828,452
833.167114,449
833.2854,458
833.403687,455
833.521973,456
833.640259,461
833.758545,466
833.876831,475
833.995056,455
834.113281,465
834.231628,465
834.349915,464
834.468201,454
834.586426,460
834.704651,443
834.822998,471
834.941162,461
835.059448,451
835.177673,446
835.295959,460
835.414246,453
835.53241,456
835.650635,451
835.768921,446
835.887146,448
836.005371,463
836.123596,459
836.241821,456
836.360046,461
836.478271,473
836.596497,478
836.714722,463
836.832886,444
836.95105,451
837.069336,454
837.1875,455
837.305725,471
837.423889,454
837.542053,447
837.660339,456
837.778503,465
837.896667,476
838.014832,452
838.132996,449
838.25116,466
838.369385,470
838.487488,447
838.605713,473
838.723877,454
838.84198,452
838.960205,438
839.078308,451
839.196472,452
839.314636,469
839.4328,444
839.550964,438
839.669067,450
839.787231,450
839.905396,468
840.023499,435
840.141602,458
840.259766,466
840.377869,454
840.495972,452
840.614136,433
840.732239,463
840.850342,460
840.968445,464
841.086548,455
841.204651,449
841.322754,464
841.440918,447
841.55896,469
841.677002,451
841.795166,458
841.913208,455
842.031311,453
842.149353,462
842.267456,454
842.385498,474
842.503601,433
842.621643,461
842.739746,461
842.857788,453
842.97583,447
843.093933,457
843.211975,443
843.330017,458
843.44812,453
843.566101,456
843.684204,440
843.802246,446
843.920227,449
844.038269,452
844.156311,448
844.274292,481
844.392395,452
844.510376,460
844.628357,442
844.74646,450
844.864441,466
844.982422,460
845.100403,454
845.218384,461
845.336426,448
845.454468,459
845.572449,449
845.69043,446
845.808411,434
845.926453,453
846.044373,443
846.162354,454
846.280396,446
846.398315,432
846.516296,442
846.634216,433
846.752197,452
846.870178,442
846.988098,471
847.106079,467
847.22406,443
847.34198,460
847.4599,443
847.577881,446
847.695801,451
847.813782,451
847.931641,432
848.049561,472
848.167603,454
848.285461,448
848.403381,448
848.521362,445
848.639221,459
848.75708,444
848.875,456
848.99292,451
849.110901,459
849.22876,459
849.34668,445
849.464539,454
849.582458,458
849.700317,468
849.818176,454
849.936096,448
850.053955,460
850.171875,453
850.289673,452
850.407593,475
850.525452,462
850.643311,431
850.761169,438
850.878967,452
850.996887,442
851.114746,452
851.232544,452
851.350403,441
851.468262,464
851.58606,451
851.703979,445
851.821777,461
851.939636,450
852.057434,449
852.175232,479
852.293091,474
852.410889,444
852.528687,455
852.646545,458
852.764343,451
852.88208,467
852.999939,455
853.117676,436
853.235535,466
853.353271,459
853.471069,460
853.588928,450
853.706604,447
853.824402,444
853.9422,449
854.059998,450
854.177734,468
854.295532,454
854.413269,452
854.531006,458
854.648804,457
854.766541,451
854.884277,437
855.002014,466
855.119751,432
855.237549,459
855.355225,487
855.473022,470
855.590698,441
855.708435,454
855.826172,469
855.943848,441
856.061646,448
856.179321,455
856.296997,454
856.414795,459
856.53241,449
856.650085,466
856.767822,434
856.885559,446
857.003174,453
857.120911,470
857.238586,463
857.356201,455
857.473938,454
857.591614,449
857.709351,458
857.826965,451
857.944641,460
858.062317,441
858.179993,445
858.297668,436
858.415283,444
858.532959,462
858.650574,453
858.768188,460
858.885803,472
859.003479,444
859.121094,452
859.23877,450
859.356384,437
859.473999,454
859.591675,454
859.709229,448
859.826843,437
859.944458,449
860.062012,474
860.179626,431
860.297302,449
860.414856,437
860.532471,460
860.650024,433
860.767639,456
860.885193,474
861.002808,440
861.120361,449
861.237976,452
861.35553,448
861.473022,453
861.590698,469
861.708191,458
861.825745,457
861.943298,470
862.060852,467
862.178406,453
862.295959,468
862.413513,449
862.531006,454
862.64856,461
862.766113,457
862.883667,455
863.00116,467
863.118713,454
863.236206,459
863.353699,449
863.471252,448
863.588745,473
863.706177,467
863.82373,468
863.941162,451
864.058716,465
864.176208,458
864.29364,456
864.411194,445
864.528687,454
864.646118,466
864.763611,475
864.881042,446
864.998535,443
865.116028,458
865.233459,464
865.350891,436
865.468384,466
865.585754,436
865.703308,446
865.820679,454
865.938171,464
866.055542,434
866.173035,462
866.290466,464
866.407837,455
866.52533,451
866.6427,448
866.760071,443
866.877563,447
866.994934,460
867.112305,461
867.229736,447
867.347107,439
867.464539,456
867.58197,448
867.699341,448
867.81665,453
867.934082,452
868.051453,454
868.168823,459
868.286194,457
868.403564,459
868.520935,457
868.638306,442
868.755676,448
868.872986,465
868.990295,456
869.107727,461
869.225037,466
869.342346,455
869.459717,446
869.577026,473
869.694336,463
869.811707,463
869.929016,441
870.046326,464
870.163635,479
870.280945,442
870.398254,469
870.515564,462
870.632812,470
870.750183,462
870.867432,453
870.984741,445
871.102051,441
871.219299,468
871.336609,473
871.453918,449
871.571106,462
871.688416,461
871.805664,459
871.922852,455
872.040222,447
872.157471,457
872.274719,473
872.391968,466
872.509155,449
872.626465,468
872.743652,461
872.860962,453
872.978149,473
873.095337,459
873.212646,456
873.329834,462
873.44696,452
873.564209,450
873.681396,454
873.798645,454
873.915894,475
874.03302,440
874.150208,471
874.267456,457
874.384583,462
874.501831,470
874.618958,458
874.736145,463
874.853333,459
874.970459,464
875.087646,473
875.204834,448
875.32196,445
875.439148,454
875.556274,463
875.673401,467
875.790527,442
875.907715,467
876.024841,473
876.141968,447
876.259094,469
876.376282,472
876.493347,469
876.610474,469
876.7276,470
876.844727,454
876.961853,471
877.078918,445
877.195984,466
877.313171,466
877.430237,444
877.547302,452
877.664368,468
877.781433,456
877.898499,465
878.015625,471
878.13269,459
878.249695,444
878.366821,473
878.483887,459
878.600952,472
878.717957,458
878.834961,458
878.952087,453
879.069092,449
879.186157,487
879.303162,484
879.420227,454
879.537231,463
879.654236,457
879.77124,467
879.888306,469
880.005249,469
880.122314,466
880.239319,458
880.356323,462
880.473328,450
880.590271,460
880.707275,479
880.824341,463
880.941284,476
881.058228,458
881.175232,469
881.292236,472
881.40918,454
881.526123,477
881.643066,474
881.760071,457
881.877014,469
881.993958,465
882.11084,493
882.227783,464
882.344727,465
882.46167,471
882.578613,463
882.695618,454
882.812439,453
882.929382,463
883.046326,470
883.163208,469
883.280151,464
883.397034,467
883.513916,485
883.630798,455
883.747742,480
883.864563,473
883.981506,454
884.098389,467
884.21521,436
884.332153,461
884.448975,466
884.565796,471
884.682678,465
884.7995,460
884.916443,476
885.033264,445
885.150085,457
885.266968,468
885.383789,463
885.500671,469
885.617493,472
885.734314,443
885.851196,455
885.967896,481
886.084717,468
886.201599,477
886.318359,463
886.435181,477
886.552002,468
886.668762,465
886.785645,456
886.902344,459
887.019165,492
887.135925,459
887.252747,471
887.369446,461
887.486267,470
887.603027,466
887.719788,484
887.836548,464
887.953247,475
888.070068,466
888.186829,482
888.303528,469
888.420288,464
888.536987,467
888.653687,463
888.770447,481
888.887146,455
889.003967,465
889.120667,454
889.237305,457
889.354065,477
889.470703,483
889.587463,480
889.704163,456
889.820862,472
889.937561,477
890.054199,454
890.170837,469
890.287598,469
890.404236,462
890.520874,470
890.637634,454
890.754211,494
890.87085,464
890.987549,480
891.104187,456
891.220886,473
891.337463,450
891.454102,475
891.57074,466
891.687378,445
891.804077,471
891.920654,474
892.037231,455
892.15387,470
892.270447,471
892.387085,473
892.503723,462
892.6203,474
892.736877,472
892.853516,487
892.970032,487
893.08667,463
893.203186,495
893.319763,458
893.43634,484
893.552917,488
893.669556,471
893.786011,477
893.902588,474
894.019165,474
894.135681,467
894.252197,455
894.368835,450
894.485291,480
894.601868,477
894.718384,482
894.8349,461
894.951355,484
895.067932,474
895.184448,462
895.300964,469
895.417419,491
895.533936,474
895.650452,484
895.766907,481
895.883423,485
895.999878,466
896.116333,467
896.232849,475
896.349304,480
896.465759,470
896.582214,485
896.698669,474
896.815125,466
896.931641,489
897.048035,488
897.164551,477
897.280884,487
897.397339,475
897.513794,477
897.630249,488
897.746582,467
897.863098,460
897.979431,491
898.095886,466
898.212341,472
898.328674,490
898.445129,481
898.561462,474
898.677795,464
898.794312,460
898.910645,487
899.026978,469
899.143433,483
899.259766,470
899.37616,470
899.492493,480
899.608765,468
899.725159,459
899.841553,471
899.957947,466
900.07428,478
900.190552,484
900.306946,483
900.423157,503
900.53949,478
900.655884,482
900.772156,482
900.888489,483
901.004822,482
901.121033,469
901.237366,468
901.353699,480
901.46991,490
901.586304,475
901.702515,481
901.818787,471
901.93512,484
902.051331,484
902.167603,484
902.283875,499
902.400085,470
902.516418,469
902.632629,471
902.74884,474
902.865112,484
902.981384,466
903.097595,482
903.213867,488
903.330017,457
903.446289,471
903.5625,481
903.67865,466
903.794922,486
903.911072,490
904.027344,481
904.143494,479
904.259705,484
904.375916,504
904.492065,475
904.608215,482
904.724426,482
904.840576,465
904.956726,467
905.072876,485
905.189087,476
905.305176,470
905.421387,485
905.537537,463
905.653687,496
905.769775,487
905.885925,481
906.002014,473
906.118164,471
906.234314,491
906.350403,484
906.466492,466
906.582642,471
906.69873,486
906.814758,505
906.930908,493
907.046936,473
907.163086,480
907.279175,489
907.395264,473
907.511353,471
907.62738,497
907.743408,487
907.859497,496
907.975525,472
908.091553,495
908.207703,459
908.32373,472
908.439758,489
908.555786,471
908.671814,488
908.787842,477
908.90387,485
909.019775,469
909.135864,490
909.251892,488
909.367859,493
909.483826,481
909.599854,475
909.715881,483
909.831848,471
909.947815,452
910.063782,482
910.179749,476
910.295776,493
910.411743,479
910.527649,472
910.643616,503
910.759583,488
910.875488,470
910.991455,493
911.107361,489
911.223267,493
911.339294,489
911.4552,480
911.571106,485
911.687073,485
911.802979,494
911.918823,492
912.034729,495
912.150635,494
912.266602,478
912.382446,485
912.498352,475
912.614197,484
912.730103,482
912.846008,480
792.44574,551
792.56488,542
792.68396,588
792.80304,570
792.92218,499
793.041199,512
793.160339,519
793.279419,528
793.398499,509
793.517578,512
793.636658,525
793.755737,519
793.874817,531
793.993896,526
794.112976,529
794.232056,502
794.351074,490
794.470215,511
794.589233,511
794.708313,506
794.827393,488
794.946411,521
795.065552,497
795.18457,518
795.303589,517
795.422668,501
795.541687,501
795.660767,510
795.779846,521
795.898865,477
796.017883,500
796.136963,524
796.255981,483
796.375061,501
796.49408,514
796.613037,542
796.732117,501
796.851135,496
796.970154,485
797.089233,519
797.208191,489
797.327271,499
797.446228,489
797.565186,498
797.684265,491
797.803223,499
797.922241,505
798.04126,509
798.160278,500
798.279297,491
798.398315,497
798.517273,506
798.636292,501
798.75531,510
798.874268,506
798.993286,497
799.112244,502
799.231323,486
799.350281,514
799.469238,503
799.588257,506
799.707153,499
799.826111,487
799.945129,475
800.064087,503
800.183044,487
800.302063,501
800.421021,501
800.539978,498
800.658936,500
800.777893,491
800.896912,488
801.015747,490
801.134705,494
801.253723,478
801.37262,483
801.491638,492
801.610535,495
801.729492,500
801.84845,494
801.967407,501
802.086243,471
802.205261,509
802.324158,483
802.443115,498
802.562073,484
802.680969,488
802.799927,497
802.918762,500
803.037659,502
803.156677,502
803.275574,488
803.39447,494
803.513428,474
803.632263,507
803.751221,491
803.870117,518
803.989014,498
804.107971,500
804.226746,501
804.345642,471
804.4646,487
804.583496,495
804.702393,494
804.821228,478
804.940125,515
805.059021,484
805.177917,491
805.296814,501
805.415649,486
805.534546,504
805.653442,493
805.772278,480
805.891113,503
806.01001,502
806.128906,495
806.247742,496
806.366577,517
806.485413,507
806.604309,478
806.723145,496
806.84198,470
806.960876,482
807.079712,495
807.198486,479
807.317383,470
807.436218,522
807.554993,507
807.673889,496
807.792725,489
807.91156,510
808.030396,495
808.14917,504
808.268005,488
808.386841,494
808.505676,507
808.624451,485
808.743286,505
808.862122,496
808.980896,501
809.099731,498
809.218506,517
809.337341,507
809.456116,497
809.57489,510
809.693726,479
809.8125,483
809.931274,495
810.050049,476
810.168884,522
810.287659,501
810.406372,498
810.525269,491
810.643982,489
810.762756,495
810.881531,511
811.000305,488
811.11908,483
811.237854,484
811.356567,493
811.475403,505
811.594116,498
811.71283,497
811.831604,507
811.950378,495
812.069153,517
812.187927,483
812.30658,497
812.425415,484
812.544128,488
812.662781,493
812.781616,519
812.900269,502
813.019043,501
813.137756,487
813.256531,492
813.375244,505
813.493896,492
813.612671,490
813.731384,517
813.850037,503
813.96875,512
814.087524,491
814.206238,478
814.324951,492
814.443604,498
814.562256,500
814.68103,509
814.799683,496
814.918335,470
815.037109,503
815.155762,465
815.274475,474
815.393188,501
815.511841,485
815.630554,487
815.749146,472
815.867859,461
815.986572,492
816.105164,495
816.223877,507
816.342529,500
816.461182,488
816.579895,484
816.698486,467
816.817139,496
816.935791,456
817.054504,477
817.173096,495
817.291748,490
817.4104,502
817.529053,476
817.647644,483
817.766235,485
817.884949,502
818.00354,469
818.122192,485
818.240845,476
818.359436,459
818.478088,481
818.59668,502
818.715271,460
818.833923,471
818.952515,467
819.071106,463
819.189758,487
819.30835,470
819.426941,461
819.545532,479
819.664124,479
819.782715,490
819.901306,463
820.019897,476
820.138489,469
820.25708,463
820.375671,487
820.494202,468
820.612732,462
820.731384,482
820.849915,465
820.968506,457
821.087097,458
821.205627,477
821.324158,455
821.442749,469
821.561279,447
821.679871,468
821.798401,484
821.916931,469
822.035461,473
822.154053,468
822.272583,465
822.391174,490
822.509583,481
822.628174,473
822.746704,464
822.865234,462
822.983765,464
823.102295,470
823.220825,462
823.339294,457
823.457825,476
823.576355,480
823.694824,470
823.813354,482
823.931885,474
824.050354,476
824.168884,461
824.287354,446
824.405823,458
824.524353,451
824.642822,475
824.761353,458
824.879822,469
824.998291,482
825.116699,466
825.235291,442
825.353699,446
825.472168,450
825.590637,473
825.709106,468
825.827576,455
825.946045,451
826.064453,443
826.182983,463
826.301392,455
826.4198,449
826.53833,466
826.656738,463
826.775208,454
826.893677,460
827.012024,462
827.130493,457
827.248962,471
827.36731,446
827.485779,460
827.604248,436
827.722595,471
827.841064,451
827.959412,454
828.077942,445
828.196289,487
828.314636,460
828.433105,450
828.551514,447
828.669861,471
828.78833,467
828.906677,455
829.025085,467
829.143433,448
829.261841,446
829.38031,463
829.498657,463
829.617004,455
829.735413,470
829.85376,468
829.972107,453
830.090515,451
830.208862,448
830.327209,465
830.445557,483
830.563904,454
830.682312,454
830.800659,468
830.919006,466
831.037354,449
831.155701,445
831.274048,447
831.392395,463
831.51062,444
831.629028,454
831.747314,452
831.865662,477
831.984009,465
832.102356,446
832.220642,467
832.338928,447
832.457275,461
832.575623,459
832.693909,442
832.812134,463
832.930481,457
833.048828,479
833.167114,465
833.2854,458
833.403687,439
833.521973,462
833.640259,455
833.758545,456
833.876831,448
833.995056,449
834.113281,453
834.231628,455
834.349915,457
834.468201,476
834.586426,453
834.704651,480
834.822998,469
834.941162,475
835.059448,458
835.177673,454
835.295959,451
835.414246,459
835.53241,470
835.650635,442
835.768921,458
835.887146,453
836.005371,457
836.123596,454
836.241821,459
836.360046,458
836.478271,469
836.596497,467
836.714722,447
836.832886,456
836.95105,452
837.069336,456
837.1875,478
837.305725,434
837.423889,477
837.542053,459
837.660339,452
837.778503,452
837.896667,454
838.014832,466
838.132996,453
838.25116,461
838.369385,463
838.487488,460
838.605713,447
838.723877,463
838.84198,466
838.960205,466
839.078308,469
839.196472,459
839.314636,457
839.4328,448
839.550964,445
839.669067,463
839.787231,463
839.905396,452
840.023499,458
840.141602,455
840.259766,455
840.377869,456
840.495972,448
840.614136,454
840.732239,453
840.850342,459
840.968445,452
841.086548,440
841.204651,450
841.322754,452
841.440918,453
841.55896,442
841.677002,461
841.795166,446
841.913208,460
842.031311,439
842.149353,466
842.267456,461
842.385498,463
842.503601,432
842.621643,454
842.739746,454
842.857788,449
842.97583,457
843.093933,455
843.211975,462
843.330017,447
843.44812,459
843.566101,440
843.684204,443
843.802246,459
843.920227,447
844.038269,446
844.156311,437
844.274292,457
844.392395,478
844.510376,456
844.628357,452
844.74646,428
844.864441,447
844.982422,468
845.100403,451
845.218384,469
845.336426,466
845.454468,461
845.572449,436
845.69043,448
845.808411,452
845.926453,434
846.044373,463
846.162354,446
846.280396,450
846.398315,459
846.516296,448
846.634216,481
846.752197,470
846.870178,447
846.988098,436
847.106079,435
847.22406,447
847.34198,446
847.4599,433
847.577881,481
847.695801,458
847.813782,431
847.931641,465
848.049561,449
848.167603,464
848.285461,464
848.403381,453
848.521362,447
848.639221,481
848.75708,461
848.875,467
848.99292,456
849.110901,431
849.22876,453
849.34668,450
849.464539,467
849.582458,456
849.700317,468
849.818176,456
849.936096,459
850.053955,450
850.171875,458
850.289673,452
850.407593,458
850.525452,470
850.643311,462
850.761169,451
850.878967,471
850.996887,451
851.114746,457
851.232544,464
851.350403,452
851.468262,448
851.58606,453
851.703979,457
851.821777,457
851.939636,445
852.057434,448
852.175232,455
852.293091,443
852.410889,445
852.528687,463
852.646545,463
852.764343,446
852.88208,462
852.999939,463
853.117676,461
853.235535,466
853.353271,431
853.471069,444
853.588928,482
853.706604,457
853.824402,436
853.9422,467
854.059998,455
854.177734,449
854.295532,450
854.413269,460
854.531006,461
854.648804,457
854.766541,450
854.884277,473
855.002014,461
855.119751,460
855.237549,455
855.355225,450
855.473022,454
855.590698,457
855.708435,441
855.826172,461
855.943848,458
856.061646,441
856.179321,451
856.296997,443
856.414795,442
856.53241,451
856.650085,459
856.767822,436
856.885559,472
857.003174,454
857.120911,468
857.238586,458
857.356201,493
857.473938,461
857.591614,453
857.709351,451
857.826965,475
857.944641,439
858.062317,462
858.179993,455
858.297668,448
858.415283,453
858.532959,467
858.650574,470
858.768188,466
858.885803,461
859.003479,465
859.121094,479
859.23877,462
859.356384,466
859.473999,450
859.591675,445
859.709229,449
859.826843,460
859.944458,471
860.062012,443
860.179626,452
860.297302,462
860.414856,453
860.532471,453
860.650024,457
860.767639,452
860.885193,454
861.002808,460
861.120361,460
861.237976,467
861.35553,467
861.473022,451
861.590698,438
861.708191,455
861.825745,481
861.943298,453
862.060852,458
862.178406,459
862.295959,439
862.413513,442
862.531006,459
862.64856,469
862.766113,445
862.883667,447
863.00116,450
863.118713,453
863.236206,442
863.353699,458
863.471252,461
863.588745,434
863.706177,461
863.82373,465
863.941162,443
864.058716,454
864.176208,452
864.29364,455
864.411194,481
864.528687,459
864.646118,446
864.763611,461
864.881042,451
864.998535,462
865.116028,463
865.233459,463
865.350891,451
865.468384,469
865.585754,459
865.703308,462
865.820679,464
865.938171,446
866.055542,451
866.173035,461
866.290466,455
866.407837,445
866.52533,468
866.6427,459
866.760071,454
866.877563,454
866.994934,447
867.112305,460
867.229736,445
867.347107,458
867.464539,432
867.58197,466
867.699341,448
867.81665,466
867.934082,452
868.051453,456
868.168823,466
868.286194,461
868.403564,435
868.520935,459
868.638306,453
868.755676,455
868.872986,453
868.990295,460
869.107727,460
869.225037,471
869.342346,470
869.459717,476
869.577026,433
869.694336,472
869.811707,457
869.929016,461
870.046326,454
870.163635,469
870.280945,456
870.398254,469
870.515564,457
870.632812,475
870.750183,466
870.867432,458
870.984741,441
871.102051,447
871.219299,465
871.336609,458
871.453918,449
871.571106,466
871.688416,465
871.805664,450
871.922852,466
872.040222,445
872.157471,452
872.274719,476
872.391968,472
872.509155,449
872.626465,461
872.743652,469
872.860962,438
872.978149,482
873.095337,465
873.212646,479
873.329834,453
873.44696,473
873.564209,454
873.681396,460
873.798645,461
873.915894,482
874.03302,470
874.150208,459
874.267456,452
874.384583,468
874.501831,449
874.618958,452
874.736145,455
874.853333,469
874.970459,461
875.087646,452
875.204834,459
875.32196,466
875.439148,461
875.556274,456
875.673401,454
875.790527,478
875.907715,458
876.024841,479
876.141968,460
876.259094,471
876.376282,453
876.493347,466
876.610474,457
876.7276,466
876.844727,466
876.961853,465
877.078918,463
877.195984,460
877.313171,469
877.430237,466
877.547302,464
877.664368,459
877.781433,467
877.898499,457
878.015625,451
878.13269,466
878.249695,463
878.366821,478
878.483887,481
878.600952,441
878.717957,476
878.834961,457
878.952087,449
879.069092,461
879.186157,450
879.303162,476
879.420227,450
879.537231,448
879.654236,473
879.77124,449
879.888306,457
880.005249,470
880.122314,451
880.239319,470
880.356323,482
880.473328,467
880.590271,453
880.707275,462
880.824341,465
880.941284,457
881.058228,474
881.175232,473
881.292236,457
881.40918,469
881.526123,443
881.643066,491
881.760071,454
881.877014,443
881.993958,467
882.11084,494
882.227783,478
882.344727,482
882.46167,452
882.578613,460
882.695618,447
882.812439,461
882.929382,482
883.046326,462
883.163208,462
883.280151,461
883.397034,477
883.513916,459
883.630798,458
883.747742,467
883.864563,478
883.981506,457
884.098389,468
884.21521,458
884.332153,478
884.448975,466
884.565796,460
884.682678,455
884.7995,469
884.916443,478
885.033264,477
885.150085,475
885.266968,446
885.383789,461
885.500671,456
885.617493,476
885.734314,479
885.851196,482
885.967896,463
886.084717,483
886.201599,467
886.318359,475
886.435181,465
886.552002,473
886.668762,463
886.785645,478
886.902344,454
887.019165,473
887.135925,466
887.252747,456
887.369446,470
887.486267,461
887.603027,473
887.719788,458
887.836548,469
887.953247,481
888.070068,464
888.186829,466
888.303528,471
888.420288,484
888.536987,473
888.653687,462
888.770447,461
888.887146,491
889.003967,484
889.120667,458
889.237305,478
889.354065,450
889.470703,475
889.587463,472
889.704163,464
889.820862,479
889.937561,469
890.054199,475
890.170837,489
890.287598,469
890.404236,474
890.520874,453
890.637634,455
890.754211,459
890.87085,457
890.987549,469
891.104187,474
891.220886,480
891.337463,457
891.454102,461
891.57074,467
891.687378,471
891.804077,474
891.920654,456
892.037231,475
892.15387,470
892.270447,452
892.387085,458
892.503723,460
892.6203,469
892.736877,471
892.853516,476
892.970032,478
893.08667,470
893.203186,478
893.319763,480
893.43634,483
893.552917,467
893.669556,468
893.786011,472
893.902588,490
894.019165,488
894.135681,480
894.252197,488
894.368835,481
894.485291,473
894.601868,483
894.718384,477
894.8349,476
894.951355,484
895.067932,468
895.184448,464
895.300964,475
895.417419,439
895.533936,461
895.650452,467
895.766907,487
895.883423,465
895.999878,476
896.116333,473
896.232849,488
896.349304,469
896.465759,486
896.582214,480
896.698669,456
896.815125,483
896.931641,476
897.048035,480
897.164551,479
897.280884,457
897.397339,478
897.513794,474
897.630249,476
897.746582,481
897.863098,465
897.979431,488
898.095886,459
898.212341,474
898.328674,455
898.445129,474
898.561462,472
898.677795,490
898.794312,467
898.910645,463
899.026978,454
899.143433,482
899.259766,475
899.37616,472
899.492493,486
899.608765,485
899.725159,479
899.841553,477
899.957947,482
900.07428,471
900.190552,459
900.306946,481
900.423157,457
900.53949,479
900.655884,465
900.772156,471
900.888489,454
901.004822,476
901.121033,475
901.237366,474
901.353699,485
901.46991,476
901.586304,479
901.702515,482
901.818787,477
901.93512,476
902.051331,478
902.167603,477
902.283875,467
902.400085,475
902.516418,478
902.632629,477
902.74884,491
902.865112,479
902.981384,482
903.097595,475
903.213867,492
903.330017,482
903.446289,477
903.5625,490
903.67865,449
903.794922,495
903.911072,495
904.027344,455
904.143494,491
904.259705,465
904.375916,489
904.492065,493
904.608215,489
904.724426,486
904.840576,480
904.956726,492
905.072876,483
905.189087,483
905.305176,465
905.421387,496
905.537537,474
905.653687,472
905.769775,481
905.885925,491
906.002014,500
906.118164,469
906.234314,479
906.350403,478
906.466492,496
906.582642,478
906.69873,475
906.814758,480
906.930908,490
907.046936,497
907.163086,480
907.279175,479
907.395264,494
907.511353,494
907.62738,498
907.743408,501
907.859497,494
907.975525,476
908.091553,469
908.207703,491
908.32373,465
908.439758,506
908.555786,483
908.671814,490
908.787842,481
908.90387,474
909.019775,488
909.135864,503
909.251892,479
909.367859,480
909.483826,485
909.599854,496
909.715881,475
909.831848,474
909.947815,470
910.063782,479
910.179749,467
910.295776,484
910.411743,474
910.527649,477
910.643616,484
910.759583,487
910.875488,485
910.991455,502
911.107361,487
911.223267,503
911.339294,471
911.4552,463
911.571106,467
911.687073,502
911.802979,472
911.918823,495
912.034729,494
912.150635,491
912.266602,503
912.382446,476
912.498352,488
912.614197,494
912.730103,485
912.846008,488
