792.44574,475
792.56488,509
792.68396,549
792.80304,539
792.92218,487
793.041199,469
793.160339,477
793.279419,500
793.398499,506
793.517578,451
793.636658,473
793.755737,461
793.874817,495
793.993896,516
794.112976,487
794.232056,464
794.351074,484
794.470215,502
794.589233,502
794.708313,474
794.827393,493
794.946411,494
795.065552,491
795.18457,485
795.303589,487
795.422668,496
795.541687,490
795.660767,487
795.779846,480
795.898865,489
796.017883,480
796.136963,469
796.255981,479
796.375061,476
796.49408,474
796.613037,486
796.732117,481
796.851135,470
796.970154,489
797.089233,473
797.208191,470
797.327271,501
797.446228,460
797.565186,498
797.684265,486
797.803223,483
797.922241,467
798.04126,477
798.160278,478
798.279297,455
798.398315,491
798.517273,479
798.636292,496
798.75531,496
798.874268,476
798.993286,467
799.112244,465
799.231323,461
799.350281,477
799.469238,457
799.588257,468
799.707153,448
799.826111,473
799.945129,477
800.064087,471
800.183044,463
800.302063,480
800.421021,467
800.539978,477
800.658936,468
800.777893,473
800.896912,481
801.015747,479
801.134705,456
801.253723,471
801.37262,465
801.491638,477
801.610535,482
801.729492,469
801.84845,459
801.967407,490
802.086243,463
802.205261,469
802.324158,472
802.443115,471
802.562073,485
802.680969,467
802.799927,459
802.918762,482
803.037659,467
803.156677,456
803.275574,460
803.39447,469
803.513428,466
803.632263,469
803.751221,465
803.870117,471
803.989014,487
804.107971,489
804.226746,479
804.345642,488
804.4646,481
804.583496,460
804.702393,473
804.821228,469
804.940125,468
805.059021,470
805.177917,462
805.296814,467
805.415649,473
805.534546,470
805.653442,477
805.772278,458
805.891113,458
806.01001,480
806.128906,459
806.247742,482
806.366577,447
806.485413,472
806.604309,479
806.723145,477
806.84198,457
806.960876,475
807.079712,473
807.198486,475
807.317383,483
807.436218,473
807.554993,475
807.673889,480
807.792725,476
807.91156,472
808.030396,477
808.14917,460
808.268005,459
808.386841,482
808.505676,463
808.624451,482
808.743286,474
808.862122,488
808.980896,466
809.099731,470
809.218506,478
809.337341,473
809.456116,466
809.57489,475
809.693726,468
809.8125,477
809.931274,469
810.050049,497
810.168884,467
810.287659,466
810.406372,479
810.525269,479
810.643982,481
810.762756,456
810.881531,455
811.000305,482
811.11908,465
811.237854,493
811.356567,472
811.475403,457
811.594116,479
811.71283,467
811.831604,470
811.950378,465
812.069153,474
812.187927,466
812.30658,472
812.425415,474
812.544128,448
812.662781,457
812.781616,462
812.900269,477
813.019043,459
813.137756,465
813.256531,483
813.375244,474
813.493896,479
813.612671,477
813.731384,462
813.850037,459
813.96875,493
814.087524,486
814.206238,484
814.324951,470
814.443604,457
814.562256,453
814.68103,477
814.799683,479
814.918335,455
815.037109,492
815.155762,466
815.274475,475
815.393188,476
815.511841,474
815.630554,455
815.749146,479
815.867859,465
815.986572,472
816.105164,462
816.223877,468
816.342529,459
816.461182,463
816.579895,469
816.698486,473
816.817139,479
816.935791,458
817.054504,443
817.173096,494
817.291748,447
817.4104,474
817.529053,458
817.647644,452
817.766235,473
817.884949,463
818.00354,456
818.122192,457
818.240845,455
818.359436,466
818.478088,472
818.59668,469
818.715271,458
818.833923,458
818.952515,451
819.071106,449
819.189758,439
819.30835,460
819.426941,442
819.545532,468
819.664124,450
819.782715,435
819.901306,447
820.019897,454
820.138489,446
820.25708,461
820.375671,442
820.494202,461
820.612732,451
820.731384,457
820.849915,437
820.968506,458
821.087097,453
821.205627,437
821.324158,454
821.442749,446
821.561279,451
821.679871,450
821.798401,455
821.916931,473
822.035461,464
822.154053,445
822.272583,437
822.391174,444
822.509583,455
822.628174,467
822.746704,435
822.865234,447
822.983765,439
823.102295,470
823.220825,441
823.339294,439
823.457825,455
823.576355,444
823.694824,456
823.813354,442
823.931885,454
824.050354,465
824.168884,437
824.287354,490
824.405823,454
824.524353,446
824.642822,441
824.761353,423
824.879822,445
824.998291,443
825.116699,448
825.235291,470
825.353699,449
825.472168,459
825.590637,461
825.709106,448
825.827576,443
825.946045,453
826.064453,452
826.182983,449
826.301392,458
826.4198,462
826.53833,447
826.656738,443
826.775208,449
826.893677,450
827.012024,447
827.130493,438
827.248962,443
827.36731,456
827.485779,448
827.604248,455
827.722595,463
827.841064,455
827.959412,441
828.077942,436
828.196289,447
828.314636,447
828.433105,440
828.551514,450
828.669861,436
828.78833,460
828.906677,437
829.025085,449
829.143433,461
829.261841,442
829.38031,446
829.498657,443
829.617004,442
829.735413,443
829.85376,432
829.972107,427
830.090515,436
830.208862,471
830.327209,445
830.445557,453
830.563904,430
830.682312,440
830.800659,425
830.919006,460
831.037354,453
831.155701,437
831.274048,449
831.392395,451
831.51062,452
831.629028,432
831.747314,444
831.865662,444
831.984009,446
832.102356,431
832.220642,427
832.338928,427
832.457275,426
832.575623,462
832.693909,432
832.812134,446
832.930481,447
833.048828,430
833.167114,438
833.2854,433
833.403687,440
833.521973,430
833.640259,419
833.758545,462
833.876831,450
833.995056,442
834.113281,449
834.231628,442
834.349915,436
834.468201,448
834.586426,459
834.704651,444
834.822998,444
834.941162,463
835.059448,429
835.177673,451
835.295959,441
835.414246,450
835.53241,427
835.650635,430
835.768921,439
835.887146,451
836.005371,452
836.123596,446
836.241821,446
836.360046,460
836.478271,443
836.596497,443
836.714722,447
836.832886,462
836.95105,431
837.069336,436
837.1875,429
837.305725,451
837.423889,438
837.542053,416
837.660339,448
837.778503,444
837.896667,449
838.014832,444
838.132996,440
838.25116,425
838.369385,414
838.487488,440
838.605713,452
838.723877,444
838.84198,446
838.960205,452
839.078308,430
839.196472,434
839.314636,437
839.4328,450
839.550964,442
839.669067,448
839.787231,453
839.905396,424
840.023499,424
840.141602,446
840.259766,443
840.377869,453
840.495972,423
840.614136,464
840.732239,431
840.850342,434
840.968445,444
841.086548,439
841.204651,450
841.322754,444
841.440918,441
841.55896,453
841.677002,429
841.795166,455
841.913208,422
842.031311,435
842.149353,452
842.267456,445
842.385498,439
842.503601,442
842.621643,438
842.739746,439
842.857788,423
842.97583,440
843.093933,427
843.211975,432
843.330017,432
843.44812,437
843.566101,448
843.684204,444
843.802246,444
843.920227,437
844.038269,426
844.156311,453
844.274292,425
844.392395,460
844.510376,424
844.628357,442
844.74646,438
844.864441,449
844.982422,440
845.100403,455
845.218384,429
845.336426,431
845.454468,434
845.572449,447
845.69043,418
845.808411,436
845.926453,440
846.044373,447
846.162354,441
846.280396,449
846.398315,434
846.516296,429
846.634216,426
846.752197,425
846.870178,442
846.988098,447
847.106079,428
847.22406,448
847.34198,438
847.4599,436
847.577881,438
847.695801,462
847.813782,432
847.931641,428
848.049561,441
848.167603,433
848.285461,442
848.403381,449
848.521362,442
848.639221,458
848.75708,440
848.875,436
848.99292,423
849.110901,434
849.22876,418
849.34668,448
849.464539,459
849.582458,426
849.700317,446
849.818176,435
849.936096,424
850.053955,433
850.171875,429
850.289673,451
850.407593,414
850.525452,441
850.643311,431
850.761169,442
850.878967,439
850.996887,445
851.114746,447
851.232544,459
851.350403,438
851.468262,432
851.58606,446
851.703979,441
851.821777,436
851.939636,440
852.057434,446
852.175232,420
852.293091,435
852.410889,438
852.528687,435
852.646545,442
852.764343,441
852.88208,436
852.999939,431
853.117676,429
853.235535,430
853.353271,434
853.471069,424
853.588928,445
853.706604,448
853.824402,416
853.9422,448
854.059998,444
854.177734,423
854.295532,440
854.413269,429
854.531006,442
854.648804,435
854.766541,437
854.884277,437
855.002014,439
855.119751,430
855.237549,435
855.355225,439
855.473022,442
855.590698,435
855.708435,452
855.826172,428
855.943848,457
856.061646,429
856.179321,433
856.296997,455
856.414795,420
856.53241,449
856.650085,458
856.767822,426
856.885559,441
857.003174,427
857.120911,440
857.238586,433
857.356201,451
857.473938,441
857.591614,453
857.709351,458
857.826965,426
857.944641,437
858.062317,441
858.179993,436
858.297668,457
858.415283,437
858.532959,444
858.650574,434
858.768188,448
858.885803,449
859.003479,449
859.121094,438
859.23877,434
859.356384,438
859.473999,448
859.591675,425
859.709229,432
859.826843,429
859.944458,446
860.062012,436
860.179626,454
860.297302,440
860.414856,436
860.532471,439
860.650024,443
860.767639,444
860.885193,429
861.002808,444
861.120361,451
861.237976,415
861.35553,456
861.473022,435
861.590698,458
861.708191,439
861.825745,438
861.943298,437
862.060852,452
862.178406,448
862.295959,441
862.413513,431
862.531006,446
862.64856,431
862.766113,459
862.883667,436
863.00116,437
863.118713,436
863.236206,440
863.353699,424
863.471252,435
863.588745,432
863.706177,432
863.82373,441
863.941162,431
864.058716,429
864.176208,444
864.29364,445
864.411194,433
864.528687,419
864.646118,447
864.763611,442
864.881042,435
864.998535,433
865.116028,434
865.233459,423
865.350891,446
865.468384,453
865.585754,459
865.703308,428
865.820679,432
865.938171,424
866.055542,443
866.173035,435
866.290466,448
866.407837,442
866.52533,440
866.6427,425
866.760071,442
866.877563,442
866.994934,430
867.112305,433
867.229736,447
867.347107,441
867.464539,450
867.58197,437
867.699341,448
867.81665,443
867.934082,424
868.051453,437
868.168823,429
868.286194,448
868.403564,433
868.520935,441
868.638306,467
868.755676,442
868.872986,437
868.990295,450
869.107727,446
869.225037,422
869.342346,456
869.459717,425
869.577026,445
869.694336,433
869.811707,453
869.929016,453
870.046326,437
870.163635,438
870.280945,433
870.398254,445
870.515564,438
870.632812,429
870.750183,449
870.867432,439
870.984741,432
871.102051,428
871.219299,441
871.336609,425
871.453918,438
871.571106,448
871.688416,453
871.805664,434
871.922852,463
872.040222,436
872.157471,450
872.274719,435
872.391968,438
872.509155,442
872.626465,427
872.743652,428
872.860962,438
872.978149,439
873.095337,452
873.212646,444
873.329834,450
873.44696,425
873.564209,453
873.681396,445
873.798645,446
873.915894,464
874.03302,445
874.150208,443
874.267456,448
874.384583,444
874.501831,450
874.618958,428
874.736145,462
874.853333,437
874.970459,456
875.087646,431
875.204834,437
875.32196,451
875.439148,431
875.556274,458
875.673401,462
875.790527,435
875.907715,464
876.024841,440
876.141968,454
876.259094,452
876.376282,443
876.493347,429
876.610474,427
876.7276,448
876.844727,436
876.961853,435
877.078918,447
877.195984,442
877.313171,449
877.430237,446
877.547302,455
877.664368,451
877.781433,434
877.898499,442
878.015625,459
878.13269,450
878.249695,451
878.366821,456
878.483887,451
878.600952,420
878.717957,452
878.834961,439
878.952087,445
879.069092,437
879.186157,439
879.303162,437
879.420227,434
879.537231,460
879.654236,448
879.77124,437
879.888306,433
880.005249,465
880.122314,457
880.239319,433
880.356323,447
880.473328,435
880.590271,437
880.707275,451
880.824341,448
880.941284,437
881.058228,441
881.175232,447
881.292236,438
881.40918,449
881.526123,477
881.643066,448
881.760071,455
881.877014,437
881.993958,459
882.11084,455
882.227783,438
882.344727,448
882.46167,448
882.578613,439
882.695618,456
882.812439,447
882.929382,455
883.046326,445
883.163208,441
883.280151,443
883.397034,454
883.513916,429
883.630798,440
883.747742,442
883.864563,430
883.981506,438
884.098389,445
884.21521,463
884.332153,463
884.448975,446
884.565796,447
884.682678,457
884.7995,453
884.916443,447
885.033264,441
885.150085,441
885.266968,449
885.383789,455
885.500671,444
885.617493,461
885.734314,441
885.851196,434
885.967896,435
886.084717,464
886.201599,446
886.318359,436
886.435181,459
886.552002,437
886.668762,453
886.785645,440
886.902344,467
887.019165,445
887.135925,430
887.252747,443
887.369446,458
887.486267,451
887.603027,454
887.719788,446
887.836548,456
887.953247,442
888.070068,441
888.186829,442
888.303528,468
888.420288,454
888.536987,455
888.653687,439
888.770447,440
888.887146,452
889.003967,460
889.120667,459
889.237305,444
889.354065,468
889.470703,458
889.587463,447
889.704163,447
889.820862,439
889.937561,448
890.054199,436
890.170837,460
890.287598,434
890.404236,446
890.520874,433
890.637634,472
890.754211,440
890.87085,432
890.987549,460
891.104187,452
891.220886,461
891.337463,466
891.454102,445
891.57074,453
891.687378,423
891.804077,450
891.920654,441
892.037231,455
892.15387,429
892.270447,459
892.387085,463
892.503723,444
892.6203,446
892.736877,446
892.853516,443
892.970032,456
893.08667,462
893.203186,440
893.319763,439
893.43634,453
893.552917,452
893.669556,465
893.786011,446
893.902588,429
894.019165,440
894.135681,445
894.252197,444
894.368835,461
894.485291,452
894.601868,451
894.718384,449
894.8349,451
894.951355,442
895.067932,453
895.184448,455
895.300964,450
895.417419,447
895.533936,458
895.650452,424
895.766907,448
895.883423,445
895.999878,458
896.116333,447
896.232849,453
896.349304,446
896.465759,430
896.582214,459
896.698669,458
896.815125,441
896.931641,451
897.048035,445
897.164551,445
897.280884,454
897.397339,452
897.513794,455
897.630249,463
897.746582,450
897.863098,434
897.979431,448
898.095886,472
898.212341,423
898.328674,460
898.445129,448
898.561462,449
898.677795,460
898.794312,462
898.910645,458
899.026978,446
899.143433,448
899.259766,467
899.37616,437
899.492493,458
899.608765,465
899.725159,459
899.841553,438
899.957947,441
900.07428,461
900.190552,462
900.306946,457
900.423157,456
900.53949,446
900.655884,466
900.772156,456
900.888489,453
901.004822,459
901.121033,448
901.237366,449
901.353699,442
901.46991,457
901.586304,446
901.702515,434
901.818787,477
901.93512,441
902.051331,458
902.167603,448
902.283875,478
902.400085,487
902.516418,462
902.632629,440
902.74884,461
902.865112,483
902.981384,460
903.097595,439
903.213867,483
903.330017,441
903.446289,462
903.5625,439
903.67865,444
903.794922,452
903.911072,454
904.027344,440
904.143494,462
904.259705,473
904.375916,463
904.492065,453
904.608215,465
904.724426,443
904.840576,456
904.956726,438
905.072876,459
905.189087,447
905.305176,450
905.421387,450
905.537537,465
905.653687,466
905.769775,453
905.885925,464
906.002014,447
906.118164,450
906.234314,469
906.350403,451
906.466492,459
906.582642,445
906.69873,463
906.814758,459
906.930908,447
907.046936,452
907.163086,454
907.279175,457
907.395264,456
907.511353,453
907.62738,466
907.743408,464
907.859497,462
907.975525,451
908.091553,466
908.207703,462
908.32373,468
908.439758,457
908.555786,482
908.671814,446
908.787842,470
908.90387,468
909.019775,464
909.135864,457
909.251892,437
909.367859,461
909.483826,477
909.599854,454
909.715881,449
909.831848,459
909.947815,455
910.063782,450
910.179749,459
910.295776,467
910.411743,458
910.527649,454
910.643616,462
910.759583,470
910.875488,462
910.991455,438
911.107361,449
911.223267,474
911.339294,450
911.4552,448
911.571106,479
911.687073,447
911.802979,463
911.918823,469
912.034729,445
912.150635,462
912.266602,456
912.382446,453
912.498352,475
912.614197,463
912.730103,459
912.846008,455
792.44574,495
792.56488,515
792.68396,568
792.80304,556
792.92218,487
793.041199,482
793.160339,480
793.279419,494
793.398499,512
793.517578,463
793.636658,480
793.755737,493
793.874817,517
793.993896,508
794.112976,489
794.232056,495
794.351074,495
794.470215,486
794.589233,492
794.708313,487
794.827393,488
794.946411,475
795.065552,499
795.18457,477
795.303589,474
795.422668,474
795.541687,462
795.660767,491
795.779846,476
795.898865,460
796.017883,476
796.136963,470
796.255981,478
796.375061,488
796.49408,507
796.613037,478
796.732117,472
796.851135,474
796.970154,501
797.089233,485
797.208191,481
797.327271,497
797.446228,471
797.565186,484
797.684265,500
797.803223,472
797.922241,462
798.04126,491
798.160278,490
798.279297,478
798.398315,461
798.517273,469
798.636292,475
798.75531,474
798.874268,474
798.993286,468
799.112244,483
799.231323,454
799.350281,506
799.469238,452
799.588257,477
799.707153,459
799.826111,476
799.945129,468
800.064087,475
800.183044,479
800.302063,478
800.421021,472
800.539978,430
800.658936,471
800.777893,482
800.896912,1996
801.015747,451
801.134705,467
801.253723,477
801.37262,478
801.491638,489
801.610535,476
801.729492,466
801.84845,472
801.967407,466
802.086243,490
802.205261,474
802.324158,492
802.443115,470
802.562073,473
802.680969,471
802.799927,478
802.918762,475
803.037659,466
803.156677,494
803.275574,451
803.39447,484
803.513428,479
803.632263,468
803.751221,464
803.870117,470
803.989014,505
804.107971,483
804.226746,479
804.345642,486
804.4646,469
804.583496,488
804.702393,465
804.821228,470
804.940125,480
805.059021,475
805.177917,477
805.296814,463
805.415649,479
805.534546,479
805.653442,461
805.772278,468
805.891113,473
806.01001,487
806.128906,455
806.247742,489
806.366577,457
806.485413,471
806.604309,460
806.723145,475
806.84198,468
806.960876,479
807.079712,462
807.198486,467
807.317383,489
807.436218,480
807.554993,465
807.673889,468
807.792725,477
807.91156,472
808.030396,475
808.14917,468
808.268005,472
808.386841,478
808.505676,475
808.624451,455
808.743286,474
808.862122,474
808.980896,464
809.099731,466
809.218506,486
809.337341,461
809.456116,468
809.57489,477
809.693726,488
809.8125,475
809.931274,474
810.050049,479
810.168884,479
810.287659,484
810.406372,479
810.525269,454
810.643982,475
810.762756,472
810.881531,475
811.000305,466
811.11908,468
811.237854,470
811.356567,464
811.475403,470
811.594116,481
811.71283,464
811.831604,484
811.950378,480
812.069153,469
812.187927,469
812.30658,476
812.425415,474
812.544128,499
812.662781,470
812.781616,486
812.900269,475
813.019043,471
813.137756,472
813.256531,481
813.375244,469
813.493896,478
813.612671,483
813.731384,462
813.850037,468
813.96875,479
814.087524,463
814.206238,484
814.324951,474
814.443604,487
814.562256,460
814.68103,471
814.799683,431
814.918335,477
815.037109,467
815.155762,479
815.274475,467
815.393188,470
815.511841,453
815.630554,465
815.749146,486
815.867859,483
815.986572,485
816.105164,478
816.223877,477
816.342529,476
816.461182,467
816.579895,475
816.698486,465
816.817139,490
816.935791,460
817.054504,460
817.173096,484
817.291748,455
817.4104,481
817.529053,477
817.647644,452
817.766235,467
817.884949,466
818.00354,462
818.122192,475
818.240845,463
818.359436,473
818.478088,450
818.59668,451
818.715271,465
818.833923,447
818.952515,474
819.071106,456
819.189758,449
819.30835,456
819.426941,465
819.545532,435
819.664124,452
819.782715,464
819.901306,446
820.019897,448
820.138489,450
820.25708,462
820.375671,458
820.494202,457
820.612732,458
820.731384,444
820.849915,438
820.968506,439
821.087097,462
821.205627,476
821.324158,460
821.442749,438
821.561279,450
821.679871,434
821.798401,458
821.916931,448
822.035461,483
822.154053,451
822.272583,460
822.391174,471
822.509583,460
822.628174,451
822.746704,466
822.865234,453
822.983765,448
823.102295,456
823.220825,454
823.339294,464
823.457825,439
823.576355,461
823.694824,444
823.813354,462
823.931885,433
824.050354,452
824.168884,457
824.287354,458
824.405823,452
824.524353,456
824.642822,443
824.761353,435
824.879822,450
824.998291,462
825.116699,439
825.235291,458
825.353699,442
825.472168,452
825.590637,446
825.709106,462
825.827576,444
825.946045,441
826.064453,455
826.182983,441
826.301392,450
826.4198,450
826.53833,448
826.656738,449
826.775208,445
826.893677,447
827.012024,442
827.130493,450
827.248962,468
827.36731,459
827.485779,443
827.604248,439
827.722595,445
827.841064,446
827.959412,453
828.077942,445
828.196289,456
828.314636,443
828.433105,449
828.551514,444
828.669861,444
828.78833,447
828.906677,460
829.025085,452
829.143433,426
829.261841,446
829.38031,450
829.498657,448
829.617004,457
829.735413,444
829.85376,426
829.972107,446
830.090515,428
830.208862,462
830.327209,470
830.445557,457
830.563904,457
830.682312,442
830.800659,449
830.919006,434
831.037354,448
831.155701,430
831.274048,441
831.392395,456
831.51062,467
831.629028,448
831.747314,434
831.865662,440
831.984009,445
832.102356,453
832.220642,457
832.338928,456
832.457275,445
832.575623,428
832.693909,452
832.812134,439
832.930481,472
833.048828,436
833.167114,443
833.2854,451
833.403687,459
833.521973,442
833.640259,446
833.758545,415
833.876831,436
833.995056,436
834.113281,441
834.231628,443
834.349915,443
834.468201,444
834.586426,440
834.704651,443
834.822998,428
834.941162,446
835.059448,441
835.177673,427
835.295959,462
835.414246,428
835.53241,444
835.650635,431
835.768921,444
835.887146,450
836.005371,440
836.123596,464
836.241821,445
836.360046,450
836.478271,440
836.596497,447
836.714722,470
836.832886,452
836.95105,447
837.069336,451
837.1875,439
837.305725,442
837.423889,439
837.542053,447
837.660339,460
837.778503,422
837.896667,445
838.014832,443
838.132996,447
838.25116,454
838.369385,437
838.487488,454
838.605713,431
838.723877,444
838.84198,432
838.960205,422
839.078308,460
839.196472,436
839.314636,432
839.4328,448
839.550964,434
839.669067,436
839.787231,431
839.905396,454
840.023499,431
840.141602,449
840.259766,459
840.377869,443
840.495972,452
840.614136,453
840.732239,438
840.850342,450
840.968445,426
841.086548,455
841.204651,440
841.322754,439
841.440918,441
841.55896,440
841.677002,451
841.795166,437
841.913208,436
842.031311,439
842.149353,454
842.267456,425
842.385498,422
842.503601,434
842.621643,444
842.739746,443
842.857788,432
842.97583,440
843.093933,428
843.211975,445
843.330017,450
843.44812,435
843.566101,447
843.684204,428
843.802246,428
843.920227,447
844.038269,450
844.156311,415
844.274292,447
844.392395,446
844.510376,433
844.628357,433
844.74646,446
844.864441,431
844.982422,443
845.100403,428
845.218384,454
845.336426,437
845.454468,455
845.572449,448
845.69043,446
845.808411,446
845.926453,455
846.044373,434
846.162354,449
846.280396,442
846.398315,435
846.516296,445
846.634216,449
846.752197,448
846.870178,447
846.988098,441
847.106079,442
847.22406,425
847.34198,430
847.4599,441
847.577881,436
847.695801,442
847.813782,450
847.931641,460
848.049561,461
848.167603,427
848.285461,435
848.403381,456
848.521362,434
848.639221,430
848.75708,446
848.875,442
848.99292,463
849.110901,424
849.22876,424
849.34668,444
849.464539,427
849.582458,454
849.700317,439
849.818176,439
849.936096,432
850.053955,446
850.171875,408
850.289673,461
850.407593,443
850.525452,420
850.643311,441
850.761169,412
850.878967,445
850.996887,449
851.114746,448
851.232544,448
851.350403,421
851.468262,449
851.58606,446
851.703979,445
851.821777,436
851.939636,417
852.057434,444
852.175232,444
852.293091,450
852.410889,427
852.528687,442
852.646545,459
852.764343,468
852.88208,439
852.999939,453
853.117676,443
853.235535,439
853.353271,435
853.471069,440
853.588928,433
853.706604,446
853.824402,433
853.9422,438
854.059998,448
854.177734,448
854.295532,441
854.413269,450
854.531006,453
854.648804,429
854.766541,458
854.884277,439
855.002014,416
855.119751,443
855.237549,431
855.355225,426
855.473022,443
855.590698,440
855.708435,438
855.826172,435
855.943848,443
856.061646,431
856.179321,454
856.296997,433
856.414795,443
856.53241,454
856.650085,452
856.767822,433
856.885559,444
857.003174,431
857.120911,429
857.238586,461
857.356201,442
857.473938,435
857.591614,446
857.709351,459
857.826965,443
857.944641,443
858.062317,451
858.179993,440
858.297668,444
858.415283,442
858.532959,435
858.650574,465
858.768188,452
858.885803,443
859.003479,444
859.121094,456
859.23877,445
859.356384,452
859.473999,460
859.591675,457
859.709229,440
859.826843,419
859.944458,440
860.062012,445
860.179626,440
860.297302,467
860.414856,442
860.532471,443
860.650024,435
860.767639,440
860.885193,425
861.002808,444
861.120361,460
861.237976,436
861.35553,434
861.473022,453
861.590698,441
861.708191,450
861.825745,445
861.943298,452
862.060852,438
862.178406,455
862.295959,458
862.413513,433
862.531006,429
862.64856,453
862.766113,443
862.883667,456
863.00116,442
863.118713,467
863.236206,448
863.353699,459
863.471252,435
863.588745,442
863.706177,465
863.82373,442
863.941162,429
864.058716,439
864.176208,457
864.29364,455
864.411194,432
864.528687,431
864.646118,449
864.763611,450
864.881042,407
864.998535,448
865.116028,455
865.233459,443
865.350891,448
865.468384,443
865.585754,455
865.703308,448
865.820679,444
865.938171,443
866.055542,434
866.173035,442
866.290466,436
866.407837,437
866.52533,459
866.6427,453
866.760071,442
866.877563,455
866.994934,445
867.112305,427
867.229736,443
867.347107,438
867.464539,437
867.58197,441
867.699341,439
867.81665,435
867.934082,439
868.051453,449
868.168823,432
868.286194,453
868.403564,436
868.520935,446
868.638306,432
868.755676,453
868.872986,460
868.990295,453
869.107727,443
869.225037,439
869.342346,438
869.459717,432
869.577026,423
869.694336,465
869.811707,435
869.929016,452
870.046326,458
870.163635,445
870.280945,431
870.398254,441
870.515564,435
870.632812,439
870.750183,436
870.867432,453
870.984741,446
871.102051,435
871.219299,449
871.336609,447
871.453918,439
871.571106,459
871.688416,460
871.805664,458
871.922852,448
872.040222,429
872.157471,441
872.274719,452
872.391968,422
872.509155,447
872.626465,447
872.743652,437
872.860962,429
872.978149,465
873.095337,442
873.212646,438
873.329834,463
873.44696,432
873.564209,435
873.681396,454
873.798645,434
873.915894,438
874.03302,443
874.150208,447
874.267456,417
874.384583,444
874.501831,444
874.618958,430
874.736145,430
874.853333,437
874.970459,440
875.087646,456
875.204834,427
875.32196,449
875.439148,439
875.556274,437
875.673401,450
875.790527,445
875.907715,450
876.024841,450
876.141968,450
876.259094,449
876.376282,431
876.493347,448
876.610474,442
876.7276,443
876.844727,438
876.961853,434
877.078918,454
877.195984,455
877.313171,441
877.430237,442
877.547302,443
877.664368,447
877.781433,448
877.898499,430
878.015625,456
878.13269,443
878.249695,443
878.366821,448
878.483887,431
878.600952,459
878.717957,438
878.834961,472
878.952087,436
879.069092,451
879.186157,430
879.303162,457
879.420227,439
879.537231,437
879.654236,442
879.77124,458
879.888306,448
880.005249,449
880.122314,470
880.239319,446
880.356323,434
880.473328,440
880.590271,438
880.707275,428
880.824341,441
880.941284,438
881.058228,447
881.175232,438
881.292236,454
881.40918,454
881.526123,445
881.643066,441
881.760071,449
881.877014,434
881.993958,436
882.11084,453
882.227783,451
882.344727,446
882.46167,459
882.578613,448
882.695618,441
882.812439,438
882.929382,441
883.046326,448
883.163208,449
883.280151,448
883.397034,448
883.513916,457
883.630798,440
883.747742,460
883.864563,423
883.981506,433
884.098389,454
884.21521,442
884.332153,461
884.448975,454
884.565796,443
884.682678,433
884.7995,424
884.916443,467
885.033264,451
885.150085,437
885.266968,463
885.383789,465
885.500671,460
885.617493,448
885.734314,441
885.851196,436
885.967896,443
886.084717,465
886.201599,441
886.318359,466
886.435181,457
886.552002,466
886.668762,444
886.785645,453
886.902344,438
887.019165,466
887.135925,443
887.252747,446
887.369446,450
887.486267,440
887.603027,459
887.719788,444
887.836548,458
887.953247,450
888.070068,443
888.186829,441
888.303528,446
888.420288,437
888.536987,439
888.653687,465
888.770447,455
888.887146,451
889.003967,455
889.120667,461
889.237305,453
889.354065,448
889.470703,446
889.587463,437
889.704163,444
889.820862,433
889.937561,452
890.054199,439
890.170837,445
890.287598,455
890.404236,449
890.520874,447
890.637634,435
890.754211,454
890.87085,452
890.987549,455
891.104187,450
891.220886,453
891.337463,455
891.454102,450
891.57074,452
891.687378,454
891.804077,451
891.920654,436
892.037231,459
892.15387,439
892.270447,454
892.387085,434
892.503723,471
892.6203,461
892.736877,457
892.853516,454
892.970032,465
893.08667,454
893.203186,449
893.319763,437
893.43634,466
893.552917,447
893.669556,456
893.786011,479
893.902588,436
894.019165,452
894.135681,452
894.252197,444
894.368835,465
894.485291,464
894.601868,445
894.718384,448
894.8349,451
894.951355,444
895.067932,438
895.184448,456
895.300964,465
895.417419,473
895.533936,452
895.650452,452
895.766907,457
895.883423,446
895.999878,447
896.116333,467
896.232849,449
896.349304,449
896.465759,437
896.582214,458
896.698669,455
896.815125,439
896.931641,455
897.048035,443
897.164551,458
897.280884,462
897.397339,462
897.513794,476
897.630249,474
897.746582,472
897.863098,437
897.979431,440
898.095886,443
898.212341,444
898.328674,440
898.445129,459
898.561462,450
898.677795,457
898.794312,457
898.910645,465
899.026978,448
899.143433,460
899.259766,446
899.37616,458
899.492493,465
899.608765,471
899.725159,461
899.841553,456
899.957947,428
900.07428,469
900.190552,455
900.306946,433
900.423157,473
900.53949,461
900.655884,451
900.772156,438
900.888489,461
901.004822,468
901.121033,445
901.237366,456
901.353699,476
901.46991,441
901.586304,454
901.702515,458
901.818787,456
901.93512,446
902.051331,446
902.167603,470
902.283875,454
902.400085,465
902.516418,442
902.632629,447
902.74884,457
902.865112,446
902.981384,456
903.097595,465
903.213867,452
903.330017,463
903.446289,451
903.5625,454
903.67865,456
903.794922,440
903.911072,452
904.027344,476
904.143494,471
904.259705,459
904.375916,450
904.492065,445
904.608215,458
904.724426,449
904.840576,462
904.956726,456
905.072876,451
905.189087,458
905.305176,448
905.421387,456
905.537537,484
905.653687,451
905.769775,453
905.885925,465
906.002014,477
906.118164,443
906.234314,462
906.350403,456
906.466492,465
906.582642,467
906.69873,457
906.814758,454
906.930908,466
907.046936,452
907.163086,474
907.279175,477
907.395264,450
907.511353,457
907.62738,451
907.743408,454
907.859497,455
907.975525,451
908.091553,451
908.207703,462
908.32373,456
908.439758,459
908.555786,436
908.671814,457
908.787842,471
908.90387,455
909.019775,461
909.135864,462
909.251892,451
909.367859,455
909.483826,460
909.599854,450
909.715881,464
909.831848,467
909.947815,460
910.063782,462
910.179749,437
910.295776,451
910.411743,481
910.527649,460
910.643616,463
910.759583,483
910.875488,477
910.991455,474
911.107361,464
911.223267,446
911.339294,458
911.4552,468
911.571106,471
911.687073,480
911.802979,447
911.918823,465
912.034729,464
912.150635,458
912.266602,462
912.382446,461
912.498352,439
912.614197,468
912.730103,441
912.846008,465
792.44574,484
792.56488,520
792.68396,580
792.80304,527
792.92218,492
793.041199,467
793.160339,500
793.279419,483
793.398499,473
793.517578,485
793.636658,469
793.755737,480
793.874817,514
793.993896,483
794.112976,488
794.232056,489
794.351074,488
794.470215,497
794.589233,513
794.708313,479
794.827393,469
794.946411,498
795.065552,480
795.18457,522
795.303589,485
795.422668,499
795.541687,494
795.660767,497
795.779846,479
795.898865,495
796.017883,474
796.136963,490
796.255981,483
796.375061,462
796.49408,486
796.613037,509
796.732117,479
796.851135,475
796.970154,478
797.089233,481
797.208191,454
797.327271,458
797.446228,484
797.565186,474
797.684265,470
797.803223,482
797.922241,464
798.04126,466
798.160278,477
798.279297,487
798.398315,487
798.517273,481
798.636292,474
798.75531,488
798.874268,469
798.993286,489
799.112244,471
799.231323,477
799.350281,466
799.469238,496
799.588257,501
799.707153,480
799.826111,495
799.945129,485
800.064087,474
800.183044,496
800.302063,464
800.421021,476
800.539978,466
800.658936,467
800.777893,488
800.896912,469
801.015747,481
801.134705,482
801.253723,483
801.37262,481
801.491638,485
801.610535,478
801.729492,476
801.84845,492
801.967407,473
802.086243,481
802.205261,463
802.324158,473
802.443115,468
802.562073,479
802.680969,506
802.799927,476
802.918762,473
803.037659,461
803.156677,481
803.275574,474
803.39447,474
803.513428,493
803.632263,465
803.751221,472
803.870117,470
803.989014,485
804.107971,475
804.226746,473
804.345642,482
804.4646,465
804.583496,464
804.702393,471
804.821228,473
804.940125,466
805.059021,465
805.177917,476
805.296814,469
805.415649,495
805.534546,472
805.653442,469
805.772278,487
805.891113,490
806.01001,497
806.128906,477
806.247742,491
806.366577,503
806.485413,472
806.604309,480
806.723145,465
806.84198,454
806.960876,477
807.079712,476
807.198486,483
807.317383,476
807.436218,494
807.554993,489
807.673889,460
807.792725,466
807.91156,459
808.030396,482
808.14917,451
808.268005,464
808.386841,474
808.505676,468
808.624451,471
808.743286,472
808.862122,482
808.980896,484
809.099731,480
809.218506,470
809.337341,489
809.456116,455
809.57489,485
809.693726,475
809.8125,480
809.931274,477
810.050049,477
810.168884,496
810.287659,481
810.406372,468
810.525269,472
810.643982,501
810.762756,479
810.881531,479
811.000305,462
811.11908,475
811.237854,488
811.356567,469
811.475403,469
811.594116,476
811.71283,459
811.831604,480
811.950378,482
812.069153,464
812.187927,468
812.30658,458
812.425415,477
812.544128,478
812.662781,463
812.781616,474
812.900269,473
813.019043,458
813.137756,473
813.256531,480
813.375244,482
813.493896,489
813.612671,472
813.731384,476
813.850037,468
813.96875,469
814.087524,491
814.206238,476
814.324951,489
814.443604,471
814.562256,489
814.68103,476
814.799683,471
814.918335,474
815.037109,483
815.155762,484
815.274475,447
815.393188,481
815.511841,470
815.630554,483
815.749146,465
815.867859,471
815.986572,464
816.105164,472
816.223877,467
816.342529,466
816.461182,475
816.579895,450
816.698486,460
816.817139,467
816.935791,472
817.054504,475
817.173096,474
817.291748,485
817.4104,466
817.529053,471
817.647644,468
817.766235,468
817.884949,487
818.00354,456
818.122192,461
818.240845,461
818.359436,453
818.478088,475
818.59668,443
818.715271,460
818.833923,449
818.952515,482
819.071106,461
819.189758,455
819.30835,460
819.426941,464
819.545532,470
819.664124,462
819.782715,465
819.901306,452
820.019897,461
820.138489,476
820.25708,475
820.375671,456
820.494202,450
820.612732,464
820.731384,457
820.849915,460
820.968506,474
821.087097,455
821.205627,481
821.324158,462
821.442749,473
821.561279,465
821.679871,464
821.798401,449
821.916931,465
822.035461,448
822.154053,458
822.272583,442
822.391174,455
822.509583,460
822.628174,446
822.746704,454
822.865234,436
822.983765,458
823.102295,450
823.220825,472
823.339294,462
823.457825,447
823.576355,434
823.694824,442
823.813354,452
823.931885,451
824.050354,462
824.168884,433
824.287354,435
824.405823,464
824.524353,450
824.642822,453
824.761353,471
824.879822,456
824.998291,452
825.116699,449
825.235291,444
825.353699,462
825.472168,452
825.590637,443
825.709106,465
825.827576,459
825.946045,440
826.064453,461
826.182983,461
826.301392,442
826.4198,445
826.53833,456
826.656738,461
826.775208,450
826.893677,438
827.012024,440
827.130493,450
827.248962,462
827.36731,442
827.485779,452
827.604248,435
827.722595,442
827.841064,435
827.959412,451
828.077942,457
828.196289,435
828.314636,469
828.433105,471
828.551514,449
828.669861,440
828.78833,465
828.906677,451
829.025085,462
829.143433,449
829.261841,445
829.38031,450
829.498657,467
829.617004,459
829.735413,448
829.85376,426
829.972107,463
830.090515,464
830.208862,463
830.327209,444
830.445557,436
830.563904,443
830.682312,449
830.800659,440
830.919006,443
831.037354,438
831.155701,441
831.274048,445
831.392395,428
831.51062,451
831.629028,451
831.747314,474
831.865662,455
831.984009,453
832.102356,427
832.220642,453
832.338928,457
832.457275,438
832.575623,440
832.693909,450
832.812134,454
832.930481,487
833.048828,431
833.167114,436
833.2854,436
833.403687,471
833.521973,448
833.640259,455
833.758545,442
833.876831,444
833.995056,448
834.113281,454
834.231628,435
834.349915,458
834.468201,448
834.586426,436
834.704651,431
834.822998,459
834.941162,441
835.059448,446
835.177673,460
835.295959,449
835.414246,424
835.53241,437
835.650635,444
835.768921,443
835.887146,440
836.005371,427
836.123596,454
836.241821,456
836.360046,447
836.478271,428
836.596497,475
836.714722,463
836.832886,449
836.95105,451
837.069336,467
837.1875,458
837.305725,442
837.423889,429
837.542053,441
837.660339,444
837.778503,458
837.896667,476
838.014832,450
838.132996,457
838.25116,431
838.369385,456
838.487488,451
838.605713,457
838.723877,457
838.84198,443
838.960205,443
839.078308,445
839.196472,468
839.314636,440
839.4328,425
839.550964,458
839.669067,446
839.787231,441
839.905396,425
840.023499,457
840.141602,433
840.259766,452
840.377869,436
840.495972,437
840.614136,436
840.732239,460
840.850342,448
840.968445,451
841.086548,457
841.204651,447
841.322754,425
841.440918,446
841.55896,435
841.677002,446
841.795166,435
841.913208,454
842.031311,434
842.149353,447
842.267456,436
842.385498,430
842.503601,433
842.621643,445
842.739746,455
842.857788,448
842.97583,439
843.093933,445
843.211975,441
843.330017,456
843.44812,440
843.566101,434
843.684204,439
843.802246,443
843.920227,442
844.038269,438
844.156311,441
844.274292,443
844.392395,434
844.510376,431
844.628357,435
844.74646,429
844.864441,445
844.982422,451
845.100403,443
845.218384,457
845.336426,438
845.454468,443
845.572449,451
845.69043,450
845.808411,425
845.926453,443
846.044373,426
846.162354,465
846.280396,435
846.398315,457
846.516296,439
846.634216,449
846.752197,429
846.870178,445
846.988098,449
847.106079,448
847.22406,446
847.34198,446
847.4599,439
847.577881,453
847.695801,422
847.813782,435
847.931641,435
848.049561,453
848.167603,428
848.285461,446
848.403381,416
848.521362,443
848.639221,437
848.75708,444
848.875,462
848.99292,431
849.110901,452
849.22876,422
849.34668,449
849.464539,445
849.582458,430
849.700317,437
849.818176,438
849.936096,450
850.053955,442
850.171875,437
850.289673,442
850.407593,440
850.525452,434
850.643311,443
850.761169,443
850.878967,436
850.996887,436
851.114746,443
851.232544,446
851.350403,449
851.468262,422
851.58606,436
851.703979,441
851.821777,432
851.939636,439
852.057434,448
852.175232,449
852.293091,456
852.410889,462
852.528687,451
852.646545,435
852.764343,438
852.88208,441
852.999939,426
853.117676,465
853.235535,445
853.353271,444
853.471069,436
853.588928,447
853.706604,435
853.824402,436
853.9422,454
854.059998,460
854.177734,447
854.295532,429
854.413269,451
854.531006,430
854.648804,445
854.766541,459
854.884277,464
855.002014,453
855.119751,436
855.237549,453
855.355225,465
855.473022,450
855.590698,439
855.708435,432
855.826172,442
855.943848,450
856.061646,451
856.179321,429
856.296997,434
856.414795,439
856.53241,456
856.650085,436
856.767822,440
856.885559,457
857.003174,440
857.120911,448
857.238586,431
857.356201,467
857.473938,434
857.591614,441
857.709351,446
857.826965,449
857.944641,442
858.062317,448
858.179993,449
858.297668,459
858.415283,449
858.532959,458
858.650574,426
858.768188,450
858.885803,457
859.003479,440
859.121094,419
859.23877,435
859.356384,455
859.473999,436
859.591675,428
859.709229,430
859.826843,433
859.944458,443
860.062012,445
860.179626,459
860.297302,434
860.414856,447
860.532471,441
860.650024,454
860.767639,429
860.885193,439
861.002808,447
861.120361,444
861.237976,448
861.35553,448
861.473022,450
861.590698,445
861.708191,440
861.825745,445
861.943298,460
862.060852,436
862.178406,440
862.295959,452
862.413513,440
862.531006,457
862.64856,453
862.766113,459
862.883667,430
863.00116,447
863.118713,448
863.236206,444
863.353699,433
863.471252,433
863.588745,449
863.706177,451
863.82373,439
863.941162,457
864.058716,446
864.176208,440
864.29364,457
864.411194,433
864.528687,446
864.646118,459
864.763611,439
864.881042,451
864.998535,424
865.116028,456
865.233459,443
865.350891,445
865.468384,455
865.585754,452
865.703308,461
865.820679,474
865.938171,435
866.055542,453
866.173035,440
866.290466,430
866.407837,427
866.52533,445
866.6427,447
866.760071,460
866.877563,465
866.994934,446
867.112305,436
867.229736,428
867.347107,446
867.464539,461
867.58197,466
867.699341,440
867.81665,440
867.934082,445
868.051453,447
868.168823,446
868.286194,444
868.403564,441
868.520935,455
868.638306,446
868.755676,452
868.872986,450
868.990295,439
869.107727,436
869.225037,444
869.342346,439
869.459717,436
869.577026,438
869.694336,458
869.811707,437
869.929016,436
870.046326,432
870.163635,437
870.280945,444
870.398254,446
870.515564,426
870.632812,443
870.750183,441
870.867432,436
870.984741,421
871.102051,455
871.219299,452
871.336609,456
871.453918,440
871.571106,455
871.688416,453
871.805664,445
871.922852,455
872.040222,449
872.157471,441
872.274719,453
872.391968,450
872.509155,446
872.626465,440
872.743652,462
872.860962,461
872.978149,446
873.095337,443
873.212646,447
873.329834,443
873.44696,442
873.564209,460
873.681396,452
873.798645,448
873.915894,437
874.03302,461
874.150208,442
874.267456,445
874.384583,436
874.501831,443
874.618958,456
874.736145,425
874.853333,447
874.970459,448
875.087646,442
875.204834,435
875.32196,441
875.439148,446
875.556274,455
875.673401,446
875.790527,453
875.907715,447
876.024841,453
876.141968,436
876.259094,439
876.376282,448
876.493347,440
876.610474,438
876.7276,451
876.844727,456
876.961853,463
877.078918,440
877.195984,456
877.313171,468
877.430237,455
877.547302,454
877.664368,446
877.781433,448
877.898499,455
878.015625,449
878.13269,425
878.249695,451
878.366821,436
878.483887,448
878.600952,461
878.717957,430
878.834961,451
878.952087,445
879.069092,462
879.186157,457
879.303162,444
879.420227,457
879.537231,473
879.654236,444
879.77124,451
879.888306,450
880.005249,438
880.122314,434
880.239319,454
880.356323,447
880.473328,446
880.590271,452
880.707275,458
880.824341,446
880.941284,441
881.058228,442
881.175232,442
881.292236,449
881.40918,440
881.526123,450
881.643066,439
881.760071,450
881.877014,439
881.993958,443
882.11084,438
882.227783,452
882.344727,449
882.46167,448
882.578613,443
882.695618,443
882.812439,456
882.929382,457
883.046326,443
883.163208,447
883.280151,463
883.397034,457
883.513916,461
883.630798,436
883.747742,438
883.864563,451
883.981506,439
884.098389,445
884.21521,457
884.332153,448
884.448975,451
884.565796,443
884.682678,443
884.7995,464
884.916443,447
885.033264,457
885.150085,446
885.266968,444
885.383789,461
885.500671,455
885.617493,452
885.734314,457
885.851196,454
885.967896,457
886.084717,441
886.201599,456
886.318359,467
886.435181,430
886.552002,463
886.668762,447
886.785645,464
886.902344,447
887.019165,455
887.135925,420
887.252747,451
887.369446,455
887.486267,462
887.603027,424
887.719788,463
887.836548,462
887.953247,446
888.070068,437
888.186829,430
888.303528,437
888.420288,443
888.536987,462
888.653687,455
888.770447,427
888.887146,457
889.003967,443
889.120667,461
889.237305,442
889.354065,467
889.470703,450
889.587463,453
889.704163,454
889.820862,454
889.937561,434
890.054199,466
890.170837,459
890.287598,456
890.404236,456
890.520874,447
890.637634,433
890.754211,453
890.87085,467
890.987549,478
891.104187,449
891.220886,452
891.337463,461
891.454102,469
891.57074,451
891.687378,463
891.804077,458
891.920654,464
892.037231,450
892.15387,461
892.270447,440
892.387085,449
892.503723,432
892.6203,468
892.736877,452
892.853516,444
892.970032,454
893.08667,441
893.203186,462
893.319763,440
893.43634,443
893.552917,472
893.669556,460
893.786011,465
893.902588,436
894.019165,453
894.135681,451
894.252197,456
894.368835,453
894.485291,460
894.601868,430
894.718384,468
894.8349,443
894.951355,477
895.067932,466
895.184448,457
895.300964,455
895.417419,462
895.533936,454
895.650452,453
895.766907,465
895.883423,456
895.999878,455
896.116333,458
896.232849,441
896.349304,469
896.465759,461
896.582214,439
896.698669,459
896.815125,465
896.931641,456
897.048035,471
897.164551,459
897.280884,450
897.397339,478
897.513794,468
897.630249,457
897.746582,454
897.863098,442
897.979431,453
898.095886,446
898.212341,465
898.328674,459
898.445129,485
898.561462,481
898.677795,457
898.794312,456
898.910645,466
899.026978,472
899.143433,463
899.259766,471
899.37616,462
899.492493,466
899.608765,467
899.725159,450
899.841553,467
899.957947,465
900.07428,474
900.190552,466
900.306946,460
900.423157,448
900.53949,468
900.655884,443
900.772156,458
900.888489,459
901.004822,462
901.121033,473
901.237366,466
901.353699,458
901.46991,475
901.586304,462
901.702515,454
901.818787,462
901.93512,459
902.051331,453
902.167603,452
902.283875,440
902.400085,466
902.516418,440
902.632629,465
902.74884,451
902.865112,465
902.981384,437
903.097595,460
903.213867,457
903.330017,477
903.446289,463
903.5625,461
903.67865,448
903.794922,487
903.911072,444
904.027344,457
904.143494,465
904.259705,452
904.375916,450
904.492065,466
904.608215,450
904.724426,462
904.840576,452
904.956726,487
905.072876,465
905.189087,452
905.305176,469
905.421387,464
905.537537,470
905.653687,484
905.769775,456
905.885925,461
906.002014,473
906.118164,482
906.234314,466
906.350403,481
906.466492,479
906.582642,456
906.69873,463
906.814758,475
906.930908,455
907.046936,480
907.163086,453
907.279175,466
907.395264,474
907.511353,455
907.62738,444
907.743408,470
907.859497,476
907.975525,456
908.091553,463
908.207703,475
908.32373,473
908.439758,465
908.555786,460
908.671814,459
908.787842,467
908.90387,479
909.019775,472
909.135864,444
909.251892,454
909.367859,447
909.483826,467
909.599854,460
909.715881,462
909.831848,463
909.947815,447
910.063782,454
910.179749,477
910.295776,468
910.411743,459
910.527649,468
910.643616,465
910.759583,463
910.875488,459
910.991455,479
911.107361,472
911.223267,465
911.339294,486
911.4552,451
911.571106,477
911.687073,471
911.802979,497
911.918823,468
912.034729,474
912.150635,466
912.266602,463
912.382446,477
912.498352,478
912.614197,479
912.730103,462
912.846008,480
