792.44574,597
792.56488,644
792.68396,666
792.80304,666
792.92218,597
793.041199,579
793.160339,588
793.279419,619
793.398499,616
793.517578,601
793.636658,598
793.755737,621
793.874817,620
793.993896,592
794.112976,594
794.232056,574
794.351074,576
794.470215,599
794.589233,597
794.708313,599
794.827393,576
794.946411,592
795.065552,586
795.18457,591
795.303589,601
795.422668,596
795.541687,568
795.660767,564
795.779846,567
795.898865,566
796.017883,591
796.136963,563
796.255981,582
796.375061,584
796.49408,576
796.613037,573
796.732117,566
796.851135,565
796.970154,559
797.089233,573
797.208191,545
797.327271,577
797.446228,592
797.565186,566
797.684265,569
797.803223,583
797.922241,561
798.04126,563
798.160278,583
798.279297,586
798.398315,557
798.517273,559
798.636292,572
798.75531,571
798.874268,555
798.993286,563
799.112244,548
799.231323,580
799.350281,572
799.469238,582
799.588257,574
799.707153,569
799.826111,562
799.945129,579
800.064087,579
800.183044,607
800.302063,585
800.421021,563
800.539978,572
800.658936,566
800.777893,585
800.896912,571
801.015747,559
801.134705,591
801.253723,568
801.37262,557
801.491638,563
801.610535,576
801.729492,548
801.84845,581
801.967407,561
802.086243,583
802.205261,598
802.324158,581
802.443115,579
802.562073,564
802.680969,561
802.799927,583
802.918762,575
803.037659,591
803.156677,581
803.275574,584
803.39447,578
803.513428,599
803.632263,560
803.751221,581
803.870117,573
803.989014,579
804.107971,581
804.226746,581
804.345642,578
804.4646,581
804.583496,588
804.702393,594
804.821228,600
804.940125,597
805.059021,592
805.177917,604
805.296814,593
805.415649,596
805.534546,615
805.653442,606
805.772278,604
805.891113,602
806.01001,596
806.128906,602
806.247742,591
806.366577,595
806.485413,592
806.604309,630
806.723145,595
806.84198,594
806.960876,592
807.079712,590
807.198486,596
807.317383,611
807.436218,595
807.554993,617
807.673889,598
807.792725,605
807.91156,585
808.030396,596
808.14917,629
808.268005,580
808.386841,600
808.505676,604
808.624451,616
808.743286,617
808.862122,619
808.980896,602
809.099731,606
809.218506,615
809.337341,605
809.456116,631
809.57489,640
809.693726,620
809.8125,625
809.931274,621
810.050049,604
810.168884,614
810.287659,585
810.406372,598
810.525269,613
810.643982,607
810.762756,587
810.881531,615
811.000305,606
811.11908,613
811.237854,625
811.356567,611
811.475403,628
811.594116,612
811.71283,619
811.831604,621
811.950378,610
812.069153,626
812.187927,597
812.30658,636
812.425415,621
812.544128,626
812.662781,616
812.781616,614
812.900269,628
813.019043,630
813.137756,623
813.256531,618
813.375244,588
813.493896,630
813.612671,627
813.731384,614
813.850037,617
813.96875,607
814.087524,625
814.206238,615
814.324951,634
814.443604,603
814.562256,617
814.68103,592
814.799683,599
814.918335,598
815.037109,628
815.155762,631
815.274475,640
815.393188,610
815.511841,619
815.630554,625
815.749146,615
815.867859,605
815.986572,575
816.105164,584
816.223877,600
816.342529,601
816.461182,619
816.579895,614
816.698486,602
816.817139,602
816.935791,585
817.054504,606
817.173096,594
817.291748,592
817.4104,608
817.529053,605
817.647644,597
817.766235,590
817.884949,571
818.00354,575
818.122192,552
818.240845,554
818.359436,527
818.478088,546
818.59668,527
818.715271,524
818.833923,506
818.952515,537
819.071106,501
819.189758,538
819.30835,492
819.426941,513
819.545532,504
819.664124,500
819.782715,506
819.901306,499
820.019897,499
820.138489,499
820.25708,494
820.375671,482
820.494202,504
820.612732,512
820.731384,477
820.849915,494
820.968506,471
821.087097,508
821.205627,476
821.324158,485
821.442749,474
821.561279,483
821.679871,481
821.798401,479
821.916931,496
822.035461,477
822.154053,482
822.272583,486
822.391174,488
822.509583,479
822.628174,468
822.746704,498
822.865234,474
822.983765,493
823.102295,475
823.220825,484
823.339294,507
823.457825,469
823.576355,468
823.694824,485
823.813354,473
823.931885,479
824.050354,468
824.168884,478
824.287354,477
824.405823,489
824.524353,481
824.642822,480
824.761353,463
824.879822,502
824.998291,484
825.116699,499
825.235291,483
825.353699,484
825.472168,494
825.590637,479
825.709106,489
825.827576,475
825.946045,477
826.064453,471
826.182983,468
826.301392,491
826.4198,465
826.53833,466
826.656738,481
826.775208,472
826.893677,460
827.012024,462
827.130493,461
827.248962,444
827.36731,438
827.485779,462
827.604248,465
827.722595,453
827.841064,453
827.959412,462
828.077942,449
828.196289,477
828.314636,448
828.433105,465
828.551514,451
828.669861,452
828.78833,447
828.906677,458
829.025085,449
829.143433,460
829.261841,453
829.38031,452
829.498657,462
829.617004,471
829.735413,450
829.85376,454
829.972107,457
830.090515,452
830.208862,455
830.327209,465
830.445557,458
830.563904,463
830.682312,465
830.800659,465
830.919006,463
831.037354,474
831.155701,451
831.274048,451
831.392395,457
831.51062,449
831.629028,456
831.747314,473
831.865662,456
831.984009,458
832.102356,474
832.220642,437
832.338928,456
832.457275,475
832.575623,449
832.693909,462
832.812134,458
832.930481,442
833.048828,447
833.167114,473
833.2854,453
833.403687,452
833.521973,457
833.640259,473
833.758545,464
833.876831,447
833.995056,452
834.113281,477
834.231628,467
834.349915,458
834.468201,444
834.586426,457
834.704651,454
834.822998,463
834.941162,467
835.059448,449
835.177673,458
835.295959,466
835.414246,478
835.53241,468
835.650635,465
835.768921,467
835.887146,449
836.005371,456
836.123596,467
836.241821,470
836.360046,460
836.478271,487
836.596497,468
836.714722,487
836.832886,472
836.95105,462
837.069336,470
837.1875,477
837.305725,467
837.423889,476
837.542053,476
837.660339,465
837.778503,468
837.896667,484
838.014832,478
838.132996,478
838.25116,469
838.369385,471
838.487488,464
838.605713,489
838.723877,487
838.84198,451
838.960205,479
839.078308,480
839.196472,473
839.314636,470
839.4328,468
839.550964,490
839.669067,476
839.787231,472
839.905396,466
840.023499,459
840.141602,450
840.259766,455
840.377869,478
840.495972,471
840.614136,469
840.732239,478
840.850342,460
840.968445,464
841.086548,476
841.204651,446
841.322754,460
841.440918,458
841.55896,483
841.677002,454
841.795166,451
841.913208,450
842.031311,450
842.149353,476
842.267456,452
842.385498,442
842.503601,462
842.621643,446
842.739746,461
842.857788,470
842.97583,457
843.093933,470
843.211975,456
843.330017,455
843.44812,434
843.566101,459
843.684204,451
843.802246,455
843.920227,461
844.038269,471
844.156311,431
844.274292,450
844.392395,462
844.510376,472
844.628357,434
844.74646,443
844.864441,466
844.982422,441
845.100403,462
845.218384,445
845.336426,443
845.454468,446
845.572449,455
845.69043,437
845.808411,459
845.926453,438
846.044373,440
846.162354,470
846.280396,443
846.398315,456
846.516296,456
846.634216,444
846.752197,460
846.870178,451
846.988098,462
847.106079,444
847.22406,444
847.34198,461
847.4599,441
847.577881,464
847.695801,454
847.813782,446
847.931641,455
848.049561,452
848.167603,468
848.285461,459
848.403381,438
848.521362,462
848.639221,449
848.75708,454
848.875,459
848.99292,465
849.110901,450
849.22876,443
849.34668,466
849.464539,459
849.582458,460
849.700317,456
849.818176,436
849.936096,466
850.053955,451
850.171875,473
850.289673,475
850.407593,460
850.525452,456
850.643311,446
850.761169,476
850.878967,458
850.996887,463
851.114746,459
851.232544,479
851.350403,452
851.468262,470
851.58606,445
851.703979,450
851.821777,471
851.939636,451
852.057434,467
852.175232,460
852.293091,435
852.410889,467
852.528687,457
852.646545,456
852.764343,463
852.88208,445
852.999939,442
853.117676,439
853.235535,450
853.353271,471
853.471069,451
853.588928,457
853.706604,453
853.824402,447
853.9422,463
854.059998,444
854.177734,470
854.295532,460
854.413269,481
854.531006,451
854.648804,464
854.766541,473
854.884277,447
855.002014,464
855.119751,461
855.237549,475
855.355225,464
855.473022,444
855.590698,459
855.708435,452
855.826172,451
855.943848,459
856.061646,470
856.179321,470
856.296997,479
856.414795,447
856.53241,459
856.650085,458
856.767822,469
856.885559,445
857.003174,466
857.120911,461
857.238586,442
857.356201,468
857.473938,474
857.591614,455
857.709351,471
857.826965,475
857.944641,460
858.062317,468
858.179993,454
858.297668,465
858.415283,463
858.532959,450
858.650574,458
858.768188,458
858.885803,473
859.003479,468
859.121094,448
859.23877,448
859.356384,470
859.473999,453
859.591675,482
859.709229,442
859.826843,459
859.944458,456
860.062012,451
860.179626,467
860.297302,460
860.414856,463
860.532471,470
860.650024,443
860.767639,462
860.885193,457
861.002808,450
861.120361,460
861.237976,468
861.35553,468
861.473022,471
861.590698,454
861.708191,467
861.825745,457
861.943298,467
862.060852,450
862.178406,449
862.295959,447
862.413513,457
862.531006,462
862.64856,482
862.766113,452
862.883667,462
863.00116,473
863.118713,458
863.236206,464
863.353699,472
863.471252,432
863.588745,451
863.706177,458
863.82373,464
863.941162,437
864.058716,465
864.176208,454
864.29364,469
864.411194,466
864.528687,460
864.646118,453
864.763611,453
864.881042,441
864.998535,448
865.116028,424
865.233459,456
865.350891,459
865.468384,463
865.585754,445
865.703308,469
865.820679,459
865.938171,471
866.055542,459
866.173035,462
866.290466,446
866.407837,460
866.52533,466
866.6427,461
866.760071,453
866.877563,462
866.994934,479
867.112305,473
867.229736,466
867.347107,456
867.464539,463
867.58197,481
867.699341,460
867.81665,475
867.934082,476
868.051453,459
868.168823,474
868.286194,476
868.403564,457
868.520935,454
868.638306,471
868.755676,461
868.872986,442
868.990295,463
869.107727,445
869.225037,472
869.342346,465
869.459717,476
869.577026,489
869.694336,463
869.811707,489
869.929016,473
870.046326,462
870.163635,475
870.280945,457
870.398254,461
870.515564,455
870.632812,455
870.750183,461
870.867432,470
870.984741,456
871.102051,460
871.219299,479
871.336609,466
871.453918,448
871.571106,450
871.688416,468
871.805664,452
871.922852,471
872.040222,472
872.157471,471
872.274719,453
872.391968,454
872.509155,469
872.626465,451
872.743652,453
872.860962,440
872.978149,464
873.095337,444
873.212646,475
873.329834,449
873.44696,469
873.564209,457
873.681396,466
873.798645,469
873.915894,456
874.03302,455
874.150208,445
874.267456,458
874.384583,460
874.501831,459
874.618958,469
874.736145,470
874.853333,461
874.970459,477
875.087646,456
875.204834,483
875.32196,455
875.439148,477
875.556274,475
875.673401,471
875.790527,478
875.907715,472
876.024841,472
876.141968,460
876.259094,482
876.376282,482
876.493347,469
876.610474,465
876.7276,452
876.844727,469
876.961853,470
877.078918,476
877.195984,464
877.313171,460
877.430237,477
877.547302,452
877.664368,462
877.781433,465
877.898499,464
878.015625,446
878.13269,461
878.249695,467
878.366821,478
878.483887,479
878.600952,477
878.717957,460
878.834961,457
878.952087,476
879.069092,480
879.186157,456
879.303162,467
879.420227,451
879.537231,466
879.654236,468
879.77124,463
879.888306,464
880.005249,464
880.122314,469
880.239319,471
880.356323,463
880.473328,470
880.590271,495
880.707275,463
880.824341,472
880.941284,469
881.058228,466
881.175232,484
881.292236,434
881.40918,461
881.526123,449
881.643066,468
881.760071,472
881.877014,466
881.993958,457
882.11084,470
882.227783,484
882.344727,479
882.46167,466
882.578613,467
882.695618,460
882.812439,466
882.929382,447
883.046326,492
883.163208,466
883.280151,468
883.397034,461
883.513916,469
883.630798,458
883.747742,480
883.864563,486
883.981506,482
884.098389,443
884.21521,462
884.332153,489
884.448975,463
884.565796,465
884.682678,472
884.7995,475
884.916443,488
885.033264,468
885.150085,461
885.266968,460
885.383789,462
885.500671,473
885.617493,473
885.734314,466
885.851196,484
885.967896,475
886.084717,502
886.201599,481
886.318359,489
886.435181,477
886.552002,478
886.668762,474
886.785645,466
886.902344,465
887.019165,469
887.135925,465
887.252747,477
887.369446,466
887.486267,465
887.603027,478
887.719788,478
887.836548,493
887.953247,454
888.070068,481
888.186829,463
888.303528,469
888.420288,470
888.536987,480
888.653687,467
888.770447,465
888.887146,456
889.003967,463
889.120667,461
889.237305,471
889.354065,471
889.470703,461
889.587463,473
889.704163,461
889.820862,460
889.937561,449
890.054199,484
890.170837,477
890.287598,468
890.404236,465
890.520874,488
890.637634,480
890.754211,481
890.87085,457
890.987549,477
891.104187,481
891.220886,499
891.337463,477
891.454102,490
891.57074,489
891.687378,464
891.804077,471
891.920654,496
892.037231,472
892.15387,467
892.270447,473
892.387085,476
892.503723,474
892.6203,482
892.736877,475
892.853516,458
892.970032,483
893.08667,479
893.203186,462
893.319763,471
893.43634,456
893.552917,473
893.669556,471
893.786011,457
893.902588,479
894.019165,461
894.135681,494
894.252197,492
894.368835,467
894.485291,466
894.601868,460
894.718384,473
894.8349,470
894.951355,478
895.067932,473
895.184448,486
895.300964,486
895.417419,477
895.533936,472
895.650452,488
895.766907,473
895.883423,489
895.999878,474
896.116333,479
896.232849,473
896.349304,480
896.465759,473
896.582214,480
896.698669,492
896.815125,473
896.931641,483
897.048035,493
897.164551,474
897.280884,485
897.397339,477
897.513794,470
897.630249,465
897.746582,489
897.863098,469
897.979431,499
898.095886,482
898.212341,466
898.328674,496
898.445129,479
898.561462,495
898.677795,482
898.794312,489
898.910645,475
899.026978,473
899.143433,483
899.259766,476
899.37616,478
899.492493,468
899.608765,484
899.725159,494
899.841553,497
899.957947,478
900.07428,479
900.190552,480
900.306946,492
900.423157,488
900.53949,463
900.655884,477
900.772156,499
900.888489,482
901.004822,483
901.121033,493
901.237366,468
901.353699,481
901.46991,475
901.586304,468
901.702515,489
901.818787,494
901.93512,468
902.051331,489
902.167603,484
902.283875,491
902.400085,476
902.516418,471
902.632629,483
902.74884,477
902.865112,484
902.981384,473
903.097595,497
903.213867,487
903.330017,498
903.446289,484
903.5625,491
903.67865,482
903.794922,504
903.911072,476
904.027344,480
904.143494,482
904.259705,503
904.375916,461
904.492065,472
904.608215,481
904.724426,484
904.840576,485
904.956726,491
905.072876,484
905.189087,462
905.305176,482
905.421387,483
905.537537,484
905.653687,481
905.769775,468
905.885925,491
906.002014,473
906.118164,498
906.234314,472
906.350403,479
906.466492,474
906.582642,487
906.69873,484
906.814758,480
906.930908,466
907.046936,474
907.163086,482
907.279175,493
907.395264,488
907.511353,494
907.62738,490
907.743408,466
907.859497,508
907.975525,494
908.091553,472
908.207703,488
908.32373,494
908.439758,492
908.555786,491
908.671814,468
908.787842,474
908.90387,485
909.019775,466
909.135864,484
909.251892,492
909.367859,494
909.483826,501
909.599854,486
909.715881,499
909.831848,482
909.947815,494
910.063782,477
910.179749,491
910.295776,460
910.411743,481
910.527649,494
910.643616,478
910.759583,479
910.875488,484
910.991455,488
911.107361,482
911.223267,492
911.339294,483
911.4552,485
911.571106,484
911.687073,472
911.802979,484
911.918823,474
912.034729,503
912.150635,479
912.266602,489
912.382446,467
912.498352,470
912.614197,464
912.730103,483
912.846008,487
792.44574,603
792.56488,637
792.68396,696
792.80304,654
792.92218,611
793.041199,573
793.160339,592
793.279419,630
793.398499,585
793.517578,581
793.636658,603
793.755737,598
793.874817,599
793.993896,610
794.112976,599
794.232056,614
794.351074,594
794.470215,587
794.589233,582
794.708313,593
794.827393,569
794.946411,570
795.065552,580
795.18457,594
795.303589,595
795.422668,583
795.541687,570
795.660767,571
795.779846,587
795.898865,564
796.017883,566
796.136963,585
796.255981,575
796.375061,589
796.49408,569
796.613037,574
796.732117,575
796.851135,581
796.970154,578
797.089233,601
797.208191,565
797.327271,575
797.446228,585
797.565186,562
797.684265,589
797.803223,554
797.922241,591
798.04126,566
798.160278,588
798.279297,566
798.398315,558
798.517273,578
798.636292,577
798.75531,561
798.874268,568
798.993286,562
799.112244,580
799.231323,549
799.350281,576
799.469238,579
799.588257,576
799.707153,573
799.826111,579
799.945129,585
800.064087,577
800.183044,576
800.302063,568
800.421021,558
800.539978,569
800.658936,581
800.777893,581
800.896912,568
801.015747,533
801.134705,567
801.253723,565
801.37262,585
801.491638,592
801.610535,575
801.729492,566
801.84845,559
801.967407,592
802.086243,584
802.205261,566
802.324158,582
802.443115,580
802.562073,583
802.680969,576
802.799927,614
802.918762,609
803.037659,596
803.156677,580
803.275574,584
803.39447,585
803.513428,586
803.632263,595
803.751221,585
803.870117,598
803.989014,599
804.107971,617
804.226746,600
804.345642,610
804.4646,570
804.583496,591
804.702393,605
804.821228,592
804.940125,593
805.059021,572
805.177917,593
805.296814,599
805.415649,580
805.534546,591
805.653442,609
805.772278,600
805.891113,616
806.01001,596
806.128906,631
806.247742,603
806.366577,591
806.485413,631
806.604309,606
806.723145,596
806.84198,596
806.960876,601
807.079712,589
807.198486,581
807.317383,632
807.436218,606
807.554993,609
807.673889,630
807.792725,594
807.91156,595
808.030396,621
808.14917,607
808.268005,640
808.386841,617
808.505676,629
808.624451,610
808.743286,587
808.862122,631
808.980896,599
809.099731,604
809.218506,622
809.337341,614
809.456116,620
809.57489,617
809.693726,610
809.8125,632
809.931274,602
810.050049,620
810.168884,610
810.287659,617
810.406372,625
810.525269,620
810.643982,600
810.762756,593
810.881531,606
811.000305,617
811.11908,629
811.237854,631
811.356567,622
811.475403,635
811.594116,617
811.71283,625
811.831604,610
811.950378,601
812.069153,629
812.187927,596
812.30658,630
812.425415,608
812.544128,655
812.662781,625
812.781616,619
812.900269,625
813.019043,617
813.137756,623
813.256531,605
813.375244,609
813.493896,631
813.612671,624
813.731384,630
813.850037,631
813.96875,637
814.087524,635
814.206238,616
814.324951,617
814.443604,617
814.562256,630
814.68103,623
814.799683,605
814.918335,611
815.037109,615
815.155762,624
815.274475,625
815.393188,602
815.511841,586
815.630554,627
815.749146,584
815.867859,600
815.986572,623
816.105164,594
816.223877,582
816.342529,605
816.461182,592
816.579895,607
816.698486,616
816.817139,600
816.935791,577
817.054504,622
817.173096,613
817.291748,597
817.4104,594
817.529053,594
817.647644,587
817.766235,590
817.884949,588
818.00354,549
818.122192,577
818.240845,567
818.359436,540
818.478088,557
818.59668,521
818.715271,508
818.833923,527
818.952515,533
819.071106,516
819.189758,516
819.30835,524
819.426941,518
819.545532,521
819.664124,529
819.782715,499
819.901306,495
820.019897,479
820.138489,501
820.25708,501
820.375671,493
820.494202,487
820.612732,503
820.731384,489
820.849915,487
820.968506,491
821.087097,505
821.205627,479
821.324158,474
821.442749,490
821.561279,472
821.679871,498
821.798401,508
821.916931,483
822.035461,482
822.154053,488
822.272583,491
822.391174,483
822.509583,483
822.628174,477
822.746704,470
822.865234,468
822.983765,495
823.102295,473
823.220825,480
823.339294,452
823.457825,477
823.576355,496
823.694824,503
823.813354,485
823.931885,480
824.050354,458
824.168884,483
824.287354,486
824.405823,496
824.524353,457
824.642822,495
824.761353,480
824.879822,482
824.998291,465
825.116699,487
825.235291,478
825.353699,500
825.472168,470
825.590637,484
825.709106,488
825.827576,472
825.946045,480
826.064453,487
826.182983,466
826.301392,458
826.4198,475
826.53833,456
826.656738,455
826.775208,479
826.893677,456
827.012024,456
827.130493,482
827.248962,462
827.36731,467
827.485779,465
827.604248,481
827.722595,470
827.841064,449
827.959412,481
828.077942,453
828.196289,446
828.314636,472
828.433105,470
828.551514,460
828.669861,477
828.78833,457
828.906677,475
829.025085,476
829.143433,472
829.261841,449
829.38031,462
829.498657,459
829.617004,471
829.735413,464
829.85376,469
829.972107,468
830.090515,438
830.208862,486
830.327209,454
830.445557,469
830.563904,449
830.682312,463
830.800659,470
830.919006,447
831.037354,453
831.155701,465
831.274048,483
831.392395,468
831.51062,464
831.629028,447
831.747314,445
831.865662,474
831.984009,455
832.102356,455
832.220642,453
832.338928,455
832.457275,483
832.575623,452
832.693909,456
832.812134,432
832.930481,449
833.048828,458
833.167114,450
833.2854,472
833.403687,471
833.521973,471
833.640259,448
833.758545,460
833.876831,468
833.995056,459
834.113281,464
834.231628,465
834.349915,467
834.468201,461
834.586426,466
834.704651,445
834.822998,471
834.941162,463
835.059448,453
835.177673,481
835.295959,458
835.414246,454
835.53241,471
835.650635,460
835.768921,461
835.887146,466
836.005371,467
836.123596,475
836.241821,463
836.360046,460
836.478271,478
836.596497,469
836.714722,484
836.832886,470
836.95105,492
837.069336,477
837.1875,468
837.305725,465
837.423889,491
837.542053,485
837.660339,472
837.778503,467
837.896667,476
838.014832,474
838.132996,476
838.25116,477
838.369385,484
838.487488,462
838.605713,458
838.723877,466
838.84198,494
838.960205,473
839.078308,469
839.196472,460
839.314636,468
839.4328,461
839.550964,472
839.669067,475
839.787231,471
839.905396,463
840.023499,471
840.141602,465
840.259766,459
840.377869,479
840.495972,471
840.614136,471
840.732239,466
840.850342,474
840.968445,479
841.086548,464
841.204651,463
841.322754,471
841.440918,456
841.55896,459
841.677002,457
841.795166,460
841.913208,459
842.031311,467
842.149353,458
842.267456,456
842.385498,472
842.503601,451
842.621643,471
842.739746,436
842.857788,447
842.97583,486
843.093933,443
843.211975,452
843.330017,440
843.44812,445
843.566101,459
843.684204,444
843.802246,454
843.920227,450
844.038269,470
844.156311,460
844.274292,460
844.392395,456
844.510376,463
844.628357,469
844.74646,461
844.864441,461
844.982422,462
845.100403,445
845.218384,453
845.336426,453
845.454468,472
845.572449,440
845.69043,465
845.808411,454
845.926453,452
846.044373,450
846.162354,464
846.280396,460
846.398315,445
846.516296,449
846.634216,469
846.752197,456
846.870178,449
846.988098,441
847.106079,466
847.22406,438
847.34198,451
847.4599,455
847.577881,446
847.695801,449
847.813782,445
847.931641,448
848.049561,460
848.167603,443
848.285461,469
848.403381,456
848.521362,447
848.639221,459
848.75708,453
848.875,468
848.99292,450
849.110901,437
849.22876,466
849.34668,452
849.464539,461
849.582458,472
849.700317,449
849.818176,451
849.936096,456
850.053955,458
850.171875,446
850.289673,468
850.407593,458
850.525452,433
850.643311,467
850.761169,439
850.878967,474
850.996887,481
851.114746,460
851.232544,449
851.350403,456
851.468262,455
851.58606,452
851.703979,457
851.821777,473
851.939636,450
852.057434,446
852.175232,454
852.293091,465
852.410889,474
852.528687,465
852.646545,466
852.764343,441
852.88208,483
852.999939,458
853.117676,446
853.235535,467
853.353271,456
853.471069,469
853.588928,446
853.706604,459
853.824402,449
853.9422,449
854.059998,463
854.177734,459
854.295532,439
854.413269,472
854.531006,465
854.648804,475
854.766541,451
854.884277,462
855.002014,464
855.119751,462
855.237549,442
855.355225,451
855.473022,460
855.590698,463
855.708435,470
855.826172,491
855.943848,462
856.061646,460
856.179321,451
856.296997,471
856.414795,460
856.53241,467
856.650085,462
856.767822,473
856.885559,461
857.003174,474
857.120911,473
857.238586,472
857.356201,464
857.473938,464
857.591614,448
857.709351,464
857.826965,483
857.944641,471
858.062317,464
858.179993,464
858.297668,448
858.415283,463
858.532959,442
858.650574,479
858.768188,478
858.885803,461
859.003479,450
859.121094,473
859.23877,466
859.356384,448
859.473999,472
859.591675,474
859.709229,448
859.826843,452
859.944458,464
860.062012,459
860.179626,471
860.297302,470
860.414856,459
860.532471,462
860.650024,447
860.767639,459
860.885193,482
861.002808,461
861.120361,456
861.237976,469
861.35553,476
861.473022,480
861.590698,464
861.708191,453
861.825745,454
861.943298,454
862.060852,466
862.178406,474
862.295959,462
862.413513,467
862.531006,458
862.64856,471
862.766113,465
862.883667,469
863.00116,460
863.118713,450
863.236206,471
863.353699,439
863.471252,465
863.588745,468
863.706177,456
863.82373,478
863.941162,458
864.058716,457
864.176208,469
864.29364,457
864.411194,472
864.528687,467
864.646118,457
864.763611,459
864.881042,458
864.998535,459
865.116028,465
865.233459,467
865.350891,457
865.468384,477
865.585754,472
865.703308,458
865.820679,451
865.938171,470
866.055542,461
866.173035,464
866.290466,443
866.407837,462
866.52533,465
866.6427,471
866.760071,455
866.877563,459
866.994934,483
867.112305,462
867.229736,465
867.347107,469
867.464539,469
867.58197,450
867.699341,457
867.81665,468
867.934082,474
868.051453,451
868.168823,457
868.286194,478
868.403564,468
868.520935,462
868.638306,478
868.755676,442
868.872986,465
868.990295,476
869.107727,454
869.225037,474
869.342346,462
869.459717,459
869.577026,457
869.694336,463
869.811707,450
869.929016,469
870.046326,441
870.163635,470
870.280945,480
870.398254,456
870.515564,465
870.632812,469
870.750183,436
870.867432,481
870.984741,448
871.102051,451
871.219299,456
871.336609,465
871.453918,470
871.571106,466
871.688416,470
871.805664,471
871.922852,461
872.040222,463
872.157471,450
872.274719,467
872.391968,479
872.509155,444
872.626465,453
872.743652,466
872.860962,467
872.978149,471
873.095337,454
873.212646,474
873.329834,475
873.44696,462
873.564209,457
873.681396,458
873.798645,483
873.915894,476
874.03302,456
874.150208,472
874.267456,463
874.384583,473
874.501831,457
874.618958,465
874.736145,491
874.853333,452
874.970459,478
875.087646,474
875.204834,437
875.32196,469
875.439148,463
875.556274,458
875.673401,465
875.790527,469
875.907715,463
876.024841,467
876.141968,466
876.259094,473
876.376282,460
876.493347,453
876.610474,458
876.7276,488
876.844727,472
876.961853,468
877.078918,484
877.195984,465
877.313171,469
877.430237,455
877.547302,471
877.664368,462
877.781433,474
877.898499,481
878.015625,463
878.13269,455
878.249695,478
878.366821,471
878.483887,463
878.600952,473
878.717957,462
878.834961,469
878.952087,460
879.069092,470
879.186157,470
879.303162,455
879.420227,472
879.537231,460
879.654236,478
879.77124,468
879.888306,466
880.005249,471
880.122314,464
880.239319,484
880.356323,474
880.473328,480
880.590271,467
880.707275,475
880.824341,454
880.941284,475
881.058228,464
881.175232,468
881.292236,461
881.40918,475
881.526123,472
881.643066,450
881.760071,472
881.877014,464
881.993958,472
882.11084,457
882.227783,467
882.344727,478
882.46167,463
882.578613,494
882.695618,488
882.812439,450
882.929382,453
883.046326,479
883.163208,465
883.280151,474
883.397034,486
883.513916,473
883.630798,458
883.747742,474
883.864563,466
883.981506,473
884.098389,447
884.21521,488
884.332153,474
884.448975,460
884.565796,458
884.682678,454
884.7995,484
884.916443,470
885.033264,479
885.150085,471
885.266968,475
885.383789,478
885.500671,473
885.617493,475
885.734314,474
885.851196,463
885.967896,457
886.084717,479
886.201599,473
886.318359,485
886.435181,475
886.552002,483
886.668762,470
886.785645,482
886.902344,478
887.019165,477
887.135925,460
887.252747,474
887.369446,481
887.486267,471
887.603027,463
887.719788,465
887.836548,480
887.953247,469
888.070068,478
888.186829,473
888.303528,479
888.420288,469
888.536987,460
888.653687,476
888.770447,477
888.887146,484
889.003967,458
889.120667,464
889.237305,466
889.354065,474
889.470703,480
889.587463,476
889.704163,479
889.820862,488
889.937561,494
890.054199,475
890.170837,478
890.287598,482
890.404236,473
890.520874,484
890.637634,476
890.754211,468
890.87085,472
890.987549,484
891.104187,468
891.220886,472
891.337463,465
891.454102,484
891.57074,476
891.687378,496
891.804077,503
891.920654,477
892.037231,473
892.15387,490
892.270447,495
892.387085,477
892.503723,478
892.6203,485
892.736877,484
892.853516,480
892.970032,482
893.08667,467
893.203186,482
893.319763,478
893.43634,461
893.552917,488
893.669556,482
893.786011,481
893.902588,481
894.019165,475
894.135681,475
894.252197,481
894.368835,488
894.485291,481
894.601868,477
894.718384,468
894.8349,481
894.951355,476
895.067932,458
895.184448,484
895.300964,493
895.417419,490
895.533936,482
895.650452,498
895.766907,484
895.883423,478
895.999878,474
896.116333,480
896.232849,464
896.349304,467
896.465759,469
896.582214,477
896.698669,459
896.815125,473
896.931641,499
897.048035,477
897.164551,487
897.280884,495
897.397339,465
897.513794,463
897.630249,495
897.746582,479
897.863098,495
897.979431,479
898.095886,476
898.212341,497
898.328674,472
898.445129,485
898.561462,490
898.677795,488
898.794312,469
898.910645,476
899.026978,475
899.143433,475
899.259766,488
899.37616,464
899.492493,474
899.608765,497
899.725159,481
899.841553,472
899.957947,488
900.07428,461
900.190552,498
900.306946,475
900.423157,470
900.53949,470
900.655884,503
900.772156,497
900.888489,465
901.004822,501
901.121033,483
901.237366,481
901.353699,480
901.46991,478
901.586304,475
901.702515,501
901.818787,493
901.93512,473
902.051331,468
902.167603,484
902.283875,473
902.400085,478
902.516418,508
902.632629,510
902.74884,499
902.865112,490
902.981384,495
903.097595,481
903.213867,475
903.330017,503
903.446289,493
903.5625,491
903.67865,495
903.794922,483
903.911072,474
904.027344,488
904.143494,483
904.259705,469
904.375916,480
904.492065,497
904.608215,469
904.724426,490
904.840576,490
904.956726,487
905.072876,483
905.189087,488
905.305176,490
905.421387,495
905.537537,483
905.653687,479
905.769775,481
905.885925,482
906.002014,472
906.118164,488
906.234314,486
906.350403,483
906.466492,464
906.582642,514
906.69873,477
906.814758,509
906.930908,481
907.046936,497
907.163086,479
907.279175,478
907.395264,491
907.511353,486
907.62738,474
907.743408,487
907.859497,472
907.975525,501
908.091553,488
908.207703,473
908.32373,479
908.439758,496
908.555786,498
908.671814,499
908.787842,476
908.90387,494
909.019775,487
909.135864,487
909.251892,479
909.367859,504
909.483826,491
909.599854,488
909.715881,490
909.831848,490
909.947815,470
910.063782,493
910.179749,469
910.295776,468
910.411743,493
910.527649,509
910.643616,484
910.759583,491
910.875488,498
910.991455,477
911.107361,491
911.223267,485
911.339294,477
911.4552,488
911.571106,506
911.687073,494
911.802979,477
911.918823,476
912.034729,471
912.150635,502
912.266602,475
912.382446,483
912.498352,484
912.614197,491
912.730103,499
912.846008,492
792.44574,619
792.56488,630
792.68396,712
792.80304,658
792.92218,651
793.041199,598
793.160339,600
793.279419,622
793.398499,601
793.517578,615
793.636658,616
793.755737,604
793.874817,615
793.993896,615
794.112976,600
794.232056,583
794.351074,607
794.470215,599
794.589233,576
794.708313,597
794.827393,583
794.946411,598
795.065552,589
795.18457,590
795.303589,590
795.422668,595
795.541687,586
795.660767,579
795.779846,561
795.898865,584
796.017883,596
796.136963,572
796.255981,606
796.375061,580
796.49408,574
796.613037,571
796.732117,589
796.851135,571
796.970154,574
797.089233,563
797.208191,565
797.327271,574
797.446228,559
797.565186,590
797.684265,569
797.803223,589
797.922241,583
798.04126,586
798.160278,557
798.279297,574
798.398315,581
798.517273,554
798.636292,541
798.75531,556
798.874268,577
798.993286,583
799.112244,558
799.231323,590
799.350281,572
799.469238,560
799.588257,573
799.707153,580
799.826111,573
799.945129,591
800.064087,567
800.183044,575
800.302063,556
800.421021,577
800.539978,582
800.658936,567
800.777893,569
800.896912,565
801.015747,562
801.134705,582
801.253723,572
801.37262,581
801.491638,574
801.610535,568
801.729492,573
801.84845,597
801.967407,591
802.086243,603
802.205261,566
802.324158,594
802.443115,584
802.562073,580
802.680969,610
802.799927,584
802.918762,566
803.037659,588
803.156677,573
803.275574,578
803.39447,583
803.513428,597
803.632263,587
803.751221,589
803.870117,562
803.989014,585
804.107971,589
804.226746,592
804.345642,604
804.4646,586
804.583496,593
804.702393,603
804.821228,593
804.940125,584
805.059021,596
805.177917,597
805.296814,585
805.415649,581
805.534546,587
805.653442,605
805.772278,595
805.891113,609
806.01001,596
806.128906,596
806.247742,613
806.366577,620
806.485413,604
806.604309,629
806.723145,589
806.84198,588
806.960876,598
807.079712,628
807.198486,585
807.317383,630
807.436218,600
807.554993,604
807.673889,614
807.792725,623
807.91156,622
808.030396,595
808.14917,589
808.268005,606
808.386841,621
808.505676,597
808.624451,612
808.743286,608
808.862122,623
808.980896,629
809.099731,608
809.218506,633
809.337341,619
809.456116,592
809.57489,627
809.693726,618
809.8125,589
809.931274,630
810.050049,610
810.168884,616
810.287659,623
810.406372,606
810.525269,631
810.643982,629
810.762756,602
810.881531,619
811.000305,644
811.11908,601
811.237854,627
811.356567,636
811.475403,621
811.594116,620
811.71283,589
811.831604,639
811.950378,628
812.069153,646
812.187927,618
812.30658,632
812.425415,634
812.544128,605
812.662781,610
812.781616,618
812.900269,621
813.019043,614
813.137756,634
813.256531,609
813.375244,629
813.493896,630
813.612671,625
813.731384,625
813.850037,624
813.96875,611
814.087524,616
814.206238,627
814.324951,630
814.443604,625
814.562256,618
814.68103,611
814.799683,620
814.918335,611
815.037109,638
815.155762,615
815.274475,596
815.393188,628
815.511841,631
815.630554,599
815.749146,595
815.867859,618
815.986572,602
816.105164,598
816.223877,596
816.342529,591
816.461182,608
816.579895,606
816.698486,587
816.817139,609
816.935791,617
817.054504,596
817.173096,601
817.291748,611
817.4104,616
817.529053,571
817.647644,578
817.766235,570
817.884949,554
818.00354,562
818.122192,568
818.240845,549
818.359436,541
818.478088,546
818.59668,544
818.715271,545
818.833923,511
818.952515,519
819.071106,515
819.189758,501
819.30835,510
819.426941,541
819.545532,491
819.664124,513
819.782715,482
819.901306,506
820.019897,500
820.138489,487
820.25708,512
820.375671,486
820.494202,498
820.612732,495
820.731384,479
820.849915,505
820.968506,457
821.087097,487
821.205627,483
821.324158,471
821.442749,494
821.561279,487
821.679871,490
821.798401,480
821.916931,490
822.035461,487
822.154053,487
822.272583,489
822.391174,477
822.509583,499
822.628174,493
822.746704,478
822.865234,465
822.983765,490
823.102295,494
823.220825,475
823.339294,489
823.457825,476
823.576355,485
823.694824,474
823.813354,465
823.931885,487
824.050354,483
824.168884,497
824.287354,494
824.405823,490
824.524353,508
824.642822,483
824.761353,493
824.879822,483
824.998291,479
825.116699,493
825.235291,483
825.353699,475
825.472168,464
825.590637,470
825.709106,483
825.827576,486
825.946045,475
826.064453,482
826.182983,487
826.301392,472
826.4198,479
826.53833,477
826.656738,488
826.775208,479
826.893677,478
827.012024,470
827.130493,464
827.248962,469
827.36731,473
827.485779,489
827.604248,439
827.722595,445
827.841064,478
827.959412,457
828.077942,476
828.196289,470
828.314636,459
828.433105,457
828.551514,473
828.669861,443
828.78833,458
828.906677,453
829.025085,455
829.143433,458
829.261841,451
829.38031,441
829.498657,476
829.617004,475
829.735413,470
829.85376,465
829.972107,456
830.090515,463
830.208862,469
830.327209,466
830.445557,458
830.563904,455
830.682312,444
830.800659,456
830.919006,455
831.037354,471
831.155701,462
831.274048,479
831.392395,456
831.51062,483
831.629028,460
831.747314,479
831.865662,439
831.984009,468
832.102356,462
832.220642,454
832.338928,469
832.457275,464
832.575623,462
832.693909,459
832.812134,462
832.930481,453
833.048828,456
833.167114,476
833.2854,454
833.403687,477
833.521973,456
833.640259,489
833.758545,472
833.876831,497
833.995056,467
834.113281,472
834.231628,444
834.349915,467
834.468201,469
834.586426,445
834.704651,462
834.822998,457
834.941162,470
835.059448,462
835.177673,440
835.295959,439
835.414246,470
835.53241,456
835.650635,465
835.768921,457
835.887146,453
836.005371,471
836.123596,486
836.241821,469
836.360046,480
836.478271,467
836.596497,469
836.714722,473
836.832886,461
836.95105,484
837.069336,472
837.1875,474
837.305725,473
837.423889,498
837.542053,474
837.660339,488
837.778503,460
837.896667,496
838.014832,476
838.132996,474
838.25116,481
838.369385,481
838.487488,489
838.605713,470
838.723877,468
838.84198,494
838.960205,482
839.078308,490
839.196472,464
839.314636,461
839.4328,468
839.550964,476
839.669067,452
839.787231,482
839.905396,485
840.023499,468
840.141602,484
840.259766,488
840.377869,472
840.495972,450
840.614136,458
840.732239,482
840.850342,459
840.968445,480
841.086548,458
841.204651,458
841.322754,461
841.440918,463
841.55896,476
841.677002,475
841.795166,466
841.913208,462
842.031311,470
842.149353,456
842.267456,460
842.385498,461
842.503601,460
842.621643,447
842.739746,467
842.857788,460
842.97583,461
843.093933,468
843.211975,467
843.330017,462
843.44812,461
843.566101,455
843.684204,459
843.802246,459
843.920227,489
844.038269,465
844.156311,452
844.274292,455
844.392395,453
844.510376,463
844.628357,434
844.74646,486
844.864441,453
844.982422,470
845.100403,452
845.218384,467
845.336426,442
845.454468,472
845.572449,449
845.69043,449
845.808411,448
845.926453,440
846.044373,445
846.162354,453
846.280396,463
846.398315,446
846.516296,457
846.634216,452
846.752197,467
846.870178,495
846.988098,463
847.106079,448
847.22406,460
847.34198,463
847.4599,458
847.577881,449
847.695801,436
847.813782,466
847.931641,460
848.049561,468
848.167603,450
848.285461,466
848.403381,455
848.521362,440
848.639221,454
848.75708,441
848.875,447
848.99292,458
849.110901,435
849.22876,473
849.34668,443
849.464539,454
849.582458,461
849.700317,461
849.818176,464
849.936096,453
850.053955,451
850.171875,451
850.289673,452
850.407593,461
850.525452,453
850.643311,455
850.761169,421
850.878967,460
850.996887,475
851.114746,450
851.232544,462
851.350403,458
851.468262,457
851.58606,472
851.703979,465
851.821777,449
851.939636,473
852.057434,469
852.175232,440
852.293091,454
852.410889,454
852.528687,467
852.646545,453
852.764343,461
852.88208,466
852.999939,447
853.117676,434
853.235535,457
853.353271,438
853.471069,475
853.588928,457
853.706604,467
853.824402,452
853.9422,471
854.059998,455
854.177734,468
854.295532,451
854.413269,436
854.531006,457
854.648804,461
854.766541,479
854.884277,470
855.002014,477
855.119751,473
855.237549,452
855.355225,445
855.473022,466
855.590698,463
855.708435,456
855.826172,464
855.943848,455
856.061646,481
856.179321,430
856.296997,469
856.414795,470
856.53241,472
856.650085,456
856.767822,473
856.885559,461
857.003174,466
857.120911,453
857.238586,474
857.356201,477
857.473938,476
857.591614,450
857.709351,468
857.826965,467
857.944641,466
858.062317,456
858.179993,492
858.297668,459
858.415283,469
858.532959,463
858.650574,486
858.768188,466
858.885803,472
859.003479,460
859.121094,454
859.23877,455
859.356384,478
859.473999,478
859.591675,450
859.709229,457
859.826843,455
859.944458,469
860.062012,462
860.179626,442
860.297302,458
860.414856,465
860.532471,463
860.650024,452
860.767639,478
860.885193,469
861.002808,448
861.120361,465
861.237976,483
861.35553,459
861.473022,464
861.590698,455
861.708191,470
861.825745,449
861.943298,472
862.060852,447
862.178406,434
862.295959,440
862.413513,448
862.531006,455
862.64856,467
862.766113,466
862.883667,463
863.00116,448
863.118713,461
863.236206,481
863.353699,476
863.471252,464
863.588745,471
863.706177,462
863.82373,470
863.941162,461
864.058716,471
864.176208,477
864.29364,475
864.411194,468
864.528687,461
864.646118,493
864.763611,463
864.881042,468
864.998535,458
865.116028,470
865.233459,465
865.350891,449
865.468384,461
865.585754,468
865.703308,444
865.820679,449
865.938171,469
866.055542,448
866.173035,455
866.290466,468
866.407837,478
866.52533,480
866.6427,472
866.760071,450
866.877563,475
866.994934,461
867.112305,461
867.229736,470
867.347107,483
867.464539,464
867.58197,478
867.699341,484
867.81665,461
867.934082,465
868.051453,468
868.168823,466
868.286194,469
868.403564,462
868.520935,476
868.638306,471
868.755676,473
868.872986,473
868.990295,462
869.107727,482
869.225037,489
869.342346,459
869.459717,463
869.577026,467
869.694336,462
869.811707,485
869.929016,474
870.046326,451
870.163635,463
870.280945,469
870.398254,453
870.515564,482
870.632812,468
870.750183,451
870.867432,468
870.984741,464
871.102051,458
871.219299,463
871.336609,456
871.453918,471
871.571106,483
871.688416,460
871.805664,476
871.922852,484
872.040222,464
872.157471,469
872.274719,470
872.391968,468
872.509155,476
872.626465,456
872.743652,477
872.860962,473
872.978149,460
873.095337,472
873.212646,460
873.329834,474
873.44696,480
873.564209,465
873.681396,478
873.798645,476
873.915894,493
874.03302,488
874.150208,461
874.267456,485
874.384583,447
874.501831,455
874.618958,476
874.736145,462
874.853333,485
874.970459,478
875.087646,468
875.204834,473
875.32196,462
875.439148,481
875.556274,452
875.673401,467
875.790527,459
875.907715,453
876.024841,458
876.141968,457
876.259094,466
876.376282,468
876.493347,456
876.610474,470
876.7276,478
876.844727,466
876.961853,458
877.078918,459
877.195984,469
877.313171,469
877.430237,493
877.547302,465
877.664368,469
877.781433,472
877.898499,470
878.015625,455
878.13269,460
878.249695,465
878.366821,462
878.483887,458
878.600952,478
878.717957,465
878.834961,477
878.952087,461
879.069092,473
879.186157,478
879.303162,469
879.420227,481
879.537231,479
879.654236,478
879.77124,477
879.888306,492
880.005249,463
880.122314,475
880.239319,484
880.356323,463
880.473328,454
880.590271,455
880.707275,452
880.824341,468
880.941284,497
881.058228,481
881.175232,482
881.292236,453
881.40918,473
881.526123,482
881.643066,454
881.760071,484
881.877014,491
881.993958,459
882.11084,464
882.227783,477
882.344727,475
882.46167,484
882.578613,466
882.695618,475
882.812439,487
882.929382,468
883.046326,484
883.163208,474
883.280151,466
883.397034,468
883.513916,461
883.630798,474
883.747742,489
883.864563,487
883.981506,470
884.098389,469
884.21521,465
884.332153,464
884.448975,470
884.565796,465
884.682678,478
884.7995,459
884.916443,476
885.033264,481
885.150085,473
885.266968,472
885.383789,474
885.500671,482
885.617493,470
885.734314,473
885.851196,478
885.967896,480
886.084717,478
886.201599,487
886.318359,506
886.435181,456
886.552002,483
886.668762,456
886.785645,482
886.902344,470
887.019165,470
887.135925,476
887.252747,492
887.369446,475
887.486267,464
887.603027,460
887.719788,478
887.836548,462
887.953247,486
888.070068,478
888.186829,462
888.303528,466
888.420288,485
888.536987,456
888.653687,489
888.770447,474
888.887146,479
889.003967,474
889.120667,465
889.237305,460
889.354065,484
889.470703,481
889.587463,472
889.704163,484
889.820862,470
889.937561,480
890.054199,476
890.170837,457
890.287598,478
890.404236,493
890.520874,482
890.637634,473
890.754211,476
890.87085,483
890.987549,477
891.104187,477
891.220886,490
891.337463,461
891.454102,477
891.57074,491
891.687378,482
891.804077,462
891.920654,459
892.037231,495
892.15387,493
892.270447,483
892.387085,468
892.503723,457
892.6203,480
892.736877,476
892.853516,473
892.970032,481
893.08667,480
893.203186,470
893.319763,501
893.43634,480
893.552917,493
893.669556,487
893.786011,483
893.902588,493
894.019165,469
894.135681,479
894.252197,485
894.368835,482
894.485291,478
894.601868,468
894.718384,473
894.8349,492
894.951355,469
895.067932,488
895.184448,479
895.300964,464
895.417419,485
895.533936,476
895.650452,495
895.766907,478
895.883423,485
895.999878,479
896.116333,501
896.232849,473
896.349304,482
896.465759,483
896.582214,478
896.698669,478
896.815125,471
896.931641,484
897.048035,485
897.164551,494
897.280884,488
897.397339,466
897.513794,475
897.630249,476
897.746582,486
897.863098,487
897.979431,495
898.095886,477
898.212341,478
898.328674,469
898.445129,475
898.561462,461
898.677795,489
898.794312,490
898.910645,484
899.026978,475
899.143433,494
899.259766,469
899.37616,475
899.492493,476
899.608765,499
899.725159,496
899.841553,487
899.957947,467
900.07428,494
900.190552,500
900.306946,481
900.423157,480
900.53949,476
900.655884,495
900.772156,487
900.888489,481
901.004822,485
901.121033,484
901.237366,488
901.353699,479
901.46991,473
901.586304,493
901.702515,492
901.818787,474
901.93512,499
902.051331,483
902.167603,496
902.283875,490
902.400085,473
902.516418,481
902.632629,480
902.74884,496
902.865112,516
902.981384,502
903.097595,483
903.213867,486
903.330017,495
903.446289,478
903.5625,501
903.67865,519
903.794922,494
903.911072,481
904.027344,478
904.143494,472
904.259705,503
904.375916,468
904.492065,490
904.608215,494
904.724426,492
904.840576,480
904.956726,483
905.072876,479
905.189087,474
905.305176,472
905.421387,491
905.537537,474
905.653687,484
905.769775,482
905.885925,488
906.002014,480
906.118164,507
906.234314,468
906.350403,499
906.466492,492
906.582642,497
906.69873,482
906.814758,497
906.930908,504
907.046936,459
907.163086,476
907.279175,511
907.395264,493
907.511353,518
907.62738,479
907.743408,490
907.859497,476
907.975525,493
908.091553,479
908.207703,485
908.32373,494
908.439758,497
908.555786,482
908.671814,483
908.787842,491
908.90387,496
909.019775,494
909.135864,492
909.251892,473
909.367859,489
909.483826,457
909.599854,480
909.715881,490
909.831848,486
909.947815,501
910.063782,507
910.179749,487
910.295776,465
910.411743,493
910.527649,494
910.643616,499
910.759583,494
910.875488,492
910.991455,500
911.107361,488
911.223267,500
911.339294,495
911.4552,502
911.571106,484
911.687073,495
911.802979,500
911.918823,485
912.034729,501
912.150635,492
912.266602,481
912.382446,495
912.498352,489
912.614197,474
912.730103,481
912.846008,490
