792.44574,554
792.56488,627
792.68396,667
792.80304,628
792.92218,591
793.041199,571
793.160339,566
793.279419,567
793.398499,560
793.517578,562
793.636658,569
793.755737,566
793.874817,587
793.993896,584
794.112976,544
794.232056,550
794.351074,526
794.470215,560
794.589233,566
794.708313,550
794.827393,550
794.946411,544
795.065552,552
795.18457,542
795.303589,543
795.422668,570
795.541687,536
795.660767,534
795.779846,511
795.898865,550
796.017883,545
796.136963,550
796.255981,568
796.375061,551
796.49408,533
796.613037,524
796.732117,540
796.851135,538
796.970154,532
797.089233,530
797.208191,532
797.327271,551
797.446228,528
797.565186,533
797.684265,547
797.803223,524
797.922241,553
798.04126,527
798.160278,524
798.279297,511
798.398315,540
798.517273,534
798.636292,500
798.75531,522
798.874268,537
798.993286,541
799.112244,531
799.231323,550
799.350281,531
799.469238,540
799.588257,540
799.707153,517
799.826111,556
799.945129,549
800.064087,532
800.183044,536
800.302063,522
800.421021,561
800.539978,529
800.658936,539
800.777893,525
800.896912,532
801.015747,546
801.134705,535
801.253723,511
801.37262,531
801.491638,519
801.610535,549
801.729492,507
801.84845,549
801.967407,533
802.086243,538
802.205261,531
802.324158,521
802.443115,520
802.562073,563
802.680969,541
802.799927,509
802.918762,527
803.037659,541
803.156677,527
803.275574,531
803.39447,531
803.513428,522
803.632263,513
803.751221,518
803.870117,543
803.989014,528
804.107971,524
804.226746,524
804.345642,536
804.4646,544
804.583496,519
804.702393,531
804.821228,526
804.940125,526
805.059021,539
805.177917,539
805.296814,537
805.415649,546
805.534546,529
805.653442,539
805.772278,534
805.891113,554
806.01001,544
806.128906,542
806.247742,550
806.366577,545
806.485413,540
806.604309,534
806.723145,553
806.84198,530
806.960876,521
807.079712,542
807.198486,524
807.317383,530
807.436218,561
807.554993,532
807.673889,536
807.792725,537
807.91156,547
808.030396,527
808.14917,551
808.268005,556
808.386841,536
808.505676,550
808.624451,536
808.743286,532
808.862122,557
808.980896,548
809.099731,517
809.218506,550
809.337341,522
809.456116,559
809.57489,549
809.693726,544
809.8125,544
809.931274,536
810.050049,561
810.168884,548
810.287659,536
810.406372,546
810.525269,554
810.643982,554
810.762756,547
810.881531,516
811.000305,555
811.11908,546
811.237854,524
811.356567,562
811.475403,552
811.594116,548
811.71283,560
811.831604,541
811.950378,550
812.069153,539
812.187927,535
812.30658,545
812.425415,548
812.544128,531
812.662781,540
812.781616,534
812.900269,557
813.019043,547
813.137756,555
813.256531,554
813.375244,547
813.493896,557
813.612671,532
813.731384,525
813.850037,527
813.96875,546
814.087524,519
814.206238,540
814.324951,528
814.443604,532
814.562256,543
814.68103,546
814.799683,553
814.918335,551
815.037109,515
815.155762,539
815.274475,523
815.393188,526
815.511841,530
815.630554,547
815.749146,534
815.867859,524
815.986572,533
816.105164,547
816.223877,531
816.342529,537
816.461182,534
816.579895,535
816.698486,511
816.817139,525
816.935791,534
817.054504,542
817.173096,532
817.291748,522
817.4104,549
817.529053,537
817.647644,527
817.766235,510
817.884949,534
818.00354,527
818.122192,502
818.240845,504
818.359436,496
818.478088,488
818.59668,489
818.715271,516
818.833923,493
818.952515,501
819.071106,500
819.189758,492
819.30835,488
819.426941,484
819.545532,482
819.664124,491
819.782715,487
819.901306,482
820.019897,468
820.138489,488
820.25708,493
820.375671,486
820.494202,472
820.612732,474
820.731384,484
820.849915,487
820.968506,488
821.087097,485
821.205627,477
821.324158,483
821.442749,470
821.561279,481
821.679871,463
821.798401,487
821.916931,457
822.035461,476
822.154053,481
822.272583,472
822.391174,481
822.509583,480
822.628174,466
822.746704,471
822.865234,479
822.983765,479
823.102295,457
823.220825,486
823.339294,472
823.457825,494
823.576355,463
823.694824,476
823.813354,489
823.931885,471
824.050354,463
824.168884,485
824.287354,480
824.405823,463
824.524353,491
824.642822,488
824.761353,481
824.879822,466
824.998291,460
825.116699,472
825.235291,494
825.353699,475
825.472168,475
825.590637,485
825.709106,483
825.827576,453
825.946045,485
826.064453,463
826.182983,454
826.301392,466
826.4198,454
826.53833,471
826.656738,460
826.775208,456
826.893677,464
827.012024,443
827.130493,465
827.248962,494
827.36731,434
827.485779,461
827.604248,476
827.722595,462
827.841064,455
827.959412,469
828.077942,463
828.196289,445
828.314636,447
828.433105,441
828.551514,460
828.669861,457
828.78833,470
828.906677,452
829.025085,447
829.143433,472
829.261841,468
829.38031,449
829.498657,451
829.617004,468
829.735413,457
829.85376,468
829.972107,476
830.090515,462
830.208862,458
830.327209,448
830.445557,469
830.563904,450
830.682312,470
830.800659,462
830.919006,439
831.037354,450
831.155701,470
831.274048,462
831.392395,473
831.51062,468
831.629028,451
831.747314,475
831.865662,459
831.984009,460
832.102356,450
832.220642,477
832.338928,441
832.457275,463
832.575623,462
832.693909,447
832.812134,464
832.930481,464
833.048828,450
833.167114,468
833.2854,455
833.403687,464
833.521973,457
833.640259,463
833.758545,453
833.876831,449
833.995056,460
834.113281,460
834.231628,463
834.349915,464
834.468201,461
834.586426,460
834.704651,466
834.822998,466
834.941162,461
835.059448,459
835.177673,462
835.295959,440
835.414246,445
835.53241,455
835.650635,455
835.768921,463
835.887146,438
836.005371,469
836.123596,451
836.241821,464
836.360046,448
836.478271,450
836.596497,453
836.714722,465
836.832886,473
836.95105,453
837.069336,472
837.1875,483
837.305725,476
837.423889,466
837.542053,467
837.660339,461
837.778503,465
837.896667,473
838.014832,443
838.132996,465
838.25116,471
838.369385,453
838.487488,464
838.605713,481
838.723877,458
838.84198,476
838.960205,475
839.078308,464
839.196472,448
839.314636,461
839.4328,460
839.550964,462
839.669067,463
839.787231,474
839.905396,452
840.023499,478
840.141602,460
840.259766,465
840.377869,463
840.495972,490
840.614136,462
840.732239,454
840.850342,475
840.968445,456
841.086548,455
841.204651,468
841.322754,467
841.440918,462
841.55896,459
841.677002,460
841.795166,480
841.913208,477
842.031311,445
842.149353,458
842.267456,464
842.385498,443
842.503601,449
842.621643,464
842.739746,476
842.857788,464
842.97583,452
843.093933,452
843.211975,466
843.330017,448
843.44812,470
843.566101,450
843.684204,453
843.802246,443
843.920227,463
844.038269,473
844.156311,444
844.274292,453
844.392395,468
844.510376,462
844.628357,439
844.74646,465
844.864441,441
844.982422,458
845.100403,454
845.218384,465
845.336426,447
845.454468,462
845.572449,450
845.69043,464
845.808411,467
845.926453,443
846.044373,465
846.162354,471
846.280396,454
846.398315,474
846.516296,460
846.634216,451
846.752197,434
846.870178,481
846.988098,465
847.106079,473
847.22406,457
847.34198,458
847.4599,454
847.577881,455
847.695801,449
847.813782,474
847.931641,459
848.049561,465
848.167603,445
848.285461,475
848.403381,459
848.521362,468
848.639221,463
848.75708,475
848.875,440
848.99292,436
849.110901,481
849.22876,462
849.34668,454
849.464539,462
849.582458,459
849.700317,465
849.818176,470
849.936096,477
850.053955,483
850.171875,469
850.289673,464
850.407593,468
850.525452,452
850.643311,454
850.761169,465
850.878967,468
850.996887,467
851.114746,469
851.232544,447
851.350403,457
851.468262,468
851.58606,460
851.703979,448
851.821777,464
851.939636,474
852.057434,464
852.175232,458
852.293091,452
852.410889,463
852.528687,469
852.646545,461
852.764343,466
852.88208,460
852.999939,468
853.117676,451
853.235535,443
853.353271,462
853.471069,454
853.588928,449
853.706604,463
853.824402,456
853.9422,456
854.059998,460
854.177734,450
854.295532,466
854.413269,477
854.531006,456
854.648804,451
854.766541,436
854.884277,450
855.002014,476
855.119751,484
855.237549,478
855.355225,473
855.473022,453
855.590698,472
855.708435,456
855.826172,458
855.943848,477
856.061646,480
856.179321,473
856.296997,467
856.414795,467
856.53241,465
856.650085,467
856.767822,482
856.885559,476
857.003174,455
857.120911,471
857.238586,454
857.356201,463
857.473938,460
857.591614,471
857.709351,462
857.826965,438
857.944641,446
858.062317,463
858.179993,467
858.297668,459
858.415283,461
858.532959,473
858.650574,468
858.768188,452
858.885803,475
859.003479,465
859.121094,480
859.23877,451
859.356384,477
859.473999,443
859.591675,485
859.709229,469
859.826843,452
859.944458,470
860.062012,463
860.179626,459
860.297302,460
860.414856,461
860.532471,466
860.650024,462
860.767639,457
860.885193,484
861.002808,489
861.120361,459
861.237976,455
861.35553,455
861.473022,466
861.590698,456
861.708191,474
861.825745,429
861.943298,453
862.060852,463
862.178406,465
862.295959,467
862.413513,476
862.531006,460
862.64856,475
862.766113,449
862.883667,475
863.00116,462
863.118713,452
863.236206,446
863.353699,453
863.471252,463
863.588745,469
863.706177,474
863.82373,470
863.941162,463
864.058716,453
864.176208,454
864.29364,460
864.411194,450
864.528687,462
864.646118,458
864.763611,467
864.881042,458
864.998535,476
865.116028,442
865.233459,455
865.350891,461
865.468384,458
865.585754,458
865.703308,475
865.820679,442
865.938171,455
866.055542,472
866.173035,464
866.290466,484
866.407837,472
866.52533,466
866.6427,475
866.760071,448
866.877563,464
866.994934,450
867.112305,482
867.229736,460
867.347107,455
867.464539,464
867.58197,473
867.699341,448
867.81665,468
867.934082,475
868.051453,483
868.168823,452
868.286194,460
868.403564,472
868.520935,479
868.638306,453
868.755676,457
868.872986,462
868.990295,444
869.107727,466
869.225037,457
869.342346,447
869.459717,453
869.577026,468
869.694336,471
869.811707,478
869.929016,482
870.046326,481
870.163635,452
870.280945,465
870.398254,475
870.515564,469
870.632812,469
870.750183,470
870.867432,478
870.984741,451
871.102051,469
871.219299,456
871.336609,461
871.453918,465
871.571106,476
871.688416,471
871.805664,468
871.922852,475
872.040222,465
872.157471,457
872.274719,467
872.391968,457
872.509155,483
872.626465,455
872.743652,461
872.860962,478
872.978149,470
873.095337,460
873.212646,464
873.329834,450
873.44696,490
873.564209,492
873.681396,453
873.798645,462
873.915894,454
874.03302,483
874.150208,472
874.267456,450
874.384583,466
874.501831,453
874.618958,459
874.736145,465
874.853333,467
874.970459,479
875.087646,462
875.204834,471
875.32196,475
875.439148,450
875.556274,491
875.673401,456
875.790527,456
875.907715,450
876.024841,455
876.141968,456
876.259094,480
876.376282,481
876.493347,485
876.610474,453
876.7276,468
876.844727,450
876.961853,483
877.078918,467
877.195984,458
877.313171,473
877.430237,452
877.547302,453
877.664368,475
877.781433,446
877.898499,465
878.015625,464
878.13269,480
878.249695,459
878.366821,473
878.483887,455
878.600952,457
878.717957,475
878.834961,458
878.952087,481
879.069092,487
879.186157,475
879.303162,472
879.420227,472
879.537231,459
879.654236,472
879.77124,482
879.888306,468
880.005249,464
880.122314,464
880.239319,470
880.356323,466
880.473328,458
880.590271,464
880.707275,462
880.824341,460
880.941284,474
881.058228,463
881.175232,470
881.292236,464
881.40918,470
881.526123,470
881.643066,465
881.760071,469
881.877014,469
881.993958,489
882.11084,466
882.227783,480
882.344727,466
882.46167,473
882.578613,454
882.695618,455
882.812439,481
882.929382,483
883.046326,465
883.163208,463
883.280151,471
883.397034,457
883.513916,456
883.630798,450
883.747742,463
883.864563,472
883.981506,480
884.098389,463
884.21521,462
884.332153,468
884.448975,478
884.565796,476
884.682678,464
884.7995,482
884.916443,481
885.033264,485
885.150085,495
885.266968,472
885.383789,474
885.500671,485
885.617493,461
885.734314,478
885.851196,483
885.967896,496
886.084717,470
886.201599,466
886.318359,473
886.435181,479
886.552002,486
886.668762,476
886.785645,485
886.902344,476
887.019165,497
887.135925,498
887.252747,445
887.369446,476
887.486267,493
887.603027,452
887.719788,481
887.836548,479
887.953247,464
888.070068,468
888.186829,478
888.303528,461
888.420288,486
888.536987,455
888.653687,478
888.770447,480
888.887146,483
889.003967,458
889.120667,459
889.237305,479
889.354065,487
889.470703,478
889.587463,466
889.704163,472
889.820862,483
889.937561,470
890.054199,463
890.170837,472
890.287598,465
890.404236,467
890.520874,476
890.637634,480
890.754211,472
890.87085,477
890.987549,487
891.104187,470
891.220886,477
891.337463,477
891.454102,478
891.57074,473
891.687378,461
891.804077,477
891.920654,461
892.037231,480
892.15387,466
892.270447,470
892.387085,479
892.503723,484
892.6203,474
892.736877,482
892.853516,483
892.970032,480
893.08667,461
893.203186,481
893.319763,473
893.43634,466
893.552917,484
893.669556,469
893.786011,476
893.902588,477
894.019165,490
894.135681,462
894.252197,484
894.368835,491
894.485291,480
894.601868,467
894.718384,471
894.8349,478
894.951355,459
895.067932,483
895.184448,471
895.300964,467
895.417419,469
895.533936,474
895.650452,486
895.766907,505
895.883423,478
895.999878,486
896.116333,483
896.232849,491
896.349304,473
896.465759,490
896.582214,480
896.698669,469
896.815125,478
896.931641,468
897.048035,470
897.164551,477
897.280884,493
897.397339,485
897.513794,491
897.630249,472
897.746582,497
897.863098,477
897.979431,463
898.095886,489
898.212341,475
898.328674,469
898.445129,480
898.561462,482
898.677795,499
898.794312,481
898.910645,475
899.026978,451
899.143433,483
899.259766,470
899.37616,484
899.492493,478
899.608765,488
899.725159,485
899.841553,487
899.957947,466
900.07428,490
900.190552,472
900.306946,480
900.423157,477
900.53949,489
900.655884,489
900.772156,489
900.888489,486
901.004822,482
901.121033,466
901.237366,474
901.353699,474
901.46991,495
901.586304,486
901.702515,492
901.818787,483
901.93512,500
902.051331,485
902.167603,493
902.283875,497
902.400085,475
902.516418,505
902.632629,484
902.74884,483
902.865112,494
902.981384,485
903.097595,507
903.213867,494
903.330017,513
903.446289,510
903.5625,472
903.67865,481
903.794922,498
903.911072,461
904.027344,502
904.143494,486
904.259705,499
904.375916,478
904.492065,492
904.608215,468
904.724426,476
904.840576,481
904.956726,498
905.072876,470
905.189087,464
905.305176,478
905.421387,493
905.537537,503
905.653687,478
905.769775,469
905.885925,497
906.002014,507
906.118164,485
906.234314,485
906.350403,474
906.466492,466
906.582642,491
906.69873,497
906.814758,496
906.930908,490
907.046936,480
907.163086,494
907.279175,494
907.395264,492
907.511353,490
907.62738,472
907.743408,485
907.859497,475
907.975525,485
908.091553,498
908.207703,471
908.32373,476
908.439758,485
908.555786,492
908.671814,505
908.787842,506
908.90387,487
909.019775,476
909.135864,487
909.251892,484
909.367859,488
909.483826,484
909.599854,486
909.715881,488
909.831848,483
909.947815,457
910.063782,482
910.179749,497
910.295776,492
910.411743,462
910.527649,483
910.643616,474
910.759583,485
910.875488,487
910.991455,476
911.107361,497
911.223267,474
911.339294,505
911.4552,462
911.571106,457
911.687073,491
911.802979,491
911.918823,483
912.034729,489
912.150635,485
912.266602,503
912.382446,474
912.498352,493
912.614197,486
912.730103,489
912.846008,488
792.44574,599
792.56488,634
792.68396,644
792.80304,614
792.92218,580
793.041199,563
793.160339,569
793.279419,588
793.398499,582
793.517578,558
793.636658,559
793.755737,579
793.874817,578
793.993896,577
794.112976,552
794.232056,547
794.351074,565
794.470215,539
794.589233,557
794.708313,554
794.827393,563
794.946411,544
795.065552,562
795.18457,559
795.303589,544
795.422668,556
795.541687,546
795.660767,549
795.779846,525
795.898865,529
796.017883,539
796.136963,540
796.255981,532
796.375061,557
796.49408,539
796.613037,530
796.732117,528
796.851135,540
796.970154,531
797.089233,538
797.208191,541
797.327271,552
797.446228,530
797.565186,539
797.684265,546
797.803223,537
797.922241,535
798.04126,542
798.160278,515
798.279297,510
798.398315,542
798.517273,531
798.636292,517
798.75531,561
798.874268,546
798.993286,529
799.112244,531
799.231323,540
799.350281,525
799.469238,550
799.588257,525
799.707153,528
799.826111,524
799.945129,508
800.064087,535
800.183044,533
800.302063,524
800.421021,546
800.539978,536
800.658936,543
800.777893,527
800.896912,531
801.015747,518
801.134705,521
801.253723,514
801.37262,519
801.491638,535
801.610535,531
801.729492,531
801.84845,531
801.967407,541
802.086243,510
802.205261,532
802.324158,540
802.443115,544
802.562073,554
802.680969,523
802.799927,542
802.918762,536
803.037659,533
803.156677,557
803.275574,534
803.39447,527
803.513428,546
803.632263,532
803.751221,523
803.870117,528
803.989014,550
804.107971,521
804.226746,531
804.345642,526
804.4646,518
804.583496,543
804.702393,536
804.821228,535
804.940125,507
805.059021,564
805.177917,556
805.296814,536
805.415649,525
805.534546,544
805.653442,514
805.772278,527
805.891113,523
806.01001,533
806.128906,547
806.247742,544
806.366577,564
806.485413,534
806.604309,539
806.723145,545
806.84198,533
806.960876,548
807.079712,554
807.198486,526
807.317383,545
807.436218,550
807.554993,524
807.673889,531
807.792725,546
807.91156,558
808.030396,536
808.14917,527
808.268005,539
808.386841,547
808.505676,544
808.624451,522
808.743286,525
808.862122,535
808.980896,538
809.099731,557
809.218506,545
809.337341,532
809.456116,534
809.57489,519
809.693726,544
809.8125,551
809.931274,534
810.050049,563
810.168884,563
810.287659,545
810.406372,549
810.525269,529
810.643982,545
810.762756,539
810.881531,550
811.000305,558
811.11908,533
811.237854,529
811.356567,546
811.475403,559
811.594116,571
811.71283,535
811.831604,530
811.950378,558
812.069153,542
812.187927,543
812.30658,531
812.425415,548
812.544128,524
812.662781,541
812.781616,559
812.900269,554
813.019043,561
813.137756,529
813.256531,525
813.375244,545
813.493896,561
813.612671,546
813.731384,539
813.850037,551
813.96875,524
814.087524,520
814.206238,539
814.324951,552
814.443604,531
814.562256,550
814.68103,527
814.799683,533
814.918335,558
815.037109,537
815.155762,542
815.274475,530
815.393188,549
815.511841,536
815.630554,549
815.749146,523
815.867859,536
815.986572,525
816.105164,505
816.223877,508
816.342529,527
816.461182,530
816.579895,533
816.698486,525
816.817139,531
816.935791,534
817.054504,518
817.173096,547
817.291748,539
817.4104,548
817.529053,524
817.647644,534
817.766235,542
817.884949,543
818.00354,515
818.122192,504
818.240845,514
818.359436,523
818.478088,510
818.59668,509
818.715271,494
818.833923,491
818.952515,480
819.071106,475
819.189758,496
819.30835,487
819.426941,504
819.545532,490
819.664124,489
819.782715,496
819.901306,478
820.019897,492
820.138489,463
820.25708,509
820.375671,496
820.494202,485
820.612732,495
820.731384,485
820.849915,466
820.968506,478
821.087097,462
821.205627,469
821.324158,484
821.442749,476
821.561279,487
821.679871,472
821.798401,483
821.916931,447
822.035461,488
822.154053,482
822.272583,449
822.391174,480
822.509583,476
822.628174,477
822.746704,460
822.865234,492
822.983765,503
823.102295,486
823.220825,488
823.339294,469
823.457825,503
823.576355,484
823.694824,460
823.813354,480
823.931885,477
824.050354,464
824.168884,472
824.287354,477
824.405823,473
824.524353,481
824.642822,475
824.761353,465
824.879822,478
824.998291,475
825.116699,488
825.235291,471
825.353699,462
825.472168,458
825.590637,462
825.709106,480
825.827576,464
825.946045,474
826.064453,477
826.182983,494
826.301392,449
826.4198,461
826.53833,465
826.656738,477
826.775208,459
826.893677,458
827.012024,461
827.130493,470
827.248962,467
827.36731,475
827.485779,459
827.604248,461
827.722595,463
827.841064,466
827.959412,481
828.077942,445
828.196289,457
828.314636,460
828.433105,463
828.551514,464
828.669861,454
828.78833,464
828.906677,451
829.025085,478
829.143433,453
829.261841,475
829.38031,462
829.498657,441
829.617004,464
829.735413,454
829.85376,468
829.972107,423
830.090515,477
830.208862,453
830.327209,462
830.445557,486
830.563904,444
830.682312,478
830.800659,447
830.919006,463
831.037354,476
831.155701,445
831.274048,452
831.392395,455
831.51062,452
831.629028,463
831.747314,438
831.865662,459
831.984009,462
832.102356,460
832.220642,467
832.338928,427
832.457275,460
832.575623,452
832.693909,468
832.812134,459
832.930481,472
833.048828,466
833.167114,454
833.2854,463
833.403687,456
833.521973,460
833.640259,443
833.758545,477
833.876831,444
833.995056,452
834.113281,469
834.231628,479
834.349915,478
834.468201,443
834.586426,464
834.704651,446
834.822998,474
834.941162,464
835.059448,444
835.177673,456
835.295959,469
835.414246,460
835.53241,462
835.650635,479
835.768921,468
835.887146,447
836.005371,458
836.123596,455
836.241821,468
836.360046,471
836.478271,485
836.596497,483
836.714722,467
836.832886,458
836.95105,451
837.069336,472
837.1875,464
837.305725,462
837.423889,475
837.542053,466
837.660339,494
837.778503,474
837.896667,464
838.014832,466
838.132996,450
838.25116,479
838.369385,476
838.487488,460
838.605713,465
838.723877,476
838.84198,469
838.960205,469
839.078308,466
839.196472,475
839.314636,470
839.4328,463
839.550964,457
839.669067,476
839.787231,459
839.905396,460
840.023499,466
840.141602,472
840.259766,469
840.377869,481
840.495972,475
840.614136,455
840.732239,447
840.850342,454
840.968445,452
841.086548,454
841.204651,445
841.322754,482
841.440918,471
841.55896,461
841.677002,477
841.795166,462
841.913208,478
842.031311,468
842.149353,483
842.267456,448
842.385498,457
842.503601,460
842.621643,481
842.739746,465
842.857788,454
842.97583,470
843.093933,460
843.211975,473
843.330017,450
843.44812,458
843.566101,465
843.684204,464
843.802246,466
843.920227,452
844.038269,455
844.156311,455
844.274292,463
844.392395,465
844.510376,464
844.628357,452
844.74646,447
844.864441,463
844.982422,448
845.100403,472
845.218384,454
845.336426,455
845.454468,464
845.572449,459
845.69043,463
845.808411,464
845.926453,475
846.044373,471
846.162354,446
846.280396,462
846.398315,474
846.516296,466
846.634216,451
846.752197,457
846.870178,464
846.988098,476
847.106079,438
847.22406,459
847.34198,470
847.4599,454
847.577881,464
847.695801,459
847.813782,459
847.931641,466
848.049561,449
848.167603,461
848.285461,451
848.403381,455
848.521362,445
848.639221,459
848.75708,445
848.875,460
848.99292,475
849.110901,460
849.22876,458
849.34668,454
849.464539,440
849.582458,464
849.700317,467
849.818176,456
849.936096,466
850.053955,450
850.171875,471
850.289673,461
850.407593,460
850.525452,451
850.643311,465
850.761169,448
850.878967,476
850.996887,438
851.114746,478
851.232544,464
851.350403,457
851.468262,446
851.58606,467
851.703979,462
851.821777,461
851.939636,455
852.057434,463
852.175232,446
852.293091,455
852.410889,454
852.528687,454
852.646545,488
852.764343,474
852.88208,449
852.999939,474
853.117676,442
853.235535,472
853.353271,447
853.471069,477
853.588928,479
853.706604,467
853.824402,464
853.9422,469
854.059998,474
854.177734,451
854.295532,457
854.413269,461
854.531006,456
854.648804,461
854.766541,460
854.884277,462
855.002014,461
855.119751,462
855.237549,464
855.355225,449
855.473022,475
855.590698,480
855.708435,450
855.826172,459
855.943848,470
856.061646,465
856.179321,449
856.296997,452
856.414795,448
856.53241,462
856.650085,457
856.767822,459
856.885559,475
857.003174,474
857.120911,463
857.238586,451
857.356201,484
857.473938,460
857.591614,463
857.709351,469
857.826965,487
857.944641,483
858.062317,473
858.179993,466
858.297668,454
858.415283,458
858.532959,450
858.650574,460
858.768188,479
858.885803,466
859.003479,448
859.121094,469
859.23877,465
859.356384,450
859.473999,460
859.591675,457
859.709229,464
859.826843,481
859.944458,465
860.062012,480
860.179626,451
860.297302,451
860.414856,449
860.532471,458
860.650024,453
860.767639,460
860.885193,454
861.002808,454
861.120361,465
861.237976,469
861.35553,461
861.473022,452
861.590698,462
861.708191,463
861.825745,446
861.943298,467
862.060852,451
862.178406,452
862.295959,458
862.413513,472
862.531006,469
862.64856,460
862.766113,460
862.883667,461
863.00116,468
863.118713,448
863.236206,466
863.353699,463
863.471252,448
863.588745,462
863.706177,458
863.82373,472
863.941162,461
864.058716,457
864.176208,470
864.29364,471
864.411194,470
864.528687,460
864.646118,439
864.763611,458
864.881042,466
864.998535,484
865.116028,488
865.233459,447
865.350891,453
865.468384,469
865.585754,454
865.703308,459
865.820679,458
865.938171,471
866.055542,468
866.173035,459
866.290466,478
866.407837,474
866.52533,474
866.6427,472
866.760071,464
866.877563,472
866.994934,480
867.112305,489
867.229736,476
867.347107,471
867.464539,460
867.58197,484
867.699341,477
867.81665,486
867.934082,443
868.051453,465
868.168823,460
868.286194,468
868.403564,466
868.520935,456
868.638306,457
868.755676,476
868.872986,474
868.990295,457
869.107727,464
869.225037,457
869.342346,464
869.459717,458
869.577026,461
869.694336,463
869.811707,465
869.929016,456
870.046326,474
870.163635,473
870.280945,448
870.398254,469
870.515564,464
870.632812,472
870.750183,445
870.867432,476
870.984741,481
871.102051,465
871.219299,488
871.336609,477
871.453918,493
871.571106,463
871.688416,465
871.805664,484
871.922852,450
872.040222,457
872.157471,472
872.274719,484
872.391968,455
872.509155,478
872.626465,465
872.743652,459
872.860962,470
872.978149,482
873.095337,469
873.212646,476
873.329834,455
873.44696,486
873.564209,455
873.681396,452
873.798645,482
873.915894,477
874.03302,472
874.150208,453
874.267456,456
874.384583,477
874.501831,473
874.618958,460
874.736145,476
874.853333,467
874.970459,477
875.087646,477
875.204834,471
875.32196,469
875.439148,467
875.556274,456
875.673401,488
875.790527,477
875.907715,470
876.024841,466
876.141968,475
876.259094,471
876.376282,474
876.493347,477
876.610474,470
876.7276,476
876.844727,454
876.961853,468
877.078918,455
877.195984,479
877.313171,500
877.430237,473
877.547302,471
877.664368,473
877.781433,478
877.898499,475
878.015625,473
878.13269,452
878.249695,461
878.366821,470
878.483887,459
878.600952,460
878.717957,477
878.834961,473
878.952087,480
879.069092,481
879.186157,468
879.303162,467
879.420227,475
879.537231,467
879.654236,482
879.77124,475
879.888306,481
880.005249,466
880.122314,465
880.239319,458
880.356323,463
880.473328,474
880.590271,470
880.707275,491
880.824341,475
880.941284,475
881.058228,475
881.175232,471
881.292236,473
881.40918,463
881.526123,462
881.643066,467
881.760071,475
881.877014,471
881.993958,470
882.11084,455
882.227783,464
882.344727,466
882.46167,468
882.578613,462
882.695618,468
882.812439,472
882.929382,470
883.046326,501
883.163208,467
883.280151,470
883.397034,472
883.513916,476
883.630798,462
883.747742,462
883.864563,473
883.981506,484
884.098389,480
884.21521,490
884.332153,483
884.448975,454
884.565796,473
884.682678,479
884.7995,478
884.916443,475
885.033264,480
885.150085,484
885.266968,482
885.383789,475
885.500671,475
885.617493,484
885.734314,494
885.851196,472
885.967896,494
886.084717,486
886.201599,447
886.318359,472
886.435181,479
886.552002,464
886.668762,480
886.785645,471
886.902344,486
887.019165,490
887.135925,482
887.252747,485
887.369446,479
887.486267,477
887.603027,471
887.719788,482
887.836548,466
887.953247,470
888.070068,476
888.186829,470
888.303528,477
888.420288,479
888.536987,463
888.653687,468
888.770447,468
888.887146,494
889.003967,475
889.120667,477
889.237305,466
889.354065,486
889.470703,487
889.587463,474
889.704163,485
889.820862,493
889.937561,470
890.054199,464
890.170837,484
890.287598,461
890.404236,465
890.520874,465
890.637634,484
890.754211,478
890.87085,484
890.987549,474
891.104187,486
891.220886,475
891.337463,480
891.454102,480
891.57074,487
891.687378,479
891.804077,465
891.920654,473
892.037231,479
892.15387,476
892.270447,481
892.387085,486
892.503723,485
892.6203,481
892.736877,456
892.853516,473
892.970032,486
893.08667,478
893.203186,491
893.319763,479
893.43634,479
893.552917,471
893.669556,492
893.786011,484
893.902588,463
894.019165,482
894.135681,471
894.252197,480
894.368835,473
894.485291,496
894.601868,481
894.718384,483
894.8349,455
894.951355,490
895.067932,503
895.184448,483
895.300964,476
895.417419,473
895.533936,480
895.650452,480
895.766907,467
895.883423,502
895.999878,467
896.116333,475
896.232849,506
896.349304,477
896.465759,456
896.582214,492
896.698669,469
896.815125,477
896.931641,464
897.048035,485
897.164551,479
897.280884,491
897.397339,491
897.513794,499
897.630249,474
897.746582,488
897.863098,465
897.979431,470
898.095886,482
898.212341,484
898.328674,506
898.445129,494
898.561462,476
898.677795,468
898.794312,497
898.910645,498
899.026978,468
899.143433,474
899.259766,462
899.37616,465
899.492493,497
899.608765,476
899.725159,486
899.841553,477
899.957947,473
900.07428,491
900.190552,502
900.306946,491
900.423157,482
900.53949,492
900.655884,488
900.772156,486
900.888489,482
901.004822,482
901.121033,491
901.237366,481
901.353699,492
901.46991,489
901.586304,472
901.702515,486
901.818787,477
901.93512,473
902.051331,475
902.167603,479
902.283875,508
902.400085,493
902.516418,502
902.632629,484
902.74884,489
902.865112,482
902.981384,486
903.097595,484
903.213867,487
903.330017,477
903.446289,489
903.5625,481
903.67865,511
903.794922,486
903.911072,476
904.027344,487
904.143494,496
904.259705,464
904.375916,487
904.492065,474
904.608215,480
904.724426,468
904.840576,498
904.956726,479
905.072876,475
905.189087,470
905.305176,483
905.421387,484
905.537537,493
905.653687,479
905.769775,495
905.885925,485
906.002014,488
906.118164,495
906.234314,473
906.350403,485
906.466492,486
906.582642,491
906.69873,505
906.814758,477
906.930908,492
907.046936,480
907.163086,489
907.279175,497
907.395264,461
907.511353,504
907.62738,508
907.743408,491
907.859497,479
907.975525,503
908.091553,485
908.207703,493
908.32373,487
908.439758,494
908.555786,465
908.671814,478
908.787842,484
908.90387,467
909.019775,498
909.135864,481
909.251892,510
909.367859,509
909.483826,484
909.599854,481
909.715881,484
909.831848,492
909.947815,500
910.063782,488
910.179749,501
910.295776,502
910.411743,500
910.527649,484
910.643616,485
910.759583,476
910.875488,485
910.991455,510
911.107361,503
911.223267,495
911.339294,478
911.4552,489
911.571106,475
911.687073,498
911.802979,491
911.918823,495
912.034729,499
912.150635,480
912.266602,481
912.382446,490
912.498352,484
912.614197,489
912.730103,479
912.846008,483
792.44574,583
792.56488,626
792.68396,676
792.80304,633
792.92218,609
793.041199,565
793.160339,583
793.279419,579
793.398499,573
793.517578,551
793.636658,557
793.755737,557
793.874817,577
793.993896,571
794.112976,601
794.232056,577
794.351074,575
794.470215,552
794.589233,544
794.708313,546
794.827393,548
794.946411,540
795.065552,566
795.18457,546
795.303589,558
795.422668,532
795.541687,551
795.660767,562
795.779846,558
795.898865,534
796.017883,539
796.136963,540
796.255981,579
796.375061,527
796.49408,547
796.613037,551
796.732117,554
796.851135,528
796.970154,538
797.089233,521
797.208191,545
797.327271,523
797.446228,545
797.565186,518
797.684265,536
797.803223,539
797.922241,525
798.04126,522
798.160278,558
798.279297,514
798.398315,540
798.517273,515
798.636292,529
798.75531,540
798.874268,537
798.993286,533
799.112244,532
799.231323,549
799.350281,530
799.469238,523
799.588257,526
799.707153,537
799.826111,547
799.945129,528
800.064087,526
800.183044,550
800.302063,519
800.421021,537
800.539978,539
800.658936,530
800.777893,547
800.896912,527
801.015747,533
801.134705,520
801.253723,508
801.37262,516
801.491638,539
801.610535,525
801.729492,522
801.84845,529
801.967407,569
802.086243,543
802.205261,552
802.324158,500
802.443115,557
802.562073,530
802.680969,520
802.799927,536
802.918762,534
803.037659,522
803.156677,536
803.275574,536
803.39447,556
803.513428,541
803.632263,538
803.751221,539
803.870117,501
803.989014,523
804.107971,528
804.226746,550
804.345642,527
804.4646,536
804.583496,561
804.702393,543
804.821228,544
804.940125,514
805.059021,552
805.177917,535
805.296814,549
805.415649,545
805.534546,522
805.653442,532
805.772278,527
805.891113,541
806.01001,559
806.128906,528
806.247742,530
806.366577,539
806.485413,524
806.604309,528
806.723145,535
806.84198,546
806.960876,516
807.079712,527
807.198486,542
807.317383,556
807.436218,523
807.554993,523
807.673889,550
807.792725,532
807.91156,553
808.030396,544
808.14917,532
808.268005,563
808.386841,545
808.505676,540
808.624451,532
808.743286,544
808.862122,537
808.980896,528
809.099731,538
809.218506,527
809.337341,568
809.456116,533
809.57489,554
809.693726,561
809.8125,574
809.931274,543
810.050049,551
810.168884,531
810.287659,554
810.406372,534
810.525269,550
810.643982,548
810.762756,554
810.881531,558
811.000305,553
811.11908,549
811.237854,569
811.356567,553
811.475403,551
811.594116,550
811.71283,565
811.831604,531
811.950378,576
812.069153,541
812.187927,542
812.30658,550
812.425415,556
812.544128,549
812.662781,532
812.781616,551
812.900269,555
813.019043,526
813.137756,543
813.256531,548
813.375244,544
813.493896,553
813.612671,537
813.731384,557
813.850037,567
813.96875,540
814.087524,544
814.206238,538
814.324951,543
814.443604,530
814.562256,554
814.68103,526
814.799683,527
814.918335,527
815.037109,549
815.155762,549
815.274475,553
815.393188,537
815.511841,535
815.630554,541
815.749146,522
815.867859,523
815.986572,544
816.105164,524
816.223877,540
816.342529,525
816.461182,543
816.579895,534
816.698486,542
816.817139,536
816.935791,529
817.054504,543
817.173096,549
817.291748,532
817.4104,528
817.529053,523
817.647644,533
817.766235,508
817.884949,501
818.00354,543
818.122192,521
818.240845,502
818.359436,512
818.478088,494
818.59668,498
818.715271,521
818.833923,488
818.952515,512
819.071106,496
819.189758,493
819.30835,510
819.426941,511
819.545532,496
819.664124,502
819.782715,490
819.901306,465
820.019897,507
820.138489,494
820.25708,500
820.375671,478
820.494202,480
820.612732,497
820.731384,467
820.849915,485
820.968506,481
821.087097,482
821.205627,484
821.324158,477
821.442749,460
821.561279,476
821.679871,494
821.798401,479
821.916931,477
822.035461,469
822.154053,472
822.272583,474
822.391174,483
822.509583,467
822.628174,462
822.746704,500
822.865234,468
822.983765,476
823.102295,471
823.220825,466
823.339294,492
823.457825,455
823.576355,483
823.694824,455
823.813354,469
823.931885,466
824.050354,476
824.168884,469
824.287354,487
824.405823,472
824.524353,490
824.642822,467
824.761353,474
824.879822,470
824.998291,510
825.116699,459
825.235291,467
825.353699,484
825.472168,489
825.590637,471
825.709106,466
825.827576,488
825.946045,464
826.064453,462
826.182983,450
826.301392,467
826.4198,466
826.53833,469
826.656738,460
826.775208,454
826.893677,476
827.012024,453
827.130493,463
827.248962,482
827.36731,496
827.485779,452
827.604248,476
827.722595,467
827.841064,471
827.959412,483
828.077942,456
828.196289,470
828.314636,466
828.433105,457
828.551514,465
828.669861,462
828.78833,460
828.906677,477
829.025085,451
829.143433,463
829.261841,496
829.38031,453
829.498657,453
829.617004,459
829.735413,459
829.85376,485
829.972107,443
830.090515,459
830.208862,453
830.327209,461
830.445557,460
830.563904,463
830.682312,457
830.800659,437
830.919006,466
831.037354,456
831.155701,461
831.274048,456
831.392395,467
831.51062,465
831.629028,466
831.747314,464
831.865662,471
831.984009,478
832.102356,477
832.220642,444
832.338928,467
832.457275,455
832.575623,464
832.693909,453
832.812134,457
832.930481,450
833.048828,470
833.167114,442
833.2854,464
833.403687,443
833.521973,464
833.640259,451
833.758545,463
833.876831,489
833.995056,463
834.113281,466
834.231628,471
834.349915,471
834.468201,470
834.586426,464
834.704651,463
834.822998,464
834.941162,467
835.059448,467
835.177673,458
835.295959,478
835.414246,465
835.53241,467
835.650635,434
835.768921,461
835.887146,481
836.005371,470
836.123596,465
836.241821,446
836.360046,458
836.478271,457
836.596497,458
836.714722,454
836.832886,463
836.95105,456
837.069336,477
837.1875,451
837.305725,470
837.423889,463
837.542053,477
837.660339,480
837.778503,467
837.896667,474
838.014832,479
838.132996,454
838.25116,461
838.369385,469
838.487488,474
838.605713,473
838.723877,453
838.84198,462
838.960205,474
839.078308,463
839.196472,460
839.314636,469
839.4328,475
839.550964,470
839.669067,470
839.787231,472
839.905396,459
840.023499,467
840.141602,461
840.259766,470
840.377869,463
840.495972,477
840.614136,472
840.732239,451
840.850342,462
840.968445,465
841.086548,463
841.204651,459
841.322754,479
841.440918,476
841.55896,467
841.677002,475
841.795166,457
841.913208,462
842.031311,455
842.149353,457
842.267456,471
842.385498,438
842.503601,462
842.621643,463
842.739746,451
842.857788,458
842.97583,465
843.093933,474
843.211975,474
843.330017,460
843.44812,481
843.566101,455
843.684204,458
843.802246,466
843.920227,446
844.038269,450
844.156311,463
844.274292,468
844.392395,446
844.510376,484
844.628357,458
844.74646,464
844.864441,462
844.982422,454
845.100403,466
845.218384,463
845.336426,465
845.454468,439
845.572449,476
845.69043,465
845.808411,448
845.926453,444
846.044373,463
846.162354,456
846.280396,467
846.398315,464
846.516296,467
846.634216,453
846.752197,458
846.870178,474
846.988098,479
847.106079,464
847.22406,470
847.34198,466
847.4599,463
847.577881,456
847.695801,455
847.813782,451
847.931641,457
848.049561,463
848.167603,471
848.285461,471
848.403381,461
848.521362,461
848.639221,468
848.75708,472
848.875,460
848.99292,478
849.110901,455
849.22876,475
849.34668,464
849.464539,461
849.582458,461
849.700317,484
849.818176,470
849.936096,469
850.053955,462
850.171875,460
850.289673,457
850.407593,457
850.525452,462
850.643311,480
850.761169,448
850.878967,473
850.996887,469
851.114746,467
851.232544,470
851.350403,470
851.468262,470
851.58606,472
851.703979,467
851.821777,452
851.939636,481
852.057434,466
852.175232,466
852.293091,460
852.410889,470
852.528687,472
852.646545,476
852.764343,479
852.88208,464
852.999939,438
853.117676,453
853.235535,471
853.353271,470
853.471069,448
853.588928,447
853.706604,450
853.824402,460
853.9422,464
854.059998,472
854.177734,471
854.295532,477
854.413269,467
854.531006,464
854.648804,455
854.766541,472
854.884277,453
855.002014,469
855.119751,471
855.237549,457
855.355225,451
855.473022,457
855.590698,459
855.708435,468
855.826172,467
855.943848,483
856.061646,472
856.179321,439
856.296997,466
856.414795,476
856.53241,484
856.650085,472
856.767822,457
856.885559,483
857.003174,461
857.120911,459
857.238586,451
857.356201,467
857.473938,456
857.591614,433
857.709351,446
857.826965,468
857.944641,462
858.062317,462
858.179993,459
858.297668,469
858.415283,467
858.532959,473
858.650574,453
858.768188,464
858.885803,463
859.003479,455
859.121094,463
859.23877,460
859.356384,469
859.473999,444
859.591675,461
859.709229,468
859.826843,450
859.944458,466
860.062012,456
860.179626,453
860.297302,432
860.414856,452
860.532471,458
860.650024,472
860.767639,459
860.885193,446
861.002808,480
861.120361,480
861.237976,467
861.35553,482
861.473022,465
861.590698,476
861.708191,463
861.825745,453
861.943298,459
862.060852,477
862.178406,461
862.295959,461
862.413513,466
862.531006,464
862.64856,469
862.766113,483
862.883667,480
863.00116,455
863.118713,469
863.236206,472
863.353699,474
863.471252,470
863.588745,462
863.706177,466
863.82373,461
863.941162,482
864.058716,455
864.176208,490
864.29364,482
864.411194,470
864.528687,461
864.646118,465
864.763611,460
864.881042,476
864.998535,459
865.116028,453
865.233459,473
865.350891,463
865.468384,475
865.585754,464
865.703308,476
865.820679,470
865.938171,465
866.055542,466
866.173035,448
866.290466,462
866.407837,454
866.52533,465
866.6427,452
866.760071,479
866.877563,475
866.994934,465
867.112305,453
867.229736,459
867.347107,451
867.464539,480
867.58197,469
867.699341,467
867.81665,462
867.934082,496
868.051453,442
868.168823,475
868.286194,437
868.403564,447
868.520935,470
868.638306,477
868.755676,474
868.872986,467
868.990295,460
869.107727,476
869.225037,465
869.342346,457
869.459717,462
869.577026,471
869.694336,466
869.811707,459
869.929016,474
870.046326,479
870.163635,463
870.280945,463
870.398254,454
870.515564,475
870.632812,469
870.750183,472
870.867432,475
870.984741,463
871.102051,463
871.219299,480
871.336609,469
871.453918,486
871.571106,465
871.688416,482
871.805664,474
871.922852,471
872.040222,452
872.157471,476
872.274719,474
872.391968,483
872.509155,470
872.626465,459
872.743652,470
872.860962,474
872.978149,487
873.095337,455
873.212646,468
873.329834,473
873.44696,476
873.564209,480
873.681396,459
873.798645,467
873.915894,471
874.03302,464
874.150208,467
874.267456,480
874.384583,482
874.501831,456
874.618958,467
874.736145,478
874.853333,461
874.970459,496
875.087646,484
875.204834,456
875.32196,474
875.439148,475
875.556274,477
875.673401,501
875.790527,466
875.907715,464
876.024841,473
876.141968,480
876.259094,472
876.376282,475
876.493347,465
876.610474,486
876.7276,463
876.844727,477
876.961853,462
877.078918,475
877.195984,455
877.313171,470
877.430237,481
877.547302,491
877.664368,462
877.781433,496
877.898499,457
878.015625,471
878.13269,463
878.249695,465
878.366821,472
878.483887,472
878.600952,476
878.717957,477
878.834961,480
878.952087,466
879.069092,463
879.186157,477
879.303162,455
879.420227,485
879.537231,481
879.654236,467
879.77124,452
879.888306,484
880.005249,476
880.122314,459
880.239319,482
880.356323,477
880.473328,485
880.590271,460
880.707275,449
880.824341,459
880.941284,466
881.058228,479
881.175232,464
881.292236,473
881.40918,473
881.526123,479
881.643066,471
881.760071,488
881.877014,482
881.993958,476
882.11084,461
882.227783,470
882.344727,472
882.46167,501
882.578613,467
882.695618,482
882.812439,462
882.929382,481
883.046326,477
883.163208,461
883.280151,482
883.397034,453
883.513916,479
883.630798,461
883.747742,479
883.864563,473
883.981506,468
884.098389,486
884.21521,474
884.332153,479
884.448975,461
884.565796,476
884.682678,469
884.7995,483
884.916443,481
885.033264,477
885.150085,462
885.266968,477
885.383789,463
885.500671,486
885.617493,471
885.734314,486
885.851196,458
885.967896,481
886.084717,486
886.201599,488
886.318359,483
886.435181,469
886.552002,481
886.668762,466
886.785645,477
886.902344,488
887.019165,474
887.135925,457
887.252747,492
887.369446,476
887.486267,489
887.603027,488
887.719788,479
887.836548,480
887.953247,463
888.070068,485
888.186829,460
888.303528,473
888.420288,465
888.536987,478
888.653687,474
888.770447,480
888.887146,465
889.003967,472
889.120667,479
889.237305,488
889.354065,454
889.470703,472
889.587463,488
889.704163,499
889.820862,476
889.937561,481
890.054199,472
890.170837,478
890.287598,470
890.404236,478
890.520874,469
890.637634,483
890.754211,478
890.87085,474
890.987549,463
891.104187,500
891.220886,476
891.337463,464
891.454102,478
891.57074,464
891.687378,467
891.804077,477
891.920654,492
892.037231,490
892.15387,489
892.270447,484
892.387085,464
892.503723,477
892.6203,479
892.736877,485
892.853516,469
892.970032,493
893.08667,476
893.203186,492
893.319763,481
893.43634,483
893.552917,483
893.669556,487
893.786011,472
893.902588,483
894.019165,483
894.135681,485
894.252197,475
894.368835,482
894.485291,484
894.601868,480
894.718384,475
894.8349,486
894.951355,474
895.067932,477
895.184448,456
895.300964,501
895.417419,473
895.533936,478
895.650452,498
895.766907,485
895.883423,487
895.999878,494
896.116333,484
896.232849,479
896.349304,479
896.465759,493
896.582214,465
896.698669,482
896.815125,477
896.931641,533
897.048035,486
897.164551,475
897.280884,501
897.397339,485
897.513794,495
897.630249,477
897.746582,501
897.863098,486
897.979431,489
898.095886,493
898.212341,484
898.328674,475
898.445129,478
898.561462,492
898.677795,484
898.794312,498
898.910645,470
899.026978,500
899.143433,470
899.259766,498
899.37616,473
899.492493,479
899.608765,490
899.725159,480
899.841553,497
899.957947,490
900.07428,485
900.190552,507
900.306946,489
900.423157,486
900.53949,498
900.655884,489
900.772156,479
900.888489,481
901.004822,493
901.121033,480
901.237366,471
901.353699,491
901.46991,483
901.586304,481
901.702515,463
901.818787,490
901.93512,491
902.051331,502
902.167603,476
902.283875,476
902.400085,483
902.516418,481
902.632629,513
902.74884,472
902.865112,496
902.981384,468
903.097595,495
903.213867,502
903.330017,488
903.446289,506
903.5625,490
903.67865,494
903.794922,478
903.911072,513
904.027344,486
904.143494,492
904.259705,472
904.375916,475
904.492065,489
904.608215,510
904.724426,500
904.840576,478
904.956726,501
905.072876,482
905.189087,481
905.305176,474
905.421387,489
905.537537,495
905.653687,472
905.769775,502
905.885925,491
906.002014,486
906.118164,488
906.234314,484
906.350403,483
906.466492,476
906.582642,503
906.69873,511
906.814758,486
906.930908,504
907.046936,493
907.163086,505
907.279175,497
907.395264,498
907.511353,500
907.62738,494
907.743408,474
907.859497,480
907.975525,479
908.091553,504
908.207703,492
908.32373,496
908.439758,503
908.555786,482
908.671814,502
908.787842,481
908.90387,498
909.019775,502
909.135864,472
909.251892,507
909.367859,497
909.483826,497
909.599854,482
909.715881,491
909.831848,494
909.947815,488
910.063782,477
910.179749,490
910.295776,488
910.411743,520
910.527649,493
910.643616,485
910.759583,481
910.875488,505
910.991455,501
911.107361,476
911.223267,508
911.339294,505
911.4552,480
911.571106,512
911.687073,478
911.802979,491
911.918823,497
912.034729,515
912.150635,485
912.266602,509
912.382446,495
912.498352,495
912.614197,473
912.730103,494
912.846008,473
