792.44574,591
792.56488,625
792.68396,675
792.80304,640
792.92218,618
793.041199,563
793.160339,559
793.279419,584
793.398499,614
793.517578,571
793.636658,577
793.755737,588
793.874817,576
793.993896,576
794.112976,548
794.232056,555
794.351074,576
794.470215,539
794.589233,587
794.708313,553
794.827393,558
794.946411,543
795.065552,556
795.18457,577
795.303589,564
795.422668,532
795.541687,537
795.660767,552
795.779846,567
795.898865,538
796.017883,549
796.136963,545
796.255981,542
796.375061,553
796.49408,555
796.613037,553
796.732117,534
796.851135,523
796.970154,565
797.089233,559
797.208191,564
797.327271,555
797.446228,534
797.565186,546
797.684265,533
797.803223,523
797.922241,543
798.04126,562
798.160278,545
798.279297,540
798.398315,536
798.517273,540
798.636292,526
798.75531,541
798.874268,527
798.993286,540
799.112244,541
799.231323,536
799.350281,533
799.469238,548
799.588257,567
799.707153,540
799.826111,528
799.945129,549
800.064087,529
800.183044,537
800.302063,526
800.421021,539
800.539978,522
800.658936,530
800.777893,543
800.896912,546
801.015747,533
801.134705,512
801.253723,531
801.37262,524
801.491638,528
801.610535,507
801.729492,540
801.84845,529
801.967407,524
802.086243,526
802.205261,530
802.324158,516
802.443115,530
802.562073,519
802.680969,526
802.799927,513
802.918762,548
803.037659,516
803.156677,554
803.275574,541
803.39447,544
803.513428,543
803.632263,533
803.751221,508
803.870117,550
803.989014,540
804.107971,523
804.226746,543
804.345642,522
804.4646,537
804.583496,543
804.702393,520
804.821228,561
804.940125,545
805.059021,542
805.177917,515
805.296814,546
805.415649,552
805.534546,518
805.653442,517
805.772278,538
805.891113,539
806.01001,534
806.128906,534
806.247742,549
806.366577,535
806.485413,543
806.604309,536
806.723145,527
806.84198,557
806.960876,551
807.079712,545
807.198486,547
807.317383,535
807.436218,541
807.554993,559
807.673889,526
807.792725,532
807.91156,535
808.030396,532
808.14917,517
808.268005,537
808.386841,561
808.505676,519
808.624451,554
808.743286,535
808.862122,547
808.980896,540
809.099731,523
809.218506,541
809.337341,545
809.456116,540
809.57489,531
809.693726,547
809.8125,559
809.931274,519
810.050049,536
810.168884,528
810.287659,541
810.406372,535
810.525269,552
810.643982,528
810.762756,545
810.881531,529
811.000305,547
811.11908,537
811.237854,562
811.356567,526
811.475403,547
811.594116,509
811.71283,524
811.831604,545
811.950378,549
812.069153,530
812.187927,542
812.30658,559
812.425415,561
812.544128,520
812.662781,521
812.781616,548
812.900269,563
813.019043,538
813.137756,531
813.256531,537
813.375244,556
813.493896,533
813.612671,553
813.731384,533
813.850037,538
813.96875,523
814.087524,520
814.206238,523
814.324951,521
814.443604,538
814.562256,523
814.68103,525
814.799683,532
814.918335,536
815.037109,532
815.155762,535
815.274475,536
815.393188,523
815.511841,513
815.630554,534
815.749146,525
815.867859,499
815.986572,508
816.105164,506
816.223877,549
816.342529,514
816.461182,519
816.579895,533
816.698486,535
816.817139,510
816.935791,535
817.054504,522
817.173096,536
817.291748,510
817.4104,538
817.529053,522
817.647644,512
817.766235,500
817.884949,506
818.00354,505
818.122192,503
818.240845,519
818.359436,506
818.478088,504
818.59668,496
818.715271,470
818.833923,502
818.952515,485
819.071106,500
819.189758,476
819.30835,476
819.426941,471
819.545532,484
819.664124,476
819.782715,495
819.901306,483
820.019897,485
820.138489,482
820.25708,473
820.375671,479
820.494202,504
820.612732,469
820.731384,478
820.849915,469
820.968506,466
821.087097,476
821.205627,477
821.324158,488
821.442749,466
821.561279,463
821.679871,479
821.798401,486
821.916931,468
822.035461,474
822.154053,455
822.272583,467
822.391174,464
822.509583,458
822.628174,460
822.746704,472
822.865234,478
822.983765,431
823.102295,463
823.220825,461
823.339294,476
823.457825,444
823.576355,461
823.694824,457
823.813354,473
823.931885,464
824.050354,482
824.168884,468
824.287354,481
824.405823,457
824.524353,476
824.642822,455
824.761353,474
824.879822,454
824.998291,468
825.116699,469
825.235291,461
825.353699,477
825.472168,481
825.590637,457
825.709106,479
825.827576,457
825.946045,457
826.064453,448
826.182983,444
826.301392,464
826.4198,459
826.53833,457
826.656738,466
826.775208,470
826.893677,466
827.012024,449
827.130493,428
827.248962,478
827.36731,468
827.485779,452
827.604248,443
827.722595,482
827.841064,450
827.959412,467
828.077942,469
828.196289,437
828.314636,462
828.433105,448
828.551514,439
828.669861,442
828.78833,457
828.906677,434
829.025085,457
829.143433,461
829.261841,450
829.38031,472
829.498657,464
829.617004,456
829.735413,461
829.85376,451
829.972107,452
830.090515,448
830.208862,466
830.327209,448
830.445557,464
830.563904,462
830.682312,446
830.800659,461
830.919006,450
831.037354,441
831.155701,481
831.274048,468
831.392395,480
831.51062,445
831.629028,445
831.747314,468
831.865662,455
831.984009,448
832.102356,456
832.220642,438
832.338928,458
832.457275,455
832.575623,469
832.693909,449
832.812134,456
832.930481,452
833.048828,457
833.167114,449
833.2854,446
833.403687,465
833.521973,463
833.640259,458
833.758545,471
833.876831,452
833.995056,457
834.113281,433
834.231628,461
834.349915,449
834.468201,449
834.586426,449
834.704651,445
834.822998,441
834.941162,469
835.059448,457
835.177673,443
835.295959,450
835.414246,460
835.53241,454
835.650635,463
835.768921,460
835.887146,433
836.005371,437
836.123596,467
836.241821,452
836.360046,470
836.478271,447
836.596497,459
836.714722,431
836.832886,471
836.95105,444
837.069336,478
837.1875,456
837.305725,466
837.423889,454
837.542053,466
837.660339,455
837.778503,452
837.896667,457
838.014832,467
838.132996,458
838.25116,457
838.369385,465
838.487488,473
838.605713,442
838.723877,452
838.84198,454
838.960205,478
839.078308,457
839.196472,454
839.314636,455
839.4328,454
839.550964,452
839.669067,473
839.787231,454
839.905396,463
840.023499,467
840.141602,471
840.259766,460
840.377869,456
840.495972,444
840.614136,460
840.732239,453
840.850342,469
840.968445,459
841.086548,473
841.204651,452
841.322754,460
841.440918,466
841.55896,451
841.677002,458
841.795166,467
841.913208,454
842.031311,476
842.149353,461
842.267456,467
842.385498,466
842.503601,462
842.621643,436
842.739746,469
842.857788,470
842.97583,479
843.093933,458
843.211975,459
843.330017,451
843.44812,451
843.566101,459
843.684204,449
843.802246,453
843.920227,467
844.038269,462
844.156311,459
844.274292,435
844.392395,462
844.510376,451
844.628357,455
844.74646,459
844.864441,451
844.982422,474
845.100403,472
845.218384,463
845.336426,458
845.454468,438
845.572449,478
845.69043,452
845.808411,448
845.926453,446
846.044373,454
846.162354,438
846.280396,467
846.398315,446
846.516296,441
846.634216,454
846.752197,474
846.870178,452
846.988098,482
847.106079,456
847.22406,458
847.34198,475
847.4599,455
847.577881,450
847.695801,442
847.813782,453
847.931641,451
848.049561,436
848.167603,453
848.285461,441
848.403381,466
848.521362,463
848.639221,475
848.75708,467
848.875,471
848.99292,458
849.110901,478
849.22876,453
849.34668,463
849.464539,445
849.582458,472
849.700317,463
849.818176,459
849.936096,473
850.053955,471
850.171875,441
850.289673,463
850.407593,469
850.525452,465
850.643311,474
850.761169,465
850.878967,457
850.996887,449
851.114746,447
851.232544,467
851.350403,449
851.468262,450
851.58606,455
851.703979,456
851.821777,461
851.939636,460
852.057434,460
852.175232,444
852.293091,447
852.410889,465
852.528687,446
852.646545,466
852.764343,455
852.88208,453
852.999939,465
853.117676,459
853.235535,457
853.353271,463
853.471069,453
853.588928,451
853.706604,459
853.824402,468
853.9422,450
854.059998,462
854.177734,456
854.295532,441
854.413269,443
854.531006,444
854.648804,469
854.766541,459
854.884277,450
855.002014,457
855.119751,440
855.237549,467
855.355225,465
855.473022,472
855.590698,455
855.708435,463
855.826172,459
855.943848,456
856.061646,466
856.179321,463
856.296997,464
856.414795,450
856.53241,455
856.650085,454
856.767822,452
856.885559,453
857.003174,456
857.120911,464
857.238586,434
857.356201,502
857.473938,461
857.591614,457
857.709351,458
857.826965,456
857.944641,445
858.062317,456
858.179993,438
858.297668,467
858.415283,457
858.532959,441
858.650574,456
858.768188,445
858.885803,475
859.003479,457
859.121094,461
859.23877,453
859.356384,470
859.473999,447
859.591675,457
859.709229,446
859.826843,461
859.944458,450
860.062012,454
860.179626,446
860.297302,460
860.414856,460
860.532471,446
860.650024,457
860.767639,458
860.885193,449
861.002808,453
861.120361,438
861.237976,443
861.35553,468
861.473022,467
861.590698,468
861.708191,463
861.825745,466
861.943298,456
862.060852,485
862.178406,451
862.295959,431
862.413513,443
862.531006,453
862.64856,443
862.766113,481
862.883667,441
863.00116,448
863.118713,449
863.236206,466
863.353699,456
863.471252,450
863.588745,444
863.706177,452
863.82373,462
863.941162,462
864.058716,474
864.176208,464
864.29364,442
864.411194,458
864.528687,455
864.646118,460
864.763611,447
864.881042,469
864.998535,468
865.116028,471
865.233459,439
865.350891,469
865.468384,456
865.585754,480
865.703308,459
865.820679,473
865.938171,464
866.055542,444
866.173035,471
866.290466,447
866.407837,454
866.52533,468
866.6427,472
866.760071,463
866.877563,460
866.994934,459
867.112305,450
867.229736,456
867.347107,448
867.464539,448
867.58197,465
867.699341,446
867.81665,463
867.934082,458
868.051453,461
868.168823,445
868.286194,442
868.403564,432
868.520935,445
868.638306,456
868.755676,461
868.872986,464
868.990295,452
869.107727,463
869.225037,478
869.342346,455
869.459717,474
869.577026,458
869.694336,454
869.811707,473
869.929016,449
870.046326,477
870.163635,458
870.280945,444
870.398254,453
870.515564,475
870.632812,459
870.750183,458
870.867432,461
870.984741,469
871.102051,452
871.219299,474
871.336609,436
871.453918,474
871.571106,454
871.688416,475
871.805664,449
871.922852,455
872.040222,461
872.157471,473
872.274719,452
872.391968,461
872.509155,450
872.626465,472
872.743652,467
872.860962,443
872.978149,451
873.095337,455
873.212646,484
873.329834,484
873.44696,451
873.564209,479
873.681396,454
873.798645,466
873.915894,451
874.03302,459
874.150208,463
874.267456,469
874.384583,473
874.501831,457
874.618958,460
874.736145,465
874.853333,443
874.970459,439
875.087646,469
875.204834,464
875.32196,439
875.439148,455
875.556274,456
875.673401,451
875.790527,460
875.907715,458
876.024841,456
876.141968,467
876.259094,472
876.376282,459
876.493347,461
876.610474,481
876.7276,452
876.844727,465
876.961853,446
877.078918,476
877.195984,470
877.313171,461
877.430237,450
877.547302,474
877.664368,445
877.781433,481
877.898499,459
878.015625,461
878.13269,468
878.249695,472
878.366821,448
878.483887,465
878.600952,463
878.717957,454
878.834961,467
878.952087,466
879.069092,469
879.186157,461
879.303162,456
879.420227,461
879.537231,474
879.654236,499
879.77124,454
879.888306,476
880.005249,459
880.122314,460
880.239319,462
880.356323,452
880.473328,461
880.590271,466
880.707275,456
880.824341,473
880.941284,471
881.058228,437
881.175232,463
881.292236,442
881.40918,469
881.526123,454
881.643066,449
881.760071,468
881.877014,459
881.993958,436
882.11084,468
882.227783,475
882.344727,466
882.46167,471
882.578613,449
882.695618,487
882.812439,479
882.929382,462
883.046326,452
883.163208,467
883.280151,452
883.397034,458
883.513916,465
883.630798,453
883.747742,465
883.864563,456
883.981506,467
884.098389,454
884.21521,467
884.332153,457
884.448975,444
884.565796,448
884.682678,451
884.7995,489
884.916443,456
885.033264,479
885.150085,457
885.266968,471
885.383789,464
885.500671,466
885.617493,478
885.734314,472
885.851196,470
885.967896,477
886.084717,472
886.201599,485
886.318359,459
886.435181,470
886.552002,484
886.668762,465
886.785645,466
886.902344,480
887.019165,448
887.135925,482
887.252747,456
887.369446,461
887.486267,468
887.603027,462
887.719788,458
887.836548,474
887.953247,471
888.070068,474
888.186829,479
888.303528,462
888.420288,462
888.536987,442
888.653687,476
888.770447,465
888.887146,447
889.003967,455
889.120667,455
889.237305,469
889.354065,470
889.470703,476
889.587463,479
889.704163,465
889.820862,467
889.937561,472
890.054199,467
890.170837,472
890.287598,471
890.404236,467
890.520874,467
890.637634,471
890.754211,448
890.87085,449
890.987549,466
891.104187,473
891.220886,458
891.337463,458
891.454102,461
891.57074,467
891.687378,449
891.804077,471
891.920654,438
892.037231,472
892.15387,457
892.270447,474
892.387085,463
892.503723,477
892.6203,450
892.736877,468
892.853516,455
892.970032,467
893.08667,488
893.203186,471
893.319763,471
893.43634,478
893.552917,459
893.669556,463
893.786011,471
893.902588,484
894.019165,456
894.135681,478
894.252197,474
894.368835,460
894.485291,465
894.601868,466
894.718384,470
894.8349,486
894.951355,474
895.067932,466
895.184448,459
895.300964,455
895.417419,488
895.533936,454
895.650452,470
895.766907,471
895.883423,468
895.999878,488
896.116333,448
896.232849,481
896.349304,458
896.465759,470
896.582214,451
896.698669,464
896.815125,459
896.931641,475
897.048035,475
897.164551,460
897.280884,462
897.397339,472
897.513794,470
897.630249,481
897.746582,466
897.863098,482
897.979431,466
898.095886,468
898.212341,463
898.328674,481
898.445129,469
898.561462,474
898.677795,455
898.794312,468
898.910645,450
899.026978,480
899.143433,464
899.259766,462
899.37616,477
899.492493,471
899.608765,465
899.725159,481
899.841553,471
899.957947,461
900.07428,469
900.190552,491
900.306946,468
900.423157,465
900.53949,485
900.655884,475
900.772156,452
900.888489,476
901.004822,476
901.121033,462
901.237366,458
901.353699,464
901.46991,474
901.586304,462
901.702515,472
901.818787,473
901.93512,473
902.051331,465
902.167603,465
902.283875,480
902.400085,472
902.516418,461
902.632629,479
902.74884,479
902.865112,463
902.981384,485
903.097595,471
903.213867,464
903.330017,476
903.446289,472
903.5625,474
903.67865,486
903.794922,479
903.911072,471
904.027344,482
904.143494,498
904.259705,475
904.375916,480
904.492065,462
904.608215,476
904.724426,439
904.840576,489
904.956726,475
905.072876,466
905.189087,465
905.305176,507
905.421387,442
905.537537,468
905.653687,477
905.769775,463
905.885925,479
906.002014,473
906.118164,453
906.234314,460
906.350403,474
906.466492,481
906.582642,479
906.69873,482
906.814758,480
906.930908,476
907.046936,471
907.163086,470
907.279175,458
907.395264,473
907.511353,463
907.62738,482
907.743408,462
907.859497,475
907.975525,476
908.091553,453
908.207703,466
908.32373,478
908.439758,466
908.555786,465
908.671814,471
908.787842,469
908.90387,462
909.019775,489
909.135864,475
909.251892,457
909.367859,483
909.483826,473
909.599854,460
909.715881,468
909.831848,478
909.947815,458
910.063782,504
910.179749,464
910.295776,445
910.411743,483
910.527649,454
910.643616,480
910.759583,469
910.875488,473
910.991455,450
911.107361,480
911.223267,471
911.339294,479
911.4552,457
911.571106,462
911.687073,483
911.802979,501
911.918823,468
912.034729,486
912.150635,453
912.266602,479
912.382446,461
912.498352,481
912.614197,478
912.730103,466
912.846008,460
792.44574,619
792.56488,629
792.68396,664
792.80304,675
792.92218,607
793.041199,604
793.160339,574
793.279419,595
793.398499,593
793.517578,548
793.636658,572
793.755737,581
793.874817,590
793.993896,574
794.112976,594
794.232056,568
794.351074,565
794.470215,557
794.589233,558
794.708313,570
794.827393,572
794.946411,586
795.065552,555
795.18457,583
795.303589,546
795.422668,581
795.541687,550
795.660767,540
795.779846,562
795.898865,554
796.017883,567
796.136963,567
796.255981,558
796.375061,565
796.49408,550
796.613037,558
796.732117,543
796.851135,555
796.970154,543
797.089233,529
797.208191,528
797.327271,549
797.446228,520
797.565186,558
797.684265,569
797.803223,545
797.922241,538
798.04126,523
798.160278,526
798.279297,523
798.398315,571
798.517273,544
798.636292,535
798.75531,527
798.874268,550
798.993286,533
799.112244,534
799.231323,531
799.350281,534
799.469238,529
799.588257,537
799.707153,544
799.826111,530
799.945129,547
800.064087,543
800.183044,519
800.302063,563
800.421021,536
800.539978,539
800.658936,550
800.777893,554
800.896912,536
801.015747,534
801.134705,542
801.253723,531
801.37262,525
801.491638,522
801.610535,537
801.729492,520
801.84845,537
801.967407,529
802.086243,510
802.205261,526
802.324158,563
802.443115,533
802.562073,532
802.680969,540
802.799927,539
802.918762,543
803.037659,515
803.156677,537
803.275574,541
803.39447,525
803.513428,539
803.632263,553
803.751221,540
803.870117,536
803.989014,529
804.107971,519
804.226746,527
804.345642,542
804.4646,529
804.583496,522
804.702393,534
804.821228,554
804.940125,536
805.059021,541
805.177917,549
805.296814,522
805.415649,547
805.534546,531
805.653442,530
805.772278,520
805.891113,538
806.01001,551
806.128906,543
806.247742,536
806.366577,546
806.485413,535
806.604309,530
806.723145,529
806.84198,522
806.960876,541
807.079712,555
807.198486,560
807.317383,516
807.436218,553
807.554993,535
807.673889,558
807.792725,557
807.91156,553
808.030396,548
808.14917,540
808.268005,547
808.386841,536
808.505676,545
808.624451,517
808.743286,526
808.862122,530
808.980896,537
809.099731,532
809.218506,551
809.337341,530
809.456116,533
809.57489,551
809.693726,542
809.8125,527
809.931274,541
810.050049,562
810.168884,554
810.287659,582
810.406372,519
810.525269,555
810.643982,541
810.762756,550
810.881531,554
811.000305,530
811.11908,548
811.237854,536
811.356567,542
811.475403,526
811.594116,563
811.71283,553
811.831604,564
811.950378,551
812.069153,564
812.187927,537
812.30658,532
812.425415,538
812.544128,537
812.662781,557
812.781616,516
812.900269,554
813.019043,550
813.137756,541
813.256531,540
813.375244,536
813.493896,530
813.612671,546
813.731384,541
813.850037,531
813.96875,530
814.087524,540
814.206238,558
814.324951,523
814.443604,529
814.562256,519
814.68103,530
814.799683,531
814.918335,521
815.037109,542
815.155762,533
815.274475,519
815.393188,554
815.511841,520
815.630554,535
815.749146,538
815.867859,523
815.986572,545
816.105164,537
816.223877,525
816.342529,532
816.461182,542
816.579895,533
816.698486,521
816.817139,527
816.935791,528
817.054504,540
817.173096,542
817.291748,533
817.4104,553
817.529053,529
817.647644,520
817.766235,534
817.884949,507
818.00354,527
818.122192,513
818.240845,499
818.359436,496
818.478088,499
818.59668,512
818.715271,474
818.833923,502
818.952515,490
819.071106,512
819.189758,487
819.30835,473
819.426941,496
819.545532,495
819.664124,497
819.782715,478
819.901306,497
820.019897,473
820.138489,479
820.25708,477
820.375671,490
820.494202,488
820.612732,487
820.731384,482
820.849915,472
820.968506,475
821.087097,474
821.205627,498
821.324158,490
821.442749,475
821.561279,499
821.679871,453
821.798401,484
821.916931,483
822.035461,468
822.154053,481
822.272583,466
822.391174,464
822.509583,458
822.628174,475
822.746704,465
822.865234,475
822.983765,468
823.102295,484
823.220825,480
823.339294,468
823.457825,483
823.576355,477
823.694824,471
823.813354,473
823.931885,479
824.050354,461
824.168884,454
824.287354,458
824.405823,484
824.524353,484
824.642822,464
824.761353,472
824.879822,469
824.998291,473
825.116699,459
825.235291,483
825.353699,463
825.472168,489
825.590637,457
825.709106,463
825.827576,462
825.946045,458
826.064453,463
826.182983,462
826.301392,479
826.4198,471
826.53833,457
826.656738,463
826.775208,460
826.893677,455
827.012024,473
827.130493,463
827.248962,481
827.36731,457
827.485779,456
827.604248,444
827.722595,454
827.841064,448
827.959412,472
828.077942,467
828.196289,453
828.314636,446
828.433105,468
828.551514,461
828.669861,460
828.78833,465
828.906677,449
829.025085,457
829.143433,460
829.261841,463
829.38031,439
829.498657,437
829.617004,452
829.735413,439
829.85376,469
829.972107,450
830.090515,456
830.208862,454
830.327209,456
830.445557,456
830.563904,438
830.682312,473
830.800659,470
830.919006,447
831.037354,476
831.155701,469
831.274048,465
831.392395,438
831.51062,451
831.629028,456
831.747314,456
831.865662,453
831.984009,468
832.102356,478
832.220642,477
832.338928,468
832.457275,457
832.575623,465
832.693909,454
832.812134,462
832.930481,467
833.048828,444
833.167114,460
833.2854,453
833.403687,449
833.521973,448
833.640259,444
833.758545,444
833.876831,472
833.995056,467
834.113281,450
834.231628,440
834.349915,475
834.468201,463
834.586426,473
834.704651,450
834.822998,455
834.941162,450
835.059448,465
835.177673,457
835.295959,470
835.414246,470
835.53241,442
835.650635,470
835.768921,457
835.887146,450
836.005371,463
836.123596,464
836.241821,455
836.360046,468
836.478271,472
836.596497,461
836.714722,461
836.832886,462
836.95105,460
837.069336,456
837.1875,462
837.305725,463
837.423889,446
837.542053,457
837.660339,474
837.778503,462
837.896667,469
838.014832,451
838.132996,458
838.25116,464
838.369385,465
838.487488,474
838.605713,486
838.723877,464
838.84198,479
838.960205,473
839.078308,480
839.196472,466
839.314636,458
839.4328,452
839.550964,462
839.669067,455
839.787231,447
839.905396,468
840.023499,452
840.141602,462
840.259766,483
840.377869,467
840.495972,466
840.614136,473
840.732239,450
840.850342,453
840.968445,430
841.086548,469
841.204651,482
841.322754,451
841.440918,450
841.55896,454
841.677002,454
841.795166,457
841.913208,469
842.031311,462
842.149353,472
842.267456,470
842.385498,470
842.503601,450
842.621643,455
842.739746,462
842.857788,486
842.97583,469
843.093933,468
843.211975,442
843.330017,473
843.44812,453
843.566101,475
843.684204,454
843.802246,466
843.920227,463
844.038269,478
844.156311,465
844.274292,449
844.392395,447
844.510376,481
844.628357,468
844.74646,457
844.864441,461
844.982422,451
845.100403,464
845.218384,451
845.336426,456
845.454468,472
845.572449,485
845.69043,457
845.808411,467
845.926453,466
846.044373,443
846.162354,464
846.280396,457
846.398315,484
846.516296,451
846.634216,443
846.752197,454
846.870178,462
846.988098,463
847.106079,456
847.22406,465
847.34198,444
847.4599,468
847.577881,464
847.695801,456
847.813782,453
847.931641,450
848.049561,447
848.167603,460
848.285461,466
848.403381,473
848.521362,452
848.639221,452
848.75708,452
848.875,476
848.99292,464
849.110901,463
849.22876,464
849.34668,468
849.464539,471
849.582458,458
849.700317,486
849.818176,477
849.936096,459
850.053955,454
850.171875,461
850.289673,466
850.407593,455
850.525452,471
850.643311,479
850.761169,466
850.878967,461
850.996887,466
851.114746,483
851.232544,471
851.350403,469
851.468262,457
851.58606,492
851.703979,460
851.821777,467
851.939636,465
852.057434,463
852.175232,444
852.293091,467
852.410889,475
852.528687,476
852.646545,458
852.764343,456
852.88208,450
852.999939,479
853.117676,454
853.235535,463
853.353271,434
853.471069,470
853.588928,474
853.706604,478
853.824402,471
853.9422,454
854.059998,457
854.177734,460
854.295532,440
854.413269,437
854.531006,446
854.648804,457
854.766541,460
854.884277,470
855.002014,452
855.119751,449
855.237549,460
855.355225,466
855.473022,471
855.590698,467
855.708435,458
855.826172,485
855.943848,449
856.061646,444
856.179321,463
856.296997,450
856.414795,474
856.53241,455
856.650085,474
856.767822,467
856.885559,449
857.003174,460
857.120911,444
857.238586,462
857.356201,453
857.473938,489
857.591614,461
857.709351,465
857.826965,469
857.944641,473
858.062317,454
858.179993,456
858.297668,476
858.415283,476
858.532959,462
858.650574,477
858.768188,452
858.885803,459
859.003479,450
859.121094,470
859.23877,469
859.356384,474
859.473999,477
859.591675,457
859.709229,447
859.826843,454
859.944458,469
860.062012,455
860.179626,464
860.297302,464
860.414856,442
860.532471,462
860.650024,453
860.767639,469
860.885193,450
861.002808,457
861.120361,462
861.237976,467
861.35553,466
861.473022,450
861.590698,475
861.708191,448
861.825745,468
861.943298,454
862.060852,450
862.178406,475
862.295959,465
862.413513,458
862.531006,477
862.64856,459
862.766113,475
862.883667,448
863.00116,455
863.118713,457
863.236206,442
863.353699,462
863.471252,453
863.588745,460
863.706177,474
863.82373,463
863.941162,456
864.058716,469
864.176208,454
864.29364,480
864.411194,454
864.528687,467
864.646118,462
864.763611,462
864.881042,452
864.998535,454
865.116028,459
865.233459,463
865.350891,466
865.468384,468
865.585754,460
865.703308,470
865.820679,453
865.938171,471
866.055542,457
866.173035,468
866.290466,452
866.407837,462
866.52533,454
866.6427,454
866.760071,467
866.877563,442
866.994934,453
867.112305,471
867.229736,458
867.347107,475
867.464539,449
867.58197,466
867.699341,451
867.81665,466
867.934082,452
868.051453,465
868.168823,446
868.286194,474
868.403564,447
868.520935,478
868.638306,463
868.755676,464
868.872986,462
868.990295,462
869.107727,452
869.225037,480
869.342346,483
869.459717,457
869.577026,455
869.694336,487
869.811707,453
869.929016,478
870.046326,478
870.163635,471
870.280945,466
870.398254,473
870.515564,459
870.632812,451
870.750183,465
870.867432,465
870.984741,467
871.102051,460
871.219299,465
871.336609,499
871.453918,454
871.571106,463
871.688416,476
871.805664,451
871.922852,453
872.040222,460
872.157471,469
872.274719,468
872.391968,477
872.509155,470
872.626465,464
872.743652,478
872.860962,477
872.978149,444
873.095337,486
873.212646,458
873.329834,441
873.44696,452
873.564209,464
873.681396,485
873.798645,461
873.915894,470
874.03302,464
874.150208,485
874.267456,467
874.384583,443
874.501831,466
874.618958,480
874.736145,469
874.853333,469
874.970459,464
875.087646,465
875.204834,463
875.32196,456
875.439148,467
875.556274,467
875.673401,466
875.790527,467
875.907715,446
876.024841,455
876.141968,481
876.259094,473
876.376282,465
876.493347,470
876.610474,475
876.7276,485
876.844727,470
876.961853,457
877.078918,463
877.195984,465
877.313171,459
877.430237,447
877.547302,457
877.664368,469
877.781433,442
877.898499,463
878.015625,473
878.13269,456
878.249695,468
878.366821,460
878.483887,474
878.600952,461
878.717957,458
878.834961,471
878.952087,468
879.069092,469
879.186157,461
879.303162,468
879.420227,458
879.537231,484
879.654236,473
879.77124,474
879.888306,447
880.005249,463
880.122314,446
880.239319,471
880.356323,449
880.473328,477
880.590271,450
880.707275,462
880.824341,456
880.941284,452
881.058228,464
881.175232,467
881.292236,475
881.40918,462
881.526123,466
881.643066,456
881.760071,481
881.877014,457
881.993958,475
882.11084,457
882.227783,464
882.344727,478
882.46167,473
882.578613,466
882.695618,459
882.812439,468
882.929382,447
883.046326,480
883.163208,477
883.280151,470
883.397034,453
883.513916,481
883.630798,443
883.747742,478
883.864563,471
883.981506,470
884.098389,454
884.21521,473
884.332153,461
884.448975,472
884.565796,479
884.682678,475
884.7995,467
884.916443,489
885.033264,464
885.150085,464
885.266968,450
885.383789,454
885.500671,469
885.617493,459
885.734314,480
885.851196,463
885.967896,473
886.084717,487
886.201599,475
886.318359,495
886.435181,484
886.552002,484
886.668762,471
886.785645,471
886.902344,453
887.019165,465
887.135925,481
887.252747,485
887.369446,483
887.486267,491
887.603027,473
887.719788,455
887.836548,460
887.953247,458
888.070068,470
888.186829,477
888.303528,468
888.420288,460
888.536987,469
888.653687,472
888.770447,462
888.887146,472
889.003967,471
889.120667,472
889.237305,480
889.354065,478
889.470703,488
889.587463,466
889.704163,439
889.820862,483
889.937561,468
890.054199,468
890.170837,475
890.287598,445
890.404236,456
890.520874,478
890.637634,479
890.754211,484
890.87085,479
890.987549,468
891.104187,472
891.220886,484
891.337463,452
891.454102,466
891.57074,475
891.687378,470
891.804077,461
891.920654,474
892.037231,466
892.15387,463
892.270447,470
892.387085,488
892.503723,467
892.6203,462
892.736877,451
892.853516,467
892.970032,458
893.08667,483
893.203186,457
893.319763,488
893.43634,469
893.552917,465
893.669556,453
893.786011,473
893.902588,479
894.019165,468
894.135681,453
894.252197,493
894.368835,461
894.485291,490
894.601868,463
894.718384,472
894.8349,484
894.951355,485
895.067932,469
895.184448,458
895.300964,467
895.417419,491
895.533936,470
895.650452,489
895.766907,491
895.883423,475
895.999878,473
896.116333,477
896.232849,476
896.349304,455
896.465759,449
896.582214,468
896.698669,470
896.815125,460
896.931641,476
897.048035,472
897.164551,485
897.280884,481
897.397339,487
897.513794,465
897.630249,484
897.746582,493
897.863098,494
897.979431,460
898.095886,475
898.212341,486
898.328674,478
898.445129,484
898.561462,466
898.677795,476
898.794312,476
898.910645,476
899.026978,465
899.143433,473
899.259766,464
899.37616,485
899.492493,471
899.608765,463
899.725159,471
899.841553,468
899.957947,476
900.07428,476
900.190552,479
900.306946,460
900.423157,482
900.53949,474
900.655884,472
900.772156,478
900.888489,471
901.004822,465
901.121033,484
901.237366,464
901.353699,459
901.46991,479
901.586304,469
901.702515,481
901.818787,475
901.93512,477
902.051331,477
902.167603,464
902.283875,468
902.400085,492
902.516418,486
902.632629,490
902.74884,466
902.865112,496
902.981384,484
903.097595,484
903.213867,482
903.330017,499
903.446289,474
903.5625,477
903.67865,469
903.794922,499
903.911072,469
904.027344,476
904.143494,470
904.259705,467
904.375916,491
904.492065,478
904.608215,482
904.724426,481
904.840576,474
904.956726,501
905.072876,469
905.189087,489
905.305176,477
905.421387,488
905.537537,473
905.653687,503
905.769775,466
905.885925,469
906.002014,476
906.118164,462
906.234314,465
906.350403,474
906.466492,484
906.582642,470
906.69873,477
906.814758,481
906.930908,481
907.046936,480
907.163086,463
907.279175,481
907.395264,474
907.511353,478
907.62738,463
907.743408,469
907.859497,479
907.975525,477
908.091553,481
908.207703,481
908.32373,462
908.439758,488
908.555786,489
908.671814,488
908.787842,488
908.90387,486
909.019775,486
909.135864,503
909.251892,474
909.367859,479
909.483826,461
909.599854,471
909.715881,487
909.831848,468
909.947815,488
910.063782,475
910.179749,462
910.295776,491
910.411743,487
910.527649,492
910.643616,483
910.759583,493
910.875488,477
910.991455,467
911.107361,478
911.223267,478
911.339294,490
911.4552,482
911.571106,476
911.687073,474
911.802979,494
911.918823,461
912.034729,485
912.150635,466
912.266602,476
912.382446,470
912.498352,477
912.614197,480
912.730103,493
912.846008,487
792.44574,603
792.56488,618
792.68396,706
792.80304,669
792.92218,609
793.041199,581
793.160339,592
793.279419,599
793.398499,599
793.517578,585
793.636658,572
793.755737,577
793.874817,624
793.993896,590
794.112976,586
794.232056,570
794.351074,554
794.470215,571
794.589233,556
794.708313,582
794.827393,573
794.946411,571
795.065552,563
795.18457,566
795.303589,564
795.422668,542
795.541687,574
795.660767,558
795.779846,568
795.898865,546
796.017883,541
796.136963,563
796.255981,543
796.375061,552
796.49408,530
796.613037,557
796.732117,552
796.851135,551
796.970154,547
797.089233,560
797.208191,543
797.327271,534
797.446228,538
797.565186,533
797.684265,537
797.803223,540
797.922241,531
798.04126,529
798.160278,543
798.279297,546
798.398315,529
798.517273,533
798.636292,518
798.75531,536
798.874268,543
798.993286,556
799.112244,527
799.231323,546
799.350281,543
799.469238,542
799.588257,554
799.707153,561
799.826111,547
799.945129,513
800.064087,508
800.183044,541
800.302063,548
800.421021,556
800.539978,534
800.658936,537
800.777893,557
800.896912,544
801.015747,531
801.134705,547
801.253723,533
801.37262,524
801.491638,542
801.610535,522
801.729492,510
801.84845,529
801.967407,537
802.086243,526
802.205261,533
802.324158,545
802.443115,531
802.562073,526
802.680969,531
802.799927,540
802.918762,534
803.037659,535
803.156677,531
803.275574,571
803.39447,540
803.513428,543
803.632263,545
803.751221,558
803.870117,538
803.989014,517
804.107971,536
804.226746,532
804.345642,537
804.4646,538
804.583496,537
804.702393,540
804.821228,525
804.940125,527
805.059021,544
805.177917,534
805.296814,530
805.415649,526
805.534546,559
805.653442,532
805.772278,533
805.891113,549
806.01001,546
806.128906,549
806.247742,554
806.366577,537
806.485413,565
806.604309,561
806.723145,545
806.84198,552
806.960876,566
807.079712,549
807.198486,520
807.317383,534
807.436218,546
807.554993,541
807.673889,550
807.792725,545
807.91156,526
808.030396,541
808.14917,540
808.268005,546
808.386841,536
808.505676,541
808.624451,539
808.743286,535
808.862122,541
808.980896,541
809.099731,562
809.218506,532
809.337341,530
809.456116,535
809.57489,543
809.693726,565
809.8125,551
809.931274,546
810.050049,541
810.168884,535
810.287659,535
810.406372,560
810.525269,535
810.643982,545
810.762756,549
810.881531,541
811.000305,527
811.11908,578
811.237854,551
811.356567,535
811.475403,543
811.594116,542
811.71283,544
811.831604,551
811.950378,525
812.069153,564
812.187927,543
812.30658,575
812.425415,546
812.544128,550
812.662781,546
812.781616,539
812.900269,558
813.019043,547
813.137756,533
813.256531,560
813.375244,546
813.493896,550
813.612671,544
813.731384,553
813.850037,531
813.96875,540
814.087524,551
814.206238,532
814.324951,549
814.443604,516
814.562256,547
814.68103,551
814.799683,526
814.918335,543
815.037109,525
815.155762,530
815.274475,523
815.393188,535
815.511841,535
815.630554,535
815.749146,541
815.867859,532
815.986572,527
816.105164,520
816.223877,525
816.342529,532
816.461182,519
816.579895,546
816.698486,536
816.817139,537
816.935791,546
817.054504,531
817.173096,554
817.291748,511
817.4104,545
817.529053,544
817.647644,510
817.766235,516
817.884949,511
818.00354,494
818.122192,527
818.240845,524
818.359436,486
818.478088,520
818.59668,497
818.715271,519
818.833923,510
818.952515,509
819.071106,499
819.189758,492
819.30835,482
819.426941,494
819.545532,472
819.664124,504
819.782715,475
819.901306,484
820.019897,498
820.138489,501
820.25708,456
820.375671,501
820.494202,474
820.612732,472
820.731384,487
820.849915,487
820.968506,483
821.087097,465
821.205627,483
821.324158,495
821.442749,484
821.561279,470
821.679871,481
821.798401,497
821.916931,489
822.035461,463
822.154053,469
822.272583,466
822.391174,478
822.509583,471
822.628174,474
822.746704,478
822.865234,484
822.983765,470
823.102295,481
823.220825,481
823.339294,466
823.457825,484
823.576355,459
823.694824,471
823.813354,480
823.931885,494
824.050354,468
824.168884,475
824.287354,480
824.405823,482
824.524353,478
824.642822,478
824.761353,491
824.879822,478
824.998291,481
825.116699,493
825.235291,465
825.353699,488
825.472168,476
825.590637,482
825.709106,463
825.827576,469
825.946045,483
826.064453,485
826.182983,458
826.301392,471
826.4198,450
826.53833,479
826.656738,472
826.775208,469
826.893677,455
827.012024,471
827.130493,470
827.248962,470
827.36731,477
827.485779,452
827.604248,452
827.722595,474
827.841064,458
827.959412,464
828.077942,455
828.196289,471
828.314636,455
828.433105,452
828.551514,477
828.669861,459
828.78833,451
828.906677,462
829.025085,468
829.143433,460
829.261841,446
829.38031,470
829.498657,457
829.617004,455
829.735413,452
829.85376,479
829.972107,449
830.090515,456
830.208862,453
830.327209,465
830.445557,470
830.563904,464
830.682312,456
830.800659,458
830.919006,431
831.037354,464
831.155701,457
831.274048,465
831.392395,458
831.51062,463
831.629028,458
831.747314,449
831.865662,464
831.984009,465
832.102356,469
832.220642,451
832.338928,440
832.457275,460
832.575623,466
832.693909,463
832.812134,467
832.930481,463
833.048828,459
833.167114,448
833.2854,440
833.403687,458
833.521973,473
833.640259,457
833.758545,465
833.876831,454
833.995056,449
834.113281,461
834.231628,443
834.349915,476
834.468201,460
834.586426,466
834.704651,449
834.822998,460
834.941162,450
835.059448,460
835.177673,452
835.295959,470
835.414246,449
835.53241,463
835.650635,476
835.768921,448
835.887146,467
836.005371,463
836.123596,452
836.241821,450
836.360046,452
836.478271,464
836.596497,458
836.714722,456
836.832886,480
836.95105,450
837.069336,467
837.1875,467
837.305725,448
837.423889,459
837.542053,469
837.660339,468
837.778503,469
837.896667,472
838.014832,463
838.132996,465
838.25116,466
838.369385,474
838.487488,462
838.605713,472
838.723877,454
838.84198,470
838.960205,457
839.078308,472
839.196472,465
839.314636,470
839.4328,471
839.550964,464
839.669067,464
839.787231,452
839.905396,472
840.023499,460
840.141602,463
840.259766,461
840.377869,477
840.495972,458
840.614136,469
840.732239,473
840.850342,437
840.968445,474
841.086548,458
841.204651,453
841.322754,466
841.440918,478
841.55896,456
841.677002,460
841.795166,449
841.913208,470
842.031311,462
842.149353,461
842.267456,471
842.385498,475
842.503601,444
842.621643,438
842.739746,466
842.857788,466
842.97583,451
843.093933,464
843.211975,465
843.330017,457
843.44812,459
843.566101,478
843.684204,456
843.802246,460
843.920227,453
844.038269,470
844.156311,464
844.274292,463
844.392395,462
844.510376,445
844.628357,475
844.74646,458
844.864441,465
844.982422,459
845.100403,457
845.218384,460
845.336426,468
845.454468,478
845.572449,466
845.69043,438
845.808411,457
845.926453,457
846.044373,448
846.162354,482
846.280396,469
846.398315,462
846.516296,431
846.634216,463
846.752197,475
846.870178,447
846.988098,449
847.106079,470
847.22406,452
847.34198,460
847.4599,457
847.577881,457
847.695801,450
847.813782,455
847.931641,481
848.049561,471
848.167603,471
848.285461,477
848.403381,470
848.521362,459
848.639221,461
848.75708,461
848.875,466
848.99292,471
849.110901,475
849.22876,456
849.34668,464
849.464539,479
849.582458,479
849.700317,476
849.818176,443
849.936096,450
850.053955,457
850.171875,455
850.289673,458
850.407593,471
850.525452,472
850.643311,465
850.761169,476
850.878967,465
850.996887,458
851.114746,470
851.232544,455
851.350403,485
851.468262,460
851.58606,491
851.703979,481
851.821777,476
851.939636,470
852.057434,465
852.175232,455
852.293091,475
852.410889,449
852.528687,483
852.646545,465
852.764343,483
852.88208,462
852.999939,439
853.117676,457
853.235535,467
853.353271,461
853.471069,457
853.588928,457
853.706604,448
853.824402,463
853.9422,462
854.059998,447
854.177734,450
854.295532,453
854.413269,461
854.531006,454
854.648804,447
854.766541,450
854.884277,460
855.002014,479
855.119751,453
855.237549,455
855.355225,461
855.473022,450
855.590698,459
855.708435,452
855.826172,462
855.943848,457
856.061646,482
856.179321,467
856.296997,453
856.414795,477
856.53241,462
856.650085,465
856.767822,464
856.885559,463
857.003174,444
857.120911,456
857.238586,461
857.356201,452
857.473938,469
857.591614,469
857.709351,455
857.826965,439
857.944641,453
858.062317,470
858.179993,479
858.297668,457
858.415283,463
858.532959,473
858.650574,482
858.768188,461
858.885803,469
859.003479,457
859.121094,478
859.23877,468
859.356384,463
859.473999,462
859.591675,466
859.709229,455
859.826843,471
859.944458,452
860.062012,453
860.179626,467
860.297302,463
860.414856,462
860.532471,445
860.650024,471
860.767639,445
860.885193,450
861.002808,455
861.120361,469
861.237976,470
861.35553,473
861.473022,457
861.590698,449
861.708191,468
861.825745,442
861.943298,451
862.060852,461
862.178406,457
862.295959,455
862.413513,455
862.531006,463
862.64856,472
862.766113,476
862.883667,459
863.00116,479
863.118713,474
863.236206,462
863.353699,467
863.471252,451
863.588745,458
863.706177,450
863.82373,476
863.941162,449
864.058716,468
864.176208,469
864.29364,454
864.411194,472
864.528687,470
864.646118,458
864.763611,470
864.881042,458
864.998535,472
865.116028,464
865.233459,469
865.350891,447
865.468384,466
865.585754,460
865.703308,450
865.820679,457
865.938171,459
866.055542,464
866.173035,445
866.290466,460
866.407837,450
866.52533,472
866.6427,465
866.760071,457
866.877563,471
866.994934,460
867.112305,472
867.229736,468
867.347107,458
867.464539,461
867.58197,470
867.699341,444
867.81665,467
867.934082,467
868.051453,468
868.168823,455
868.286194,461
868.403564,466
868.520935,474
868.638306,471
868.755676,460
868.872986,474
868.990295,485
869.107727,453
869.225037,466
869.342346,461
869.459717,477
869.577026,464
869.694336,479
869.811707,437
869.929016,458
870.046326,456
870.163635,461
870.280945,464
870.398254,461
870.515564,462
870.632812,460
870.750183,479
870.867432,483
870.984741,457
871.102051,473
871.219299,455
871.336609,482
871.453918,461
871.571106,448
871.688416,473
871.805664,452
871.922852,470
872.040222,457
872.157471,474
872.274719,460
872.391968,486
872.509155,459
872.626465,464
872.743652,470
872.860962,462
872.978149,465
873.095337,466
873.212646,452
873.329834,465
873.44696,481
873.564209,484
873.681396,474
873.798645,476
873.915894,461
874.03302,464
874.150208,482
874.267456,487
874.384583,466
874.501831,462
874.618958,465
874.736145,474
874.853333,467
874.970459,472
875.087646,489
875.204834,446
875.32196,472
875.439148,450
875.556274,478
875.673401,480
875.790527,479
875.907715,472
876.024841,471
876.141968,473
876.259094,462
876.376282,460
876.493347,462
876.610474,481
876.7276,484
876.844727,456
876.961853,458
877.078918,458
877.195984,482
877.313171,462
877.430237,471
877.547302,460
877.664368,489
877.781433,452
877.898499,475
878.015625,464
878.13269,466
878.249695,452
878.366821,472
878.483887,454
878.600952,468
878.717957,464
878.834961,455
878.952087,463
879.069092,458
879.186157,470
879.303162,452
879.420227,454
879.537231,451
879.654236,477
879.77124,452
879.888306,468
880.005249,474
880.122314,481
880.239319,463
880.356323,460
880.473328,457
880.590271,469
880.707275,455
880.824341,469
880.941284,457
881.058228,463
881.175232,464
881.292236,442
881.40918,456
881.526123,462
881.643066,451
881.760071,457
881.877014,458
881.993958,456
882.11084,467
882.227783,472
882.344727,472
882.46167,441
882.578613,464
882.695618,480
882.812439,474
882.929382,452
883.046326,469
883.163208,464
883.280151,479
883.397034,446
883.513916,483
883.630798,461
883.747742,479
883.864563,485
883.981506,448
884.098389,465
884.21521,451
884.332153,484
884.448975,456
884.565796,461
884.682678,451
884.7995,472
884.916443,471
885.033264,456
885.150085,466
885.266968,474
885.383789,468
885.500671,481
885.617493,472
885.734314,487
885.851196,477
885.967896,472
886.084717,488
886.201599,472
886.318359,493
886.435181,474
886.552002,470
886.668762,479
886.785645,477
886.902344,467
887.019165,469
887.135925,498
887.252747,473
887.369446,469
887.486267,474
887.603027,454
887.719788,469
887.836548,444
887.953247,468
888.070068,470
888.186829,478
888.303528,468
888.420288,490
888.536987,462
888.653687,476
888.770447,478
888.887146,477
889.003967,476
889.120667,482
889.237305,466
889.354065,473
889.470703,462
889.587463,467
889.704163,474
889.820862,505
889.937561,459
890.054199,487
890.170837,476
890.287598,477
890.404236,485
890.520874,469
890.637634,475
890.754211,470
890.87085,458
890.987549,475
891.104187,475
891.220886,467
891.337463,462
891.454102,460
891.57074,464
891.687378,474
891.804077,467
891.920654,470
892.037231,462
892.15387,476
892.270447,475
892.387085,462
892.503723,474
892.6203,462
892.736877,475
892.853516,463
892.970032,452
893.08667,466
893.203186,472
893.319763,466
893.43634,469
893.552917,482
893.669556,478
893.786011,465
893.902588,461
894.019165,465
894.135681,478
894.252197,469
894.368835,470
894.485291,490
894.601868,462
894.718384,477
894.8349,479
894.951355,475
895.067932,471
895.184448,459
895.300964,481
895.417419,450
895.533936,479
895.650452,467
895.766907,479
895.883423,478
895.999878,455
896.116333,461
896.232849,470
896.349304,496
896.465759,446
896.582214,476
896.698669,473
896.815125,475
896.931641,447
897.048035,465
897.164551,472
897.280884,462
897.397339,467
897.513794,468
897.630249,483
897.746582,480
897.863098,460
897.979431,453
898.095886,470
898.212341,474
898.328674,473
898.445129,466
898.561462,470
898.677795,486
898.794312,468
898.910645,486
899.026978,481
899.143433,473
899.259766,465
899.37616,470
899.492493,477
899.608765,462
899.725159,458
899.841553,491
899.957947,460
900.07428,476
900.190552,459
900.306946,488
900.423157,494
900.53949,480
900.655884,468
900.772156,477
900.888489,475
901.004822,491
901.121033,461
901.237366,490
901.353699,464
901.46991,472
901.586304,469
901.702515,475
901.818787,474
901.93512,480
902.051331,494
902.167603,485
902.283875,469
902.400085,502
902.516418,477
902.632629,494
902.74884,479
902.865112,467
902.981384,501
903.097595,505
903.213867,480
903.330017,478
903.446289,483
903.5625,490
903.67865,461
903.794922,488
903.911072,498
904.027344,515
904.143494,482
904.259705,486
904.375916,478
904.492065,487
904.608215,467
904.724426,483
904.840576,492
904.956726,473
905.072876,478
905.189087,472
905.305176,482
905.421387,472
905.537537,474
905.653687,481
905.769775,480
905.885925,477
906.002014,494
906.118164,479
906.234314,494
906.350403,492
906.466492,464
906.582642,473
906.69873,484
906.814758,481
906.930908,480
907.046936,488
907.163086,489
907.279175,490
907.395264,467
907.511353,464
907.62738,487
907.743408,464
907.859497,460
907.975525,472
908.091553,453
908.207703,470
908.32373,487
908.439758,496
908.555786,459
908.671814,479
908.787842,466
908.90387,474
909.019775,482
909.135864,478
909.251892,470
909.367859,490
909.483826,489
909.599854,475
909.715881,487
909.831848,489
909.947815,477
910.063782,488
910.179749,464
910.295776,467
910.411743,484
910.527649,490
910.643616,493
910.759583,481
910.875488,475
910.991455,472
911.107361,455
911.223267,485
911.339294,481
911.4552,478
911.571106,497
911.687073,480
911.802979,458
911.918823,477
912.034729,490
912.150635,499
912.266602,493
912.382446,494
912.498352,478
912.614197,486
912.730103,462
912.846008,486
