792.44574,604
792.56488,629
792.68396,670
792.80304,634
792.92218,609
793.041199,585
793.160339,596
793.279419,593
793.398499,597
793.517578,608
793.636658,584
793.755737,604
793.874817,616
793.993896,595
794.112976,608
794.232056,582
794.351074,576
794.470215,581
794.589233,576
794.708313,558
794.827393,579
794.946411,583
795.065552,612
795.18457,582
795.303589,600
795.422668,576
795.541687,586
795.660767,597
795.779846,604
795.898865,564
796.017883,599
796.136963,572
796.255981,573
796.375061,569
796.49408,574
796.613037,564
796.732117,577
796.851135,570
796.970154,539
797.089233,571
797.208191,573
797.327271,572
797.446228,551
797.565186,566
797.684265,579
797.803223,550
797.922241,566
798.04126,537
798.160278,543
798.279297,569
798.398315,572
798.517273,574
798.636292,549
798.75531,572
798.874268,560
798.993286,556
799.112244,545
799.231323,571
799.350281,553
799.469238,570
799.588257,554
799.707153,574
799.826111,567
799.945129,581
800.064087,585
800.183044,545
800.302063,582
800.421021,562
800.539978,579
800.658936,573
800.777893,563
800.896912,548
801.015747,578
801.134705,589
801.253723,584
801.37262,568
801.491638,577
801.610535,567
801.729492,571
801.84845,557
801.967407,569
802.086243,586
802.205261,571
802.324158,565
802.443115,562
802.562073,587
802.680969,574
802.799927,546
802.918762,580
803.037659,592
803.156677,587
803.275574,573
803.39447,607
803.513428,570
803.632263,568
803.751221,579
803.870117,577
803.989014,566
804.107971,568
804.226746,560
804.345642,599
804.4646,582
804.583496,594
804.702393,602
804.821228,566
804.940125,585
805.059021,592
805.177917,578
805.296814,589
805.415649,602
805.534546,587
805.653442,582
805.772278,589
805.891113,597
806.01001,595
806.128906,587
806.247742,577
806.366577,591
806.485413,577
806.604309,606
806.723145,596
806.84198,616
806.960876,587
807.079712,606
807.198486,586
807.317383,604
807.436218,588
807.554993,585
807.673889,603
807.792725,600
807.91156,604
808.030396,596
808.14917,582
808.268005,624
808.386841,593
808.505676,597
808.624451,603
808.743286,587
808.862122,593
808.980896,590
809.099731,598
809.218506,608
809.337341,612
809.456116,579
809.57489,613
809.693726,620
809.8125,603
809.931274,598
810.050049,609
810.168884,595
810.287659,606
810.406372,604
810.525269,615
810.643982,600
810.762756,591
810.881531,591
811.000305,595
811.11908,600
811.237854,601
811.356567,636
811.475403,610
811.594116,606
811.71283,641
811.831604,606
811.950378,613
812.069153,625
812.187927,607
812.30658,631
812.425415,599
812.544128,585
812.662781,616
812.781616,601
812.900269,591
813.019043,615
813.137756,618
813.256531,609
813.375244,605
813.493896,614
813.612671,600
813.731384,577
813.850037,606
813.96875,608
814.087524,646
814.206238,591
814.324951,617
814.443604,590
814.562256,624
814.68103,596
814.799683,595
814.918335,608
815.037109,607
815.155762,606
815.274475,583
815.393188,590
815.511841,597
815.630554,580
815.749146,606
815.867859,574
815.986572,587
816.105164,577
816.223877,583
816.342529,581
816.461182,592
816.579895,588
816.698486,579
816.817139,604
816.935791,611
817.054504,591
817.173096,613
817.291748,588
817.4104,597
817.529053,572
817.647644,570
817.766235,560
817.884949,530
818.00354,583
818.122192,561
818.240845,551
818.359436,541
818.478088,540
818.59668,527
818.715271,511
818.833923,522
818.952515,505
819.071106,522
819.189758,524
819.30835,527
819.426941,523
819.545532,507
819.664124,479
819.782715,483
819.901306,493
820.019897,495
820.138489,493
820.25708,501
820.375671,494
820.494202,495
820.612732,518
820.731384,487
820.849915,478
820.968506,495
821.087097,474
821.205627,505
821.324158,474
821.442749,492
821.561279,467
821.679871,478
821.798401,480
821.916931,481
822.035461,473
822.154053,500
822.272583,492
822.391174,480
822.509583,481
822.628174,472
822.746704,463
822.865234,472
822.983765,497
823.102295,481
823.220825,477
823.339294,466
823.457825,492
823.576355,482
823.694824,460
823.813354,458
823.931885,484
824.050354,490
824.168884,487
824.287354,486
824.405823,479
824.524353,486
824.642822,484
824.761353,480
824.879822,486
824.998291,505
825.116699,476
825.235291,471
825.353699,463
825.472168,478
825.590637,468
825.709106,475
825.827576,484
825.946045,478
826.064453,466
826.182983,467
826.301392,483
826.4198,488
826.53833,470
826.656738,466
826.775208,449
826.893677,468
827.012024,453
827.130493,473
827.248962,467
827.36731,473
827.485779,452
827.604248,455
827.722595,450
827.841064,460
827.959412,471
828.077942,469
828.196289,468
828.314636,468
828.433105,463
828.551514,470
828.669861,450
828.78833,463
828.906677,463
829.025085,479
829.143433,460
829.261841,445
829.38031,480
829.498657,472
829.617004,450
829.735413,462
829.85376,462
829.972107,442
830.090515,445
830.208862,465
830.327209,465
830.445557,463
830.563904,463
830.682312,449
830.800659,444
830.919006,452
831.037354,471
831.155701,462
831.274048,467
831.392395,467
831.51062,462
831.629028,463
831.747314,448
831.865662,452
831.984009,454
832.102356,475
832.220642,459
832.338928,476
832.457275,458
832.575623,460
832.693909,456
832.812134,466
832.930481,456
833.048828,450
833.167114,451
833.2854,465
833.403687,454
833.521973,450
833.640259,454
833.758545,455
833.876831,453
833.995056,455
834.113281,464
834.231628,455
834.349915,480
834.468201,463
834.586426,462
834.704651,444
834.822998,438
834.941162,469
835.059448,453
835.177673,472
835.295959,461
835.414246,486
835.53241,463
835.650635,485
835.768921,467
835.887146,485
836.005371,458
836.123596,472
836.241821,456
836.360046,463
836.478271,475
836.596497,471
836.714722,459
836.832886,463
836.95105,470
837.069336,483
837.1875,468
837.305725,472
837.423889,477
837.542053,467
837.660339,482
837.778503,468
837.896667,450
838.014832,467
838.132996,488
838.25116,494
838.369385,475
838.487488,464
838.605713,459
838.723877,461
838.84198,482
838.960205,496
839.078308,469
839.196472,473
839.314636,472
839.4328,501
839.550964,482
839.669067,475
839.787231,469
839.905396,473
840.023499,460
840.141602,468
840.259766,464
840.377869,472
840.495972,478
840.614136,480
840.732239,468
840.850342,453
840.968445,479
841.086548,467
841.204651,457
841.322754,463
841.440918,437
841.55896,488
841.677002,466
841.795166,469
841.913208,480
842.031311,463
842.149353,450
842.267456,462
842.385498,446
842.503601,482
842.621643,447
842.739746,476
842.857788,461
842.97583,452
843.093933,473
843.211975,465
843.330017,442
843.44812,479
843.566101,447
843.684204,463
843.802246,467
843.920227,463
844.038269,464
844.156311,462
844.274292,463
844.392395,452
844.510376,448
844.628357,459
844.74646,471
844.864441,467
844.982422,464
845.100403,454
845.218384,469
845.336426,420
845.454468,460
845.572449,451
845.69043,472
845.808411,454
845.926453,452
846.044373,443
846.162354,444
846.280396,465
846.398315,461
846.516296,442
846.634216,447
846.752197,456
846.870178,453
846.988098,462
847.106079,437
847.22406,456
847.34198,453
847.4599,449
847.577881,451
847.695801,469
847.813782,460
847.931641,454
848.049561,469
848.167603,453
848.285461,469
848.403381,449
848.521362,449
848.639221,462
848.75708,444
848.875,472
848.99292,460
849.110901,471
849.22876,453
849.34668,460
849.464539,451
849.582458,454
849.700317,439
849.818176,485
849.936096,450
850.053955,469
850.171875,457
850.289673,458
850.407593,461
850.525452,456
850.643311,443
850.761169,464
850.878967,454
850.996887,461
851.114746,466
851.232544,475
851.350403,452
851.468262,462
851.58606,444
851.703979,439
851.821777,447
851.939636,444
852.057434,450
852.175232,466
852.293091,450
852.410889,466
852.528687,463
852.646545,460
852.764343,449
852.88208,466
852.999939,465
853.117676,449
853.235535,460
853.353271,441
853.471069,446
853.588928,473
853.706604,463
853.824402,468
853.9422,476
854.059998,453
854.177734,452
854.295532,453
854.413269,460
854.531006,468
854.648804,457
854.766541,472
854.884277,458
855.002014,463
855.119751,466
855.237549,459
855.355225,457
855.473022,467
855.590698,437
855.708435,463
855.826172,465
855.943848,462
856.061646,447
856.179321,452
856.296997,458
856.414795,467
856.53241,471
856.650085,469
856.767822,452
856.885559,454
857.003174,463
857.120911,466
857.238586,460
857.356201,471
857.473938,453
857.591614,457
857.709351,441
857.826965,440
857.944641,446
858.062317,471
858.179993,442
858.297668,475
858.415283,464
858.532959,486
858.650574,452
858.768188,482
858.885803,465
859.003479,465
859.121094,449
859.23877,470
859.356384,458
859.473999,469
859.591675,468
859.709229,455
859.826843,448
859.944458,468
860.062012,476
860.179626,460
860.297302,463
860.414856,468
860.532471,470
860.650024,456
860.767639,456
860.885193,462
861.002808,458
861.120361,467
861.237976,463
861.35553,457
861.473022,440
861.590698,466
861.708191,467
861.825745,462
861.943298,459
862.060852,451
862.178406,498
862.295959,467
862.413513,452
862.531006,470
862.64856,455
862.766113,465
862.883667,439
863.00116,462
863.118713,447
863.236206,457
863.353699,444
863.471252,438
863.588745,463
863.706177,467
863.82373,461
863.941162,471
864.058716,471
864.176208,476
864.29364,442
864.411194,460
864.528687,458
864.646118,470
864.763611,452
864.881042,469
864.998535,441
865.116028,451
865.233459,448
865.350891,466
865.468384,459
865.585754,462
865.703308,457
865.820679,482
865.938171,456
866.055542,454
866.173035,465
866.290466,476
866.407837,440
866.52533,470
866.6427,483
866.760071,467
866.877563,453
866.994934,462
867.112305,471
867.229736,466
867.347107,455
867.464539,473
867.58197,445
867.699341,477
867.81665,473
867.934082,469
868.051453,469
868.168823,480
868.286194,470
868.403564,464
868.520935,449
868.638306,466
868.755676,450
868.872986,440
868.990295,461
869.107727,471
869.225037,481
869.342346,454
869.459717,471
869.577026,485
869.694336,465
869.811707,472
869.929016,438
870.046326,462
870.163635,474
870.280945,462
870.398254,465
870.515564,474
870.632812,444
870.750183,478
870.867432,463
870.984741,463
871.102051,455
871.219299,459
871.336609,475
871.453918,460
871.571106,447
871.688416,455
871.805664,450
871.922852,467
872.040222,466
872.157471,475
872.274719,471
872.391968,462
872.509155,477
872.626465,476
872.743652,459
872.860962,459
872.978149,452
873.095337,474
873.212646,468
873.329834,445
873.44696,455
873.564209,465
873.681396,471
873.798645,446
873.915894,470
874.03302,461
874.150208,471
874.267456,467
874.384583,432
874.501831,465
874.618958,446
874.736145,458
874.853333,466
874.970459,476
875.087646,483
875.204834,472
875.32196,463
875.439148,466
875.556274,472
875.673401,470
875.790527,453
875.907715,458
876.024841,489
876.141968,472
876.259094,462
876.376282,461
876.493347,466
876.610474,475
876.7276,470
876.844727,458
876.961853,469
877.078918,484
877.195984,448
877.313171,459
877.430237,468
877.547302,462
877.664368,463
877.781433,462
877.898499,465
878.015625,465
878.13269,457
878.249695,460
878.366821,456
878.483887,471
878.600952,447
878.717957,475
878.834961,483
878.952087,452
879.069092,449
879.186157,481
879.303162,441
879.420227,473
879.537231,455
879.654236,462
879.77124,463
879.888306,458
880.005249,467
880.122314,485
880.239319,448
880.356323,469
880.473328,471
880.590271,486
880.707275,446
880.824341,478
880.941284,474
881.058228,476
881.175232,478
881.292236,453
881.40918,453
881.526123,470
881.643066,471
881.760071,469
881.877014,481
881.993958,474
882.11084,463
882.227783,465
882.344727,488
882.46167,468
882.578613,478
882.695618,472
882.812439,461
882.929382,460
883.046326,465
883.163208,475
883.280151,457
883.397034,466
883.513916,466
883.630798,454
883.747742,474
883.864563,481
883.981506,465
884.098389,459
884.21521,452
884.332153,473
884.448975,462
884.565796,467
884.682678,461
884.7995,480
884.916443,455
885.033264,473
885.150085,465
885.266968,491
885.383789,479
885.500671,477
885.617493,476
885.734314,465
885.851196,487
885.967896,477
886.084717,471
886.201599,474
886.318359,475
886.435181,469
886.552002,460
886.668762,489
886.785645,475
886.902344,463
887.019165,455
887.135925,480
887.252747,480
887.369446,478
887.486267,479
887.603027,473
887.719788,462
887.836548,469
887.953247,499
888.070068,476
888.186829,479
888.303528,487
888.420288,449
888.536987,496
888.653687,454
888.770447,464
888.887146,473
889.003967,470
889.120667,467
889.237305,458
889.354065,466
889.470703,475
889.587463,481
889.704163,464
889.820862,467
889.937561,470
890.054199,484
890.170837,485
890.287598,460
890.404236,460
890.520874,458
890.637634,481
890.754211,466
890.87085,493
890.987549,474
891.104187,472
891.220886,487
891.337463,478
891.454102,480
891.57074,481
891.687378,459
891.804077,486
891.920654,477
892.037231,477
892.15387,464
892.270447,479
892.387085,466
892.503723,498
892.6203,478
892.736877,483
892.853516,480
892.970032,483
893.08667,476
893.203186,487
893.319763,480
893.43634,474
893.552917,478
893.669556,486
893.786011,477
893.902588,487
894.019165,486
894.135681,484
894.252197,472
894.368835,476
894.485291,468
894.601868,473
894.718384,477
894.8349,478
894.951355,481
895.067932,485
895.184448,462
895.300964,494
895.417419,491
895.533936,473
895.650452,452
895.766907,489
895.883423,476
895.999878,486
896.116333,476
896.232849,484
896.349304,479
896.465759,496
896.582214,476
896.698669,470
896.815125,479
896.931641,482
897.048035,475
897.164551,477
897.280884,482
897.397339,480
897.513794,460
897.630249,468
897.746582,466
897.863098,508
897.979431,465
898.095886,484
898.212341,477
898.328674,501
898.445129,466
898.561462,476
898.677795,477
898.794312,477
898.910645,458
899.026978,469
899.143433,468
899.259766,493
899.37616,480
899.492493,451
899.608765,485
899.725159,476
899.841553,488
899.957947,466
900.07428,473
900.190552,503
900.306946,475
900.423157,496
900.53949,480
900.655884,488
900.772156,477
900.888489,495
901.004822,472
901.121033,474
901.237366,462
901.353699,468
901.46991,476
901.586304,468
901.702515,477
901.818787,480
901.93512,494
902.051331,480
902.167603,484
902.283875,476
902.400085,469
902.516418,498
902.632629,478
902.74884,488
902.865112,491
902.981384,466
903.097595,475
903.213867,480
903.330017,483
903.446289,501
903.5625,486
903.67865,474
903.794922,474
903.911072,481
904.027344,497
904.143494,476
904.259705,476
904.375916,484
904.492065,466
904.608215,500
904.724426,484
904.840576,462
904.956726,485
905.072876,479
905.189087,474
905.305176,481
905.421387,479
905.537537,477
905.653687,461
905.769775,490
905.885925,496
906.002014,473
906.118164,491
906.234314,488
906.350403,484
906.466492,475
906.582642,482
906.69873,501
906.814758,485
906.930908,492
907.046936,472
907.163086,485
907.279175,463
907.395264,489
907.511353,481
907.62738,496
907.743408,489
907.859497,475
907.975525,476
908.091553,480
908.207703,483
908.32373,496
908.439758,491
908.555786,485
908.671814,490
908.787842,468
908.90387,483
909.019775,493
909.135864,488
909.251892,477
909.367859,471
909.483826,486
909.599854,480
909.715881,482
909.831848,499
909.947815,483
910.063782,470
910.179749,476
910.295776,489
910.411743,470
910.527649,509
910.643616,511
910.759583,464
910.875488,480
910.991455,476
911.107361,519
911.223267,495
911.339294,487
911.4552,479
911.571106,501
911.687073,488
911.802979,490
911.918823,482
912.034729,492
912.150635,484
912.266602,479
912.382446,483
912.498352,496
912.614197,476
912.730103,474
912.846008,493
792.44574,578
792.56488,642
792.68396,667
792.80304,659
792.92218,625
793.041199,588
793.160339,592
793.279419,603
793.398499,600
793.517578,581
793.636658,591
793.755737,598
793.874817,620
793.993896,587
794.112976,594
794.232056,571
794.351074,576
794.470215,582
794.589233,592
794.708313,593
794.827393,583
794.946411,602
795.065552,602
795.18457,573
795.303589,581
795.422668,572
795.541687,555
795.660767,585
795.779846,590
795.898865,569
796.017883,546
796.136963,572
796.255981,587
796.375061,545
796.49408,594
796.613037,571
796.732117,579
796.851135,573
796.970154,556
797.089233,553
797.208191,575
797.327271,576
797.446228,554
797.565186,559
797.684265,577
797.803223,548
797.922241,562
798.04126,585
798.160278,568
798.279297,569
798.398315,565
798.517273,566
798.636292,568
798.75531,570
798.874268,573
798.993286,567
799.112244,557
799.231323,565
799.350281,573
799.469238,584
799.588257,565
799.707153,545
799.826111,560
799.945129,576
800.064087,558
800.183044,585
800.302063,550
800.421021,550
800.539978,571
800.658936,596
800.777893,576
800.896912,566
801.015747,545
801.134705,573
801.253723,595
801.37262,548
801.491638,558
801.610535,551
801.729492,588
801.84845,553
801.967407,558
802.086243,583
802.205261,584
802.324158,575
802.443115,576
802.562073,605
802.680969,591
802.799927,577
802.918762,573
803.037659,574
803.156677,561
803.275574,571
803.39447,581
803.513428,567
803.632263,563
803.751221,579
803.870117,594
803.989014,608
804.107971,589
804.226746,584
804.345642,577
804.4646,568
804.583496,588
804.702393,587
804.821228,595
804.940125,569
805.059021,572
805.177917,606
805.296814,577
805.415649,582
805.534546,595
805.653442,578
805.772278,595
805.891113,594
806.01001,607
806.128906,628
806.247742,578
806.366577,624
806.485413,584
806.604309,598
806.723145,595
806.84198,600
806.960876,588
807.079712,611
807.198486,602
807.317383,619
807.436218,585
807.554993,599
807.673889,597
807.792725,607
807.91156,581
808.030396,604
808.14917,613
808.268005,604
808.386841,588
808.505676,592
808.624451,588
808.743286,614
808.862122,605
808.980896,588
809.099731,616
809.218506,591
809.337341,597
809.456116,630
809.57489,604
809.693726,613
809.8125,621
809.931274,600
810.050049,614
810.168884,612
810.287659,607
810.406372,605
810.525269,575
810.643982,625
810.762756,621
810.881531,614
811.000305,589
811.11908,627
811.237854,590
811.356567,631
811.475403,593
811.594116,605
811.71283,591
811.831604,613
811.950378,619
812.069153,598
812.187927,593
812.30658,624
812.425415,604
812.544128,613
812.662781,604
812.781616,608
812.900269,605
813.019043,610
813.137756,604
813.256531,591
813.375244,625
813.493896,627
813.612671,602
813.731384,603
813.850037,620
813.96875,613
814.087524,607
814.206238,594
814.324951,605
814.443604,632
814.562256,596
814.68103,617
814.799683,597
814.918335,606
815.037109,575
815.155762,605
815.274475,622
815.393188,596
815.511841,587
815.630554,587
815.749146,603
815.867859,603
815.986572,593
816.105164,610
816.223877,568
816.342529,591
816.461182,574
816.579895,591
816.698486,602
816.817139,613
816.935791,601
817.054504,625
817.173096,583
817.291748,569
817.4104,578
817.529053,604
817.647644,574
817.766235,560
817.884949,553
818.00354,551
818.122192,548
818.240845,555
818.359436,535
818.478088,550
818.59668,510
818.715271,513
818.833923,527
818.952515,490
819.071106,533
819.189758,520
819.30835,505
819.426941,507
819.545532,517
819.664124,508
819.782715,501
819.901306,488
820.019897,504
820.138489,497
820.25708,488
820.375671,488
820.494202,482
820.612732,490
820.731384,477
820.849915,492
820.968506,502
821.087097,494
821.205627,470
821.324158,495
821.442749,480
821.561279,480
821.679871,466
821.798401,481
821.916931,465
822.035461,489
822.154053,478
822.272583,481
822.391174,491
822.509583,484
822.628174,466
822.746704,472
822.865234,493
822.983765,487
823.102295,476
823.220825,497
823.339294,476
823.457825,490
823.576355,489
823.694824,469
823.813354,486
823.931885,478
824.050354,473
824.168884,478
824.287354,473
824.405823,489
824.524353,492
824.642822,489
824.761353,483
824.879822,492
824.998291,485
825.116699,478
825.235291,497
825.353699,495
825.472168,491
825.590637,494
825.709106,458
825.827576,465
825.946045,474
826.064453,477
826.182983,450
826.301392,461
826.4198,452
826.53833,483
826.656738,466
826.775208,484
826.893677,476
827.012024,460
827.130493,467
827.248962,456
827.36731,479
827.485779,467
827.604248,459
827.722595,472
827.841064,464
827.959412,478
828.077942,462
828.196289,447
828.314636,458
828.433105,465
828.551514,455
828.669861,475
828.78833,443
828.906677,452
829.025085,473
829.143433,466
829.261841,463
829.38031,454
829.498657,458
829.617004,470
829.735413,454
829.85376,475
829.972107,459
830.090515,446
830.208862,452
830.327209,464
830.445557,456
830.563904,428
830.682312,462
830.800659,462
830.919006,454
831.037354,449
831.155701,463
831.274048,462
831.392395,460
831.51062,466
831.629028,430
831.747314,457
831.865662,460
831.984009,472
832.102356,466
832.220642,455
832.338928,473
832.457275,470
832.575623,489
832.693909,478
832.812134,465
832.930481,467
833.048828,452
833.167114,455
833.2854,494
833.403687,460
833.521973,449
833.640259,471
833.758545,458
833.876831,463
833.995056,465
834.113281,452
834.231628,451
834.349915,450
834.468201,472
834.586426,459
834.704651,438
834.822998,454
834.941162,463
835.059448,479
835.177673,452
835.295959,460
835.414246,452
835.53241,469
835.650635,472
835.768921,459
835.887146,462
836.005371,454
836.123596,458
836.241821,459
836.360046,469
836.478271,456
836.596497,468
836.714722,470
836.832886,458
836.95105,476
837.069336,468
837.1875,488
837.305725,479
837.423889,485
837.542053,482
837.660339,477
837.778503,490
837.896667,472
838.014832,471
838.132996,462
838.25116,487
838.369385,481
838.487488,474
838.605713,493
838.723877,478
838.84198,465
838.960205,478
839.078308,472
839.196472,459
839.314636,477
839.4328,494
839.550964,454
839.669067,462
839.787231,487
839.905396,471
840.023499,483
840.141602,461
840.259766,459
840.377869,480
840.495972,467
840.614136,476
840.732239,472
840.850342,448
840.968445,497
841.086548,450
841.204651,478
841.322754,457
841.440918,444
841.55896,455
841.677002,454
841.795166,456
841.913208,457
842.031311,453
842.149353,463
842.267456,452
842.385498,450
842.503601,456
842.621643,451
842.739746,462
842.857788,446
842.97583,459
843.093933,460
843.211975,439
843.330017,477
843.44812,451
843.566101,467
843.684204,460
843.802246,437
843.920227,456
844.038269,462
844.156311,467
844.274292,467
844.392395,458
844.510376,462
844.628357,459
844.74646,460
844.864441,471
844.982422,491
845.100403,457
845.218384,456
845.336426,431
845.454468,469
845.572449,443
845.69043,445
845.808411,474
845.926453,446
846.044373,456
846.162354,459
846.280396,462
846.398315,445
846.516296,434
846.634216,450
846.752197,451
846.870178,451
846.988098,445
847.106079,450
847.22406,450
847.34198,459
847.4599,459
847.577881,437
847.695801,467
847.813782,456
847.931641,459
848.049561,431
848.167603,475
848.285461,457
848.403381,440
848.521362,462
848.639221,465
848.75708,464
848.875,457
848.99292,460
849.110901,463
849.22876,461
849.34668,437
849.464539,457
849.582458,449
849.700317,443
849.818176,463
849.936096,440
850.053955,457
850.171875,462
850.289673,459
850.407593,464
850.525452,471
850.643311,458
850.761169,451
850.878967,478
850.996887,456
851.114746,451
851.232544,447
851.350403,441
851.468262,463
851.58606,455
851.703979,461
851.821777,470
851.939636,436
852.057434,448
852.175232,451
852.293091,464
852.410889,453
852.528687,446
852.646545,453
852.764343,457
852.88208,465
852.999939,458
853.117676,454
853.235535,450
853.353271,456
853.471069,454
853.588928,447
853.706604,445
853.824402,476
853.9422,447
854.059998,454
854.177734,464
854.295532,453
854.413269,457
854.531006,468
854.648804,448
854.766541,487
854.884277,458
855.002014,462
855.119751,445
855.237549,465
855.355225,454
855.473022,435
855.590698,451
855.708435,459
855.826172,477
855.943848,449
856.061646,460
856.179321,455
856.296997,445
856.414795,458
856.53241,484
856.650085,450
856.767822,466
856.885559,466
857.003174,469
857.120911,463
857.238586,451
857.356201,454
857.473938,470
857.591614,461
857.709351,468
857.826965,466
857.944641,463
858.062317,461
858.179993,469
858.297668,458
858.415283,450
858.532959,452
858.650574,468
858.768188,454
858.885803,473
859.003479,473
859.121094,448
859.23877,490
859.356384,465
859.473999,445
859.591675,463
859.709229,471
859.826843,463
859.944458,471
860.062012,494
860.179626,445
860.297302,463
860.414856,448
860.532471,472
860.650024,462
860.767639,460
860.885193,459
861.002808,453
861.120361,451
861.237976,445
861.35553,457
861.473022,448
861.590698,448
861.708191,483
861.825745,449
861.943298,446
862.060852,452
862.178406,471
862.295959,458
862.413513,436
862.531006,469
862.64856,462
862.766113,464
862.883667,466
863.00116,462
863.118713,464
863.236206,466
863.353699,466
863.471252,440
863.588745,445
863.706177,481
863.82373,450
863.941162,450
864.058716,471
864.176208,462
864.29364,471
864.411194,441
864.528687,466
864.646118,473
864.763611,454
864.881042,471
864.998535,467
865.116028,463
865.233459,453
865.350891,481
865.468384,448
865.585754,448
865.703308,475
865.820679,472
865.938171,458
866.055542,458
866.173035,460
866.290466,452
866.407837,464
866.52533,444
866.6427,432
866.760071,474
866.877563,449
866.994934,455
867.112305,460
867.229736,448
867.347107,475
867.464539,462
867.58197,477
867.699341,460
867.81665,479
867.934082,443
868.051453,468
868.168823,473
868.286194,454
868.403564,453
868.520935,447
868.638306,443
868.755676,477
868.872986,455
868.990295,458
869.107727,452
869.225037,444
869.342346,466
869.459717,461
869.577026,455
869.694336,462
869.811707,462
869.929016,469
870.046326,453
870.163635,485
870.280945,448
870.398254,460
870.515564,462
870.632812,465
870.750183,481
870.867432,474
870.984741,459
871.102051,467
871.219299,442
871.336609,485
871.453918,458
871.571106,469
871.688416,450
871.805664,483
871.922852,480
872.040222,452
872.157471,478
872.274719,470
872.391968,465
872.509155,485
872.626465,474
872.743652,472
872.860962,458
872.978149,447
873.095337,458
873.212646,463
873.329834,464
873.44696,469
873.564209,480
873.681396,484
873.798645,456
873.915894,469
874.03302,469
874.150208,475
874.267456,478
874.384583,460
874.501831,473
874.618958,481
874.736145,465
874.853333,459
874.970459,463
875.087646,460
875.204834,454
875.32196,458
875.439148,440
875.556274,475
875.673401,454
875.790527,457
875.907715,458
876.024841,467
876.141968,459
876.259094,482
876.376282,469
876.493347,460
876.610474,461
876.7276,474
876.844727,473
876.961853,481
877.078918,476
877.195984,474
877.313171,455
877.430237,491
877.547302,463
877.664368,462
877.781433,475
877.898499,459
878.015625,459
878.13269,472
878.249695,473
878.366821,483
878.483887,473
878.600952,459
878.717957,483
878.834961,458
878.952087,471
879.069092,466
879.186157,469
879.303162,480
879.420227,462
879.537231,458
879.654236,455
879.77124,458
879.888306,460
880.005249,471
880.122314,470
880.239319,463
880.356323,457
880.473328,485
880.590271,463
880.707275,474
880.824341,474
880.941284,476
881.058228,453
881.175232,465
881.292236,470
881.40918,468
881.526123,465
881.643066,468
881.760071,476
881.877014,475
881.993958,452
882.11084,459
882.227783,480
882.344727,463
882.46167,467
882.578613,468
882.695618,483
882.812439,478
882.929382,451
883.046326,450
883.163208,463
883.280151,488
883.397034,457
883.513916,452
883.630798,478
883.747742,467
883.864563,461
883.981506,472
884.098389,463
884.21521,469
884.332153,450
884.448975,459
884.565796,477
884.682678,476
884.7995,472
884.916443,468
885.033264,474
885.150085,476
885.266968,485
885.383789,499
885.500671,468
885.617493,480
885.734314,490
885.851196,478
885.967896,461
886.084717,462
886.201599,481
886.318359,486
886.435181,478
886.552002,480
886.668762,457
886.785645,481
886.902344,489
887.019165,460
887.135925,476
887.252747,463
887.369446,458
887.486267,467
887.603027,470
887.719788,457
887.836548,483
887.953247,461
888.070068,472
888.186829,473
888.303528,468
888.420288,473
888.536987,471
888.653687,461
888.770447,468
888.887146,481
889.003967,464
889.120667,483
889.237305,457
889.354065,470
889.470703,481
889.587463,480
889.704163,472
889.820862,466
889.937561,491
890.054199,461
890.170837,470
890.287598,476
890.404236,456
890.520874,472
890.637634,468
890.754211,460
890.87085,479
890.987549,478
891.104187,476
891.220886,493
891.337463,467
891.454102,492
891.57074,475
891.687378,482
891.804077,490
891.920654,468
892.037231,482
892.15387,477
892.270447,468
892.387085,460
892.503723,473
892.6203,471
892.736877,468
892.853516,481
892.970032,472
893.08667,482
893.203186,509
893.319763,467
893.43634,462
893.552917,477
893.669556,492
893.786011,477
893.902588,487
894.019165,481
894.135681,464
894.252197,485
894.368835,486
894.485291,471
894.601868,481
894.718384,470
894.8349,468
894.951355,492
895.067932,469
895.184448,485
895.300964,466
895.417419,465
895.533936,474
895.650452,493
895.766907,483
895.883423,474
895.999878,496
896.116333,483
896.232849,475
896.349304,488
896.465759,483
896.582214,464
896.698669,475
896.815125,497
896.931641,447
897.048035,484
897.164551,476
897.280884,490
897.397339,482
897.513794,495
897.630249,489
897.746582,482
897.863098,492
897.979431,462
898.095886,477
898.212341,457
898.328674,472
898.445129,460
898.561462,471
898.677795,459
898.794312,479
898.910645,483
899.026978,473
899.143433,496
899.259766,471
899.37616,474
899.492493,480
899.608765,488
899.725159,467
899.841553,481
899.957947,472
900.07428,487
900.190552,463
900.306946,461
900.423157,476
900.53949,485
900.655884,458
900.772156,493
900.888489,466
901.004822,480
901.121033,479
901.237366,477
901.353699,489
901.46991,485
901.586304,478
901.702515,486
901.818787,472
901.93512,488
902.051331,468
902.167603,489
902.283875,491
902.400085,488
902.516418,467
902.632629,487
902.74884,465
902.865112,485
902.981384,481
903.097595,490
903.213867,462
903.330017,492
903.446289,490
903.5625,476
903.67865,500
903.794922,476
903.911072,473
904.027344,478
904.143494,471
904.259705,482
904.375916,479
904.492065,479
904.608215,466
904.724426,481
904.840576,494
904.956726,493
905.072876,479
905.189087,485
905.305176,479
905.421387,483
905.537537,485
905.653687,478
905.769775,483
905.885925,511
906.002014,486
906.118164,470
906.234314,481
906.350403,459
906.466492,471
906.582642,484
906.69873,475
906.814758,482
906.930908,491
907.046936,484
907.163086,491
907.279175,519
907.395264,492
907.511353,474
907.62738,461
907.743408,484
907.859497,509
907.975525,498
908.091553,474
908.207703,476
908.32373,472
908.439758,467
908.555786,485
908.671814,497
908.787842,479
908.90387,507
909.019775,468
909.135864,466
909.251892,472
909.367859,487
909.483826,488
909.599854,478
909.715881,478
909.831848,501
909.947815,476
910.063782,490
910.179749,478
910.295776,480
910.411743,471
910.527649,496
910.643616,487
910.759583,469
910.875488,472
910.991455,472
911.107361,477
911.223267,472
911.339294,484
911.4552,482
911.571106,474
911.687073,483
911.802979,472
911.918823,486
912.034729,483
912.150635,482
912.266602,488
912.382446,496
912.498352,477
912.614197,485
912.730103,459
912.846008,504
792.44574,619
792.56488,642
792.68396,689
792.80304,672
792.92218,613
793.041199,586
793.160339,586
793.279419,602
793.398499,596
793.517578,594
793.636658,590
793.755737,586
793.874817,621
793.993896,587
794.112976,575
794.232056,562
794.351074,585
794.470215,567
794.589233,586
794.708313,573
794.827393,586
794.946411,562
795.065552,604
795.18457,587
795.303589,575
795.422668,578
795.541687,567
795.660767,572
795.779846,604
795.898865,568
796.017883,554
796.136963,572
796.255981,594
796.375061,561
796.49408,579
796.613037,575
796.732117,567
796.851135,575
796.970154,569
797.089233,572
797.208191,578
797.327271,577
797.446228,567
797.565186,587
797.684265,574
797.803223,583
797.922241,571
798.04126,580
798.160278,573
798.279297,572
798.398315,569
798.517273,585
798.636292,567
798.75531,562
798.874268,558
798.993286,578
799.112244,580
799.231323,558
799.350281,555
799.469238,553
799.588257,582
799.707153,593
799.826111,589
799.945129,566
800.064087,570
800.183044,571
800.302063,547
800.421021,579
800.539978,568
800.658936,572
800.777893,545
800.896912,549
801.015747,576
801.134705,586
801.253723,568
801.37262,576
801.491638,558
801.610535,574
801.729492,578
801.84845,568
801.967407,559
802.086243,562
802.205261,579
802.324158,572
802.443115,571
802.562073,551
802.680969,586
802.799927,567
802.918762,589
803.037659,591
803.156677,593
803.275574,562
803.39447,593
803.513428,574
803.632263,562
803.751221,583
803.870117,583
803.989014,581
804.107971,591
804.226746,577
804.345642,604
804.4646,565
804.583496,606
804.702393,575
804.821228,574
804.940125,569
805.059021,592
805.177917,594
805.296814,601
805.415649,575
805.534546,591
805.653442,582
805.772278,603
805.891113,603
806.01001,592
806.128906,584
806.247742,600
806.366577,594
806.485413,602
806.604309,573
806.723145,601
806.84198,603
806.960876,619
807.079712,599
807.198486,601
807.317383,599
807.436218,598
807.554993,594
807.673889,619
807.792725,586
807.91156,589
808.030396,595
808.14917,603
808.268005,600
808.386841,627
808.505676,609
808.624451,601
808.743286,618
808.862122,606
808.980896,599
809.099731,601
809.218506,603
809.337341,604
809.456116,641
809.57489,582
809.693726,606
809.8125,611
809.931274,609
810.050049,598
810.168884,589
810.287659,610
810.406372,623
810.525269,626
810.643982,591
810.762756,635
810.881531,585
811.000305,616
811.11908,580
811.237854,621
811.356567,614
811.475403,632
811.594116,586
811.71283,617
811.831604,621
811.950378,622
812.069153,593
812.187927,620
812.30658,622
812.425415,607
812.544128,632
812.662781,612
812.781616,620
812.900269,607
813.019043,614
813.137756,615
813.256531,615
813.375244,615
813.493896,615
813.612671,605
813.731384,612
813.850037,624
813.96875,596
814.087524,635
814.206238,624
814.324951,597
814.443604,602
814.562256,605
814.68103,631
814.799683,613
814.918335,590
815.037109,599
815.155762,609
815.274475,611
815.393188,597
815.511841,583
815.630554,599
815.749146,606
815.867859,584
815.986572,586
816.105164,583
816.223877,593
816.342529,608
816.461182,600
816.579895,564
816.698486,613
816.817139,610
816.935791,626
817.054504,579
817.173096,593
817.291748,593
817.4104,597
817.529053,609
817.647644,567
817.766235,554
817.884949,578
818.00354,561
818.122192,555
818.240845,556
818.359436,522
818.478088,532
818.59668,532
818.715271,529
818.833923,539
818.952515,511
819.071106,520
819.189758,497
819.30835,513
819.426941,518
819.545532,518
819.664124,492
819.782715,498
819.901306,479
820.019897,500
820.138489,505
820.25708,496
820.375671,496
820.494202,498
820.612732,478
820.731384,499
820.849915,487
820.968506,491
821.087097,487
821.205627,501
821.324158,492
821.442749,487
821.561279,456
821.679871,503
821.798401,479
821.916931,478
822.035461,467
822.154053,472
822.272583,462
822.391174,478
822.509583,471
822.628174,475
822.746704,503
822.865234,462
822.983765,479
823.102295,481
823.220825,498
823.339294,479
823.457825,483
823.576355,493
823.694824,483
823.813354,485
823.931885,478
824.050354,504
824.168884,474
824.287354,475
824.405823,478
824.524353,520
824.642822,485
824.761353,505
824.879822,473
824.998291,479
825.116699,470
825.235291,483
825.353699,493
825.472168,480
825.590637,484
825.709106,479
825.827576,478
825.946045,484
826.064453,469
826.182983,480
826.301392,480
826.4198,475
826.53833,463
826.656738,475
826.775208,450
826.893677,465
827.012024,454
827.130493,471
827.248962,468
827.36731,460
827.485779,480
827.604248,437
827.722595,460
827.841064,470
827.959412,454
828.077942,466
828.196289,460
828.314636,471
828.433105,452
828.551514,467
828.669861,448
828.78833,476
828.906677,472
829.025085,460
829.143433,471
829.261841,472
829.38031,460
829.498657,461
829.617004,458
829.735413,455
829.85376,473
829.972107,430
830.090515,454
830.208862,466
830.327209,452
830.445557,466
830.563904,470
830.682312,472
830.800659,464
830.919006,458
831.037354,452
831.155701,460
831.274048,454
831.392395,492
831.51062,456
831.629028,469
831.747314,454
831.865662,488
831.984009,448
832.102356,465
832.220642,450
832.338928,483
832.457275,454
832.575623,457
832.693909,456
832.812134,451
832.930481,489
833.048828,481
833.167114,469
833.2854,469
833.403687,443
833.521973,475
833.640259,452
833.758545,469
833.876831,463
833.995056,455
834.113281,462
834.231628,463
834.349915,455
834.468201,448
834.586426,441
834.704651,462
834.822998,472
834.941162,449
835.059448,475
835.177673,477
835.295959,448
835.414246,454
835.53241,471
835.650635,460
835.768921,476
835.887146,456
836.005371,460
836.123596,450
836.241821,468
836.360046,463
836.478271,477
836.596497,490
836.714722,486
836.832886,482
836.95105,465
837.069336,488
837.1875,480
837.305725,495
837.423889,469
837.542053,478
837.660339,467
837.778503,469
837.896667,490
838.014832,476
838.132996,481
838.25116,476
838.369385,463
838.487488,480
838.605713,464
838.723877,501
838.84198,470
838.960205,494
839.078308,461
839.196472,477
839.314636,472
839.4328,493
839.550964,478
839.669067,475
839.787231,459
839.905396,472
840.023499,467
840.141602,459
840.259766,486
840.377869,469
840.495972,458
840.614136,446
840.732239,459
840.850342,473
840.968445,449
841.086548,475
841.204651,455
841.322754,477
841.440918,472
841.55896,463
841.677002,488
841.795166,474
841.913208,459
842.031311,464
842.149353,470
842.267456,460
842.385498,462
842.503601,473
842.621643,437
842.739746,462
842.857788,446
842.97583,444
843.093933,472
843.211975,465
843.330017,457
843.44812,471
843.566101,447
843.684204,460
843.802246,455
843.920227,458
844.038269,470
844.156311,462
844.274292,448
844.392395,454
844.510376,441
844.628357,454
844.74646,450
844.864441,463
844.982422,463
845.100403,464
845.218384,449
845.336426,462
845.454468,451
845.572449,475
845.69043,450
845.808411,456
845.926453,452
846.044373,458
846.162354,453
846.280396,443
846.398315,460
846.516296,454
846.634216,446
846.752197,443
846.870178,468
846.988098,460
847.106079,447
847.22406,475
847.34198,451
847.4599,459
847.577881,455
847.695801,460
847.813782,472
847.931641,451
848.049561,458
848.167603,450
848.285461,436
848.403381,470
848.521362,454
848.639221,478
848.75708,441
848.875,459
848.99292,448
849.110901,469
849.22876,452
849.34668,451
849.464539,454
849.582458,470
849.700317,448
849.818176,462
849.936096,454
850.053955,480
850.171875,467
850.289673,457
850.407593,449
850.525452,479
850.643311,461
850.761169,461
850.878967,462
850.996887,474
851.114746,453
851.232544,469
851.350403,458
851.468262,463
851.58606,441
851.703979,469
851.821777,475
851.939636,464
852.057434,472
852.175232,444
852.293091,458
852.410889,463
852.528687,457
852.646545,476
852.764343,457
852.88208,471
852.999939,441
853.117676,488
853.235535,465
853.353271,468
853.471069,460
853.588928,469
853.706604,465
853.824402,464
853.9422,461
854.059998,465
854.177734,460
854.295532,444
854.413269,487
854.531006,466
854.648804,440
854.766541,457
854.884277,454
855.002014,478
855.119751,476
855.237549,468
855.355225,458
855.473022,457
855.590698,469
855.708435,472
855.826172,462
855.943848,472
856.061646,488
856.179321,458
856.296997,466
856.414795,467
856.53241,469
856.650085,467
856.767822,445
856.885559,477
857.003174,457
857.120911,460
857.238586,442
857.356201,464
857.473938,450
857.591614,481
857.709351,460
857.826965,477
857.944641,463
858.062317,466
858.179993,460
858.297668,474
858.415283,442
858.532959,471
858.650574,450
858.768188,484
858.885803,452
859.003479,471
859.121094,469
859.23877,467
859.356384,469
859.473999,453
859.591675,460
859.709229,457
859.826843,457
859.944458,452
860.062012,463
860.179626,465
860.297302,470
860.414856,476
860.532471,459
860.650024,467
860.767639,460
860.885193,449
861.002808,457
861.120361,472
861.237976,467
861.35553,474
861.473022,458
861.590698,472
861.708191,453
861.825745,450
861.943298,456
862.060852,462
862.178406,470
862.295959,453
862.413513,471
862.531006,454
862.64856,476
862.766113,449
862.883667,463
863.00116,474
863.118713,469
863.236206,476
863.353699,455
863.471252,437
863.588745,448
863.706177,461
863.82373,466
863.941162,487
864.058716,455
864.176208,468
864.29364,459
864.411194,465
864.528687,456
864.646118,474
864.763611,440
864.881042,440
864.998535,460
865.116028,443
865.233459,453
865.350891,456
865.468384,478
865.585754,471
865.703308,445
865.820679,473
865.938171,462
866.055542,477
866.173035,479
866.290466,449
866.407837,448
866.52533,448
866.6427,475
866.760071,450
866.877563,477
866.994934,483
867.112305,463
867.229736,468
867.347107,446
867.464539,481
867.58197,460
867.699341,471
867.81665,462
867.934082,473
868.051453,470
868.168823,489
868.286194,467
868.403564,478
868.520935,447
868.638306,462
868.755676,468
868.872986,463
868.990295,469
869.107727,468
869.225037,476
869.342346,469
869.459717,452
869.577026,467
869.694336,474
869.811707,441
869.929016,446
870.046326,465
870.163635,467
870.280945,480
870.398254,463
870.515564,461
870.632812,447
870.750183,484
870.867432,464
870.984741,463
871.102051,446
871.219299,485
871.336609,468
871.453918,454
871.571106,470
871.688416,470
871.805664,451
871.922852,481
872.040222,456
872.157471,477
872.274719,463
872.391968,484
872.509155,459
872.626465,460
872.743652,459
872.860962,467
872.978149,463
873.095337,480
873.212646,484
873.329834,470
873.44696,480
873.564209,477
873.681396,438
873.798645,480
873.915894,468
874.03302,454
874.150208,451
874.267456,470
874.384583,478
874.501831,484
874.618958,474
874.736145,476
874.853333,472
874.970459,463
875.087646,464
875.204834,464
875.32196,450
875.439148,477
875.556274,464
875.673401,477
875.790527,456
875.907715,481
876.024841,434
876.141968,479
876.259094,454
876.376282,463
876.493347,445
876.610474,480
876.7276,458
876.844727,455
876.961853,462
877.078918,471
877.195984,460
877.313171,466
877.430237,452
877.547302,482
877.664368,459
877.781433,455
877.898499,453
878.015625,468
878.13269,483
878.249695,470
878.366821,463
878.483887,461
878.600952,454
878.717957,488
878.834961,468
878.952087,488
879.069092,455
879.186157,468
879.303162,470
879.420227,466
879.537231,467
879.654236,470
879.77124,458
879.888306,486
880.005249,475
880.122314,471
880.239319,475
880.356323,476
880.473328,469
880.590271,452
880.707275,454
880.824341,458
880.941284,462
881.058228,460
881.175232,457
881.292236,460
881.40918,451
881.526123,474
881.643066,471
881.760071,473
881.877014,452
881.993958,461
882.11084,471
882.227783,457
882.344727,460
882.46167,480
882.578613,439
882.695618,449
882.812439,463
882.929382,462
883.046326,477
883.163208,473
883.280151,464
883.397034,475
883.513916,447
883.630798,489
883.747742,469
883.864563,481
883.981506,464
884.098389,461
884.21521,446
884.332153,477
884.448975,451
884.565796,459
884.682678,470
884.7995,491
884.916443,464
885.033264,475
885.150085,484
885.266968,486
885.383789,455
885.500671,467
885.617493,466
885.734314,465
885.851196,481
885.967896,475
886.084717,485
886.201599,482
886.318359,473
886.435181,474
886.552002,488
886.668762,473
886.785645,470
886.902344,491
887.019165,473
887.135925,470
887.252747,489
887.369446,486
887.486267,463
887.603027,479
887.719788,480
887.836548,474
887.953247,480
888.070068,473
888.186829,451
888.303528,482
888.420288,477
888.536987,490
888.653687,489
888.770447,472
888.887146,481
889.003967,501
889.120667,485
889.237305,481
889.354065,487
889.470703,478
889.587463,466
889.704163,460
889.820862,464
889.937561,460
890.054199,471
890.170837,495
890.287598,490
890.404236,472
890.520874,458
890.637634,468
890.754211,487
890.87085,463
890.987549,471
891.104187,493
891.220886,481
891.337463,490
891.454102,469
891.57074,470
891.687378,468
891.804077,479
891.920654,475
892.037231,483
892.15387,474
892.270447,480
892.387085,470
892.503723,483
892.6203,473
892.736877,491
892.853516,467
892.970032,470
893.08667,474
893.203186,501
893.319763,492
893.43634,502
893.552917,462
893.669556,472
893.786011,456
893.902588,486
894.019165,486
894.135681,468
894.252197,463
894.368835,485
894.485291,478
894.601868,488
894.718384,468
894.8349,465
894.951355,491
895.067932,477
895.184448,460
895.300964,500
895.417419,470
895.533936,480
895.650452,473
895.766907,488
895.883423,498
895.999878,475
896.116333,460
896.232849,475
896.349304,487
896.465759,481
896.582214,465
896.698669,470
896.815125,466
896.931641,476
897.048035,484
897.164551,488
897.280884,451
897.397339,476
897.513794,462
897.630249,478
897.746582,493
897.863098,486
897.979431,462
898.095886,496
898.212341,471
898.328674,485
898.445129,467
898.561462,490
898.677795,486
898.794312,483
898.910645,469
899.026978,474
899.143433,456
899.259766,499
899.37616,477
899.492493,490
899.608765,480
899.725159,486
899.841553,465
899.957947,478
900.07428,483
900.190552,476
900.306946,484
900.423157,478
900.53949,488
900.655884,486
900.772156,493
900.888489,494
901.004822,477
901.121033,496
901.237366,458
901.353699,466
901.46991,473
901.586304,460
901.702515,467
901.818787,480
901.93512,466
902.051331,482
902.167603,465
902.283875,483
902.400085,474
902.516418,483
902.632629,498
902.74884,487
902.865112,480
902.981384,491
903.097595,485
903.213867,505
903.330017,479
903.446289,507
903.5625,499
903.67865,490
903.794922,483
903.911072,483
904.027344,487
904.143494,475
904.259705,480
904.375916,494
904.492065,476
904.608215,506
904.724426,470
904.840576,472
904.956726,485
905.072876,494
905.189087,483
905.305176,494
905.421387,490
905.537537,505
905.653687,485
905.769775,468
905.885925,521
906.002014,479
906.118164,487
906.234314,475
906.350403,480
906.466492,481
906.582642,506
906.69873,495
906.814758,497
906.930908,485
907.046936,489
907.163086,488
907.279175,481
907.395264,496
907.511353,483
907.62738,478
907.743408,494
907.859497,490
907.975525,478
908.091553,502
908.207703,481
908.32373,487
908.439758,480
908.555786,491
908.671814,480
908.787842,489
908.90387,506
909.019775,494
909.135864,482
909.251892,485
909.367859,479
909.483826,507
909.599854,472
909.715881,499
909.831848,477
909.947815,498
910.063782,476
910.179749,496
910.295776,480
910.411743,496
910.527649,485
910.643616,489
910.759583,513
910.875488,491
910.991455,467
911.107361,500
911.223267,479
911.339294,488
911.4552,475
911.571106,493
911.687073,496
911.802979,500
911.918823,467
912.034729,477
912.150635,495
912.266602,492
912.382446,506
912.498352,492
912.614197,491
912.730103,482
912.846008,468
