792.44574,801
792.56488,799
792.68396,824
792.80304,799
792.92218,785
793.041199,720
793.160339,715
793.279419,698
793.398499,689
793.517578,686
793.636658,696
793.755737,677
793.874817,693
793.993896,684
794.112976,658
794.232056,660
794.351074,644
794.470215,650
794.589233,644
794.708313,631
794.827393,623
794.946411,642
795.065552,623
795.18457,649
795.303589,628
795.422668,631
795.541687,592
795.660767,630
795.779846,607
795.898865,602
796.017883,611
796.136963,583
796.255981,568
796.375061,583
796.49408,579
796.613037,593
796.732117,593
796.851135,596
796.970154,580
797.089233,591
797.208191,594
797.327271,579
797.446228,556
797.565186,592
797.684265,575
797.803223,576
797.922241,565
798.04126,572
798.160278,550
798.279297,575
798.398315,561
798.517273,577
798.636292,549
798.75531,577
798.874268,579
798.993286,570
799.112244,554
799.231323,581
799.350281,566
799.469238,561
799.588257,556
799.707153,570
799.826111,543
799.945129,538
800.064087,543
800.183044,555
800.302063,555
800.421021,576
800.539978,550
800.658936,523
800.777893,564
800.896912,546
801.015747,542
801.134705,535
801.253723,545
801.37262,563
801.491638,557
801.610535,542
801.729492,540
801.84845,538
801.967407,525
802.086243,540
802.205261,546
802.324158,517
802.443115,534
802.562073,535
802.680969,529
802.799927,510
802.918762,533
803.037659,525
803.156677,557
803.275574,545
803.39447,523
803.513428,545
803.632263,554
803.751221,516
803.870117,515
803.989014,544
804.107971,532
804.226746,539
804.345642,525
804.4646,531
804.583496,529
804.702393,520
804.821228,515
804.940125,536
805.059021,522
805.177917,540
805.296814,537
805.415649,539
805.534546,538
805.653442,530
805.772278,535
805.891113,527
806.01001,537
806.128906,525
806.247742,509
806.366577,539
806.485413,537
806.604309,532
806.723145,531
806.84198,531
806.960876,522
807.079712,514
807.198486,537
807.317383,525
807.436218,518
807.554993,532
807.673889,525
807.792725,525
807.91156,529
808.030396,537
808.14917,547
808.268005,529
808.386841,508
808.505676,521
808.624451,535
808.743286,528
808.862122,535
808.980896,522
809.099731,549
809.218506,508
809.337341,526
809.456116,536
809.57489,531
809.693726,529
809.8125,531
809.931274,484
810.050049,522
810.168884,536
810.287659,532
810.406372,509
810.525269,515
810.643982,540
810.762756,525
810.881531,531
811.000305,518
811.11908,541
811.237854,513
811.356567,530
811.475403,536
811.594116,522
811.71283,548
811.831604,534
811.950378,532
812.069153,527
812.187927,503
812.30658,527
812.425415,533
812.544128,543
812.662781,525
812.781616,536
812.900269,516
813.019043,511
813.137756,532
813.256531,531
813.375244,540
813.493896,537
813.612671,516
813.731384,529
813.850037,506
813.96875,498
814.087524,508
814.206238,511
814.324951,501
814.443604,563
814.562256,509
814.68103,536
814.799683,506
814.918335,521
815.037109,505
815.155762,512
815.274475,512
815.393188,504
815.511841,512
815.630554,510
815.749146,524
815.867859,511
815.986572,507
816.105164,504
816.223877,501
816.342529,511
816.461182,512
816.579895,534
816.698486,509
816.817139,509
816.935791,511
817.054504,516
817.173096,506
817.291748,533
817.4104,496
817.529053,509
817.647644,513
817.766235,527
817.884949,497
818.00354,527
818.122192,487
818.240845,500
818.359436,490
818.478088,500
818.59668,511
818.715271,510
818.833923,489
818.952515,477
819.071106,473
819.189758,474
819.30835,485
819.426941,497
819.545532,484
819.664124,480
819.782715,483
819.901306,516
820.019897,482
820.138489,495
820.25708,504
820.375671,483
820.494202,478
820.612732,498
820.731384,465
820.849915,492
820.968506,470
821.087097,486
821.205627,485
821.324158,468
821.442749,482
821.561279,485
821.679871,477
821.798401,485
821.916931,474
822.035461,499
822.154053,470
822.272583,476
822.391174,495
822.509583,485
822.628174,476
822.746704,473
822.865234,476
822.983765,480
823.102295,494
823.220825,458
823.339294,505
823.457825,468
823.576355,482
823.694824,460
823.813354,458
823.931885,485
824.050354,463
824.168884,477
824.287354,477
824.405823,490
824.524353,450
824.642822,479
824.761353,466
824.879822,487
824.998291,482
825.116699,493
825.235291,484
825.353699,468
825.472168,470
825.590637,479
825.709106,472
825.827576,468
825.946045,466
826.064453,467
826.182983,466
826.301392,482
826.4198,472
826.53833,470
826.656738,449
826.775208,481
826.893677,480
827.012024,473
827.130493,479
827.248962,476
827.36731,455
827.485779,474
827.604248,457
827.722595,466
827.841064,448
827.959412,483
828.077942,452
828.196289,489
828.314636,465
828.433105,456
828.551514,473
828.669861,472
828.78833,467
828.906677,457
829.025085,461
829.143433,462
829.261841,461
829.38031,470
829.498657,471
829.617004,482
829.735413,460
829.85376,480
829.972107,473
830.090515,458
830.208862,479
830.327209,465
830.445557,454
830.563904,475
830.682312,477
830.800659,466
830.919006,464
831.037354,467
831.155701,466
831.274048,485
831.392395,479
831.51062,458
831.629028,468
831.747314,482
831.865662,466
831.984009,461
832.102356,465
832.220642,476
832.338928,466
832.457275,484
832.575623,455
832.693909,469
832.812134,491
832.930481,469
833.048828,459
833.167114,463
833.2854,465
833.403687,464
833.521973,471
833.640259,470
833.758545,486
833.876831,472
833.995056,461
834.113281,457
834.231628,479
834.349915,459
834.468201,457
834.586426,454
834.704651,462
834.822998,482
834.941162,470
835.059448,475
835.177673,466
835.295959,463
835.414246,474
835.53241,456
835.650635,462
835.768921,463
835.887146,459
836.005371,463
836.123596,459
836.241821,465
836.360046,460
836.478271,462
836.596497,463
836.714722,466
836.832886,468
836.95105,464
837.069336,472
837.1875,464
837.305725,451
837.423889,484
837.542053,454
837.660339,459
837.778503,470
837.896667,447
838.014832,488
838.132996,459
838.25116,462
838.369385,474
838.487488,462
838.605713,453
838.723877,461
838.84198,467
838.960205,481
839.078308,461
839.196472,482
839.314636,476
839.4328,487
839.550964,471
839.669067,461
839.787231,462
839.905396,481
840.023499,478
840.141602,490
840.259766,464
840.377869,463
840.495972,468
840.614136,474
840.732239,496
840.850342,497
840.968445,491
841.086548,485
841.204651,499
841.322754,480
841.440918,484
841.55896,486
841.677002,496
841.795166,484
841.913208,489
842.031311,484
842.149353,475
842.267456,476
842.385498,472
842.503601,489
842.621643,492
842.739746,482
842.857788,485
842.97583,465
843.093933,491
843.211975,492
843.330017,488
843.44812,486
843.566101,488
843.684204,501
843.802246,470
843.920227,472
844.038269,485
844.156311,471
844.274292,482
844.392395,489
844.510376,494
844.628357,455
844.74646,467
844.864441,497
844.982422,483
845.100403,480
845.218384,501
845.336426,462
845.454468,501
845.572449,458
845.69043,488
845.808411,473
845.926453,480
846.044373,464
846.162354,457
846.280396,474
846.398315,486
846.516296,492
846.634216,479
846.752197,468
846.870178,480
846.988098,488
847.106079,469
847.22406,453
847.34198,479
847.4599,482
847.577881,498
847.695801,485
847.813782,491
847.931641,481
848.049561,496
848.167603,473
848.285461,469
848.403381,474
848.521362,491
848.639221,486
848.75708,455
848.875,479
848.99292,495
849.110901,481
849.22876,501
849.34668,486
849.464539,482
849.582458,497
849.700317,478
849.818176,481
849.936096,471
850.053955,465
850.171875,474
850.289673,473
850.407593,485
850.525452,498
850.643311,489
850.761169,466
850.878967,483
850.996887,493
851.114746,481
851.232544,488
851.350403,489
851.468262,497
851.58606,502
851.703979,484
851.821777,490
851.939636,479
852.057434,473
852.175232,452
852.293091,480
852.410889,480
852.528687,474
852.646545,485
852.764343,499
852.88208,499
852.999939,475
853.117676,481
853.235535,485
853.353271,487
853.471069,494
853.588928,460
853.706604,498
853.824402,479
853.9422,474
854.059998,473
854.177734,481
854.295532,490
854.413269,487
854.531006,486
854.648804,490
854.766541,484
854.884277,494
855.002014,458
855.119751,492
855.237549,493
855.355225,472
855.473022,479
855.590698,491
855.708435,477
855.826172,491
855.943848,479
856.061646,477
856.179321,452
856.296997,461
856.414795,492
856.53241,485
856.650085,495
856.767822,480
856.885559,485
857.003174,486
857.120911,494
857.238586,506
857.356201,472
857.473938,486
857.591614,479
857.709351,473
857.826965,488
857.944641,505
858.062317,485
858.179993,506
858.297668,473
858.415283,490
858.532959,486
858.650574,496
858.768188,497
858.885803,502
859.003479,454
859.121094,477
859.23877,487
859.356384,488
859.473999,476
859.591675,470
859.709229,475
859.826843,500
859.944458,464
860.062012,470
860.179626,456
860.297302,466
860.414856,455
860.532471,472
860.650024,473
860.767639,491
860.885193,480
861.002808,491
861.120361,467
861.237976,451
861.35553,459
861.473022,473
861.590698,490
861.708191,477
861.825745,475
861.943298,491
862.060852,470
862.178406,489
862.295959,494
862.413513,472
862.531006,481
862.64856,467
862.766113,454
862.883667,479
863.00116,470
863.118713,469
863.236206,473
863.353699,489
863.471252,461
863.588745,474
863.706177,494
863.82373,465
863.941162,482
864.058716,497
864.176208,476
864.29364,473
864.411194,452
864.528687,472
864.646118,485
864.763611,470
864.881042,457
864.998535,464
865.116028,472
865.233459,480
865.350891,456
865.468384,466
865.585754,480
865.703308,476
865.820679,491
865.938171,468
866.055542,465
866.173035,485
866.290466,462
866.407837,478
866.52533,474
866.6427,468
866.760071,463
866.877563,480
866.994934,457
867.112305,484
867.229736,464
867.347107,474
867.464539,486
867.58197,461
867.699341,466
867.81665,483
867.934082,471
868.051453,491
868.168823,471
868.286194,471
868.403564,478
868.520935,494
868.638306,464
868.755676,479
868.872986,465
868.990295,479
869.107727,494
869.225037,489
869.342346,465
869.459717,464
869.577026,465
869.694336,474
869.811707,480
869.929016,507
870.046326,479
870.163635,489
870.280945,476
870.398254,476
870.515564,490
870.632812,494
870.750183,481
870.867432,479
870.984741,487
871.102051,493
871.219299,491
871.336609,485
871.453918,494
871.571106,499
871.688416,514
871.805664,478
871.922852,488
872.040222,483
872.157471,508
872.274719,507
872.391968,502
872.509155,502
872.626465,474
872.743652,490
872.860962,480
872.978149,500
873.095337,484
873.212646,489
873.329834,485
873.44696,478
873.564209,483
873.681396,490
873.798645,497
873.915894,505
874.03302,476
874.150208,507
874.267456,505
874.384583,496
874.501831,492
874.618958,514
874.736145,524
874.853333,484
874.970459,505
875.087646,513
875.204834,488
875.32196,485
875.439148,498
875.556274,487
875.673401,476
875.790527,489
875.907715,484
876.024841,481
876.141968,487
876.259094,476
876.376282,494
876.493347,480
876.610474,504
876.7276,478
876.844727,489
876.961853,471
877.078918,467
877.195984,463
877.313171,482
877.430237,483
877.547302,487
877.664368,487
877.781433,484
877.898499,473
878.015625,489
878.13269,480
878.249695,488
878.366821,469
878.483887,462
878.600952,492
878.717957,482
878.834961,467
878.952087,477
879.069092,462
879.186157,458
879.303162,481
879.420227,489
879.537231,466
879.654236,468
879.77124,460
879.888306,476
880.005249,488
880.122314,464
880.239319,480
880.356323,469
880.473328,470
880.590271,474
880.707275,480
880.824341,469
880.941284,468
881.058228,486
881.175232,473
881.292236,484
881.40918,468
881.526123,452
881.643066,460
881.760071,469
881.877014,485
881.993958,485
882.11084,453
882.227783,464
882.344727,450
882.46167,466
882.578613,466
882.695618,465
882.812439,505
882.929382,451
883.046326,474
883.163208,462
883.280151,490
883.397034,455
883.513916,480
883.630798,469
883.747742,472
883.864563,474
883.981506,475
884.098389,476
884.21521,491
884.332153,473
884.448975,492
884.565796,480
884.682678,490
884.7995,496
884.916443,508
885.033264,519
885.150085,509
885.266968,500
885.383789,529
885.500671,522
885.617493,530
885.734314,525
885.851196,500
885.967896,501
886.084717,530
886.201599,540
886.318359,512
886.435181,528
886.552002,510
886.668762,524
886.785645,505
886.902344,504
887.019165,489
887.135925,497
887.252747,492
887.369446,497
887.486267,503
887.603027,508
887.719788,477
887.836548,457
887.953247,487
888.070068,471
888.186829,482
888.303528,484
888.420288,485
888.536987,460
888.653687,481
888.770447,461
888.887146,486
889.003967,472
889.120667,482
889.237305,471
889.354065,463
889.470703,465
889.587463,456
889.704163,472
889.820862,479
889.937561,455
890.054199,461
890.170837,455
890.287598,476
890.404236,469
890.520874,461
890.637634,470
890.754211,476
890.87085,472
890.987549,457
891.104187,449
891.220886,465
891.337463,450
891.454102,471
891.57074,472
891.687378,480
891.804077,470
891.920654,493
892.037231,463
892.15387,478
892.270447,461
892.387085,477
892.503723,458
892.6203,466
892.736877,466
892.853516,472
892.970032,468
893.08667,458
893.203186,467
893.319763,465
893.43634,474
893.552917,479
893.669556,465
893.786011,474
893.902588,487
894.019165,475
894.135681,474
894.252197,463
894.368835,465
894.485291,473
894.601868,476
894.718384,465
894.8349,468
894.951355,471
895.067932,488
895.184448,471
895.300964,480
895.417419,488
895.533936,482
895.650452,457
895.766907,481
895.883423,477
895.999878,464
896.116333,479
896.232849,475
896.349304,462
896.465759,457
896.582214,480
896.698669,467
896.815125,479
896.931641,453
897.048035,473
897.164551,455
897.280884,482
897.397339,480
897.513794,467
897.630249,453
897.746582,461
897.863098,462
897.979431,480
898.095886,458
898.212341,485
898.328674,462
898.445129,475
898.561462,476
898.677795,495
898.794312,455
898.910645,487
899.026978,472
899.143433,476
899.259766,481
899.37616,473
899.492493,464
899.608765,481
899.725159,472
899.841553,468
899.957947,463
900.07428,482
900.190552,475
900.306946,473
900.423157,453
900.53949,475
900.655884,472
900.772156,485
900.888489,462
901.004822,469
901.121033,490
901.237366,462
901.353699,481
901.46991,469
901.586304,458
901.702515,490
901.818787,478
901.93512,481
902.051331,489
902.167603,517
902.283875,481
902.400085,498
902.516418,492
902.632629,509
902.74884,490
902.865112,514
902.981384,506
903.097595,501
903.213867,502
903.330017,517
903.446289,502
903.5625,489
903.67865,483
903.794922,491
903.911072,486
904.027344,501
904.143494,497
904.259705,485
904.375916,472
904.492065,475
904.608215,482
904.724426,495
904.840576,480
904.956726,472
905.072876,473
905.189087,471
905.305176,471
905.421387,482
905.537537,465
905.653687,447
905.769775,473
905.885925,483
906.002014,477
906.118164,495
906.234314,474
906.350403,477
906.466492,473
906.582642,484
906.69873,469
906.814758,469
906.930908,448
907.046936,480
907.163086,476
907.279175,469
907.395264,456
907.511353,472
907.62738,457
907.743408,463
907.859497,474
907.975525,468
908.091553,472
908.207703,457
908.32373,464
908.439758,448
908.555786,472
908.671814,476
908.787842,476
908.90387,451
909.019775,495
909.135864,487
909.251892,481
909.367859,486
909.483826,465
909.599854,466
909.715881,485
909.831848,464
909.947815,476
910.063782,481
910.179749,474
910.295776,472
910.411743,462
910.527649,473
910.643616,474
910.759583,485
910.875488,438
910.991455,475
911.107361,478
911.223267,472
911.339294,481
911.4552,479
911.571106,473
911.687073,489
911.802979,477
911.918823,456
912.034729,463
912.150635,464
912.266602,462
912.382446,472
912.498352,467
912.614197,474
912.730103,469
912.846008,464
792.44574,778
792.56488,814
792.68396,817
792.80304,790
792.92218,731
793.041199,699
793.160339,695
793.279419,749
793.398499,693
793.517578,686
793.636658,700
793.755737,681
793.874817,689
793.993896,678
794.112976,666
794.232056,659
794.351074,679
794.470215,655
794.589233,638
794.708313,636
794.827393,642
794.946411,640
795.065552,650
795.18457,636
795.303589,631
795.422668,629
795.541687,619
795.660767,634
795.779846,610
795.898865,621
796.017883,603
796.136963,583
796.255981,592
796.375061,591
796.49408,613
796.613037,602
796.732117,598
796.851135,595
796.970154,591
797.089233,564
797.208191,586
797.327271,567
797.446228,591
797.565186,592
797.684265,577
797.803223,553
797.922241,570
798.04126,569
798.160278,563
798.279297,561
798.398315,548
798.517273,562
798.636292,579
798.75531,550
798.874268,562
798.993286,587
799.112244,556
799.231323,553
799.350281,540
799.469238,564
799.588257,552
799.707153,553
799.826111,555
799.945129,524
800.064087,539
800.183044,572
800.302063,543
800.421021,543
800.539978,543
800.658936,554
800.777893,541
800.896912,558
801.015747,561
801.134705,548
801.253723,542
801.37262,565
801.491638,553
801.610535,539
801.729492,544
801.84845,514
801.967407,525
802.086243,532
802.205261,550
802.324158,536
802.443115,549
802.562073,527
802.680969,541
802.799927,545
802.918762,532
803.037659,544
803.156677,544
803.275574,521
803.39447,557
803.513428,520
803.632263,540
803.751221,531
803.870117,513
803.989014,537
804.107971,523
804.226746,551
804.345642,537
804.4646,533
804.583496,531
804.702393,527
804.821228,521
804.940125,513
805.059021,552
805.177917,538
805.296814,545
805.415649,553
805.534546,524
805.653442,523
805.772278,539
805.891113,532
806.01001,528
806.128906,526
806.247742,510
806.366577,526
806.485413,560
806.604309,531
806.723145,528
806.84198,540
806.960876,524
807.079712,521
807.198486,524
807.317383,520
807.436218,535
807.554993,540
807.673889,527
807.792725,508
807.91156,510
808.030396,510
808.14917,537
808.268005,515
808.386841,536
808.505676,526
808.624451,524
808.743286,508
808.862122,524
808.980896,536
809.099731,523
809.218506,526
809.337341,539
809.456116,525
809.57489,524
809.693726,521
809.8125,542
809.931274,526
810.050049,514
810.168884,517
810.287659,549
810.406372,529
810.525269,534
810.643982,525
810.762756,534
810.881531,533
811.000305,535
811.11908,527
811.237854,512
811.356567,527
811.475403,523
811.594116,515
811.71283,561
811.831604,538
811.950378,529
812.069153,525
812.187927,541
812.30658,537
812.425415,527
812.544128,544
812.662781,535
812.781616,524
812.900269,545
813.019043,525
813.137756,534
813.256531,542
813.375244,539
813.493896,512
813.612671,541
813.731384,531
813.850037,528
813.96875,516
814.087524,510
814.206238,523
814.324951,526
814.443604,517
814.562256,523
814.68103,520
814.799683,522
814.918335,506
815.037109,525
815.155762,514
815.274475,530
815.393188,508
815.511841,521
815.630554,531
815.749146,512
815.867859,510
815.986572,517
816.105164,516
816.223877,527
816.342529,497
816.461182,533
816.579895,511
816.698486,532
816.817139,508
816.935791,528
817.054504,532
817.173096,513
817.291748,508
817.4104,519
817.529053,498
817.647644,514
817.766235,512
817.884949,512
818.00354,516
818.122192,511
818.240845,519
818.359436,480
818.478088,478
818.59668,494
818.715271,494
818.833923,496
818.952515,490
819.071106,481
819.189758,470
819.30835,484
819.426941,485
819.545532,495
819.664124,482
819.782715,500
819.901306,494
820.019897,496
820.138489,464
820.25708,477
820.375671,490
820.494202,506
820.612732,482
820.731384,467
820.849915,493
820.968506,491
821.087097,477
821.205627,484
821.324158,461
821.442749,483
821.561279,473
821.679871,475
821.798401,482
821.916931,477
822.035461,483
822.154053,496
822.272583,485
822.391174,464
822.509583,475
822.628174,489
822.746704,493
822.865234,457
822.983765,466
823.102295,496
823.220825,477
823.339294,480
823.457825,486
823.576355,486
823.694824,474
823.813354,491
823.931885,484
824.050354,485
824.168884,471
824.287354,478
824.405823,480
824.524353,480
824.642822,461
824.761353,468
824.879822,479
824.998291,497
825.116699,475
825.235291,486
825.353699,478
825.472168,464
825.590637,482
825.709106,488
825.827576,465
825.946045,480
826.064453,485
826.182983,473
826.301392,450
826.4198,474
826.53833,464
826.656738,460
826.775208,461
826.893677,486
827.012024,471
827.130493,470
827.248962,477
827.36731,450
827.485779,469
827.604248,461
827.722595,476
827.841064,459
827.959412,478
828.077942,463
828.196289,462
828.314636,471
828.433105,454
828.551514,477
828.669861,465
828.78833,484
828.906677,458
829.025085,438
829.143433,474
829.261841,474
829.38031,477
829.498657,466
829.617004,465
829.735413,463
829.85376,444
829.972107,480
830.090515,467
830.208862,485
830.327209,468
830.445557,459
830.563904,466
830.682312,479
830.800659,460
830.919006,465
831.037354,503
831.155701,448
831.274048,462
831.392395,470
831.51062,467
831.629028,472
831.747314,465
831.865662,487
831.984009,455
832.102356,480
832.220642,492
832.338928,471
832.457275,464
832.575623,459
832.693909,460
832.812134,465
832.930481,466
833.048828,490
833.167114,478
833.2854,487
833.403687,468
833.521973,483
833.640259,453
833.758545,477
833.876831,461
833.995056,454
834.113281,474
834.231628,477
834.349915,480
834.468201,460
834.586426,464
834.704651,478
834.822998,476
834.941162,485
835.059448,478
835.177673,466
835.295959,460
835.414246,466
835.53241,473
835.650635,463
835.768921,464
835.887146,459
836.005371,467
836.123596,466
836.241821,463
836.360046,470
836.478271,479
836.596497,479
836.714722,459
836.832886,482
836.95105,463
837.069336,488
837.1875,456
837.305725,467
837.423889,465
837.542053,472
837.660339,465
837.778503,479
837.896667,476
838.014832,482
838.132996,475
838.25116,498
838.369385,472
838.487488,465
838.605713,467
838.723877,503
838.84198,480
838.960205,486
839.078308,474
839.196472,460
839.314636,470
839.4328,487
839.550964,466
839.669067,486
839.787231,485
839.905396,481
840.023499,471
840.141602,491
840.259766,479
840.377869,494
840.495972,480
840.614136,493
840.732239,462
840.850342,493
840.968445,485
841.086548,503
841.204651,486
841.322754,481
841.440918,486
841.55896,515
841.677002,485
841.795166,488
841.913208,499
842.031311,474
842.149353,483
842.267456,494
842.385498,486
842.503601,494
842.621643,471
842.739746,497
842.857788,490
842.97583,481
843.093933,481
843.211975,497
843.330017,468
843.44812,481
843.566101,482
843.684204,502
843.802246,486
843.920227,478
844.038269,489
844.156311,506
844.274292,490
844.392395,487
844.510376,486
844.628357,494
844.74646,473
844.864441,471
844.982422,489
845.100403,501
845.218384,486
845.336426,484
845.454468,477
845.572449,469
845.69043,466
845.808411,482
845.926453,486
846.044373,495
846.162354,481
846.280396,487
846.398315,468
846.516296,456
846.634216,475
846.752197,500
846.870178,475
846.988098,471
847.106079,476
847.22406,463
847.34198,470
847.4599,486
847.577881,465
847.695801,479
847.813782,479
847.931641,476
848.049561,497
848.167603,473
848.285461,475
848.403381,475
848.521362,493
848.639221,472
848.75708,492
848.875,478
848.99292,485
849.110901,474
849.22876,467
849.34668,497
849.464539,481
849.582458,508
849.700317,463
849.818176,477
849.936096,486
850.053955,489
850.171875,479
850.289673,504
850.407593,474
850.525452,479
850.643311,488
850.761169,503
850.878967,469
850.996887,481
851.114746,485
851.232544,513
851.350403,501
851.468262,499
851.58606,457
851.703979,481
851.821777,480
851.939636,501
852.057434,467
852.175232,490
852.293091,484
852.410889,493
852.528687,487
852.646545,499
852.764343,480
852.88208,501
852.999939,482
853.117676,504
853.235535,474
853.353271,493
853.471069,472
853.588928,491
853.706604,486
853.824402,484
853.9422,485
854.059998,473
854.177734,472
854.295532,488
854.413269,493
854.531006,471
854.648804,475
854.766541,469
854.884277,492
855.002014,481
855.119751,467
855.237549,471
855.355225,468
855.473022,492
855.590698,488
855.708435,475
855.826172,454
855.943848,482
856.061646,478
856.179321,500
856.296997,463
856.414795,492
856.53241,485
856.650085,493
856.767822,473
856.885559,506
857.003174,468
857.120911,488
857.238586,481
857.356201,493
857.473938,464
857.591614,472
857.709351,490
857.826965,477
857.944641,476
858.062317,503
858.179993,485
858.297668,481
858.415283,467
858.532959,490
858.650574,494
858.768188,481
858.885803,482
859.003479,486
859.121094,496
859.23877,481
859.356384,479
859.473999,483
859.591675,474
859.709229,500
859.826843,474
859.944458,479
860.062012,474
860.179626,468
860.297302,462
860.414856,493
860.532471,476
860.650024,490
860.767639,471
860.885193,477
861.002808,495
861.120361,481
861.237976,473
861.35553,478
861.473022,483
861.590698,474
861.708191,471
861.825745,457
861.943298,467
862.060852,464
862.178406,480
862.295959,479
862.413513,478
862.531006,465
862.64856,465
862.766113,467
862.883667,460
863.00116,477
863.118713,482
863.236206,498
863.353699,471
863.471252,478
863.588745,478
863.706177,488
863.82373,492
863.941162,506
864.058716,481
864.176208,470
864.29364,462
864.411194,475
864.528687,489
864.646118,472
864.763611,485
864.881042,475
864.998535,462
865.116028,475
865.233459,475
865.350891,463
865.468384,461
865.585754,470
865.703308,462
865.820679,462
865.938171,474
866.055542,487
866.173035,469
866.290466,472
866.407837,465
866.52533,458
866.6427,464
866.760071,487
866.877563,472
866.994934,482
867.112305,470
867.229736,495
867.347107,457
867.464539,493
867.58197,467
867.699341,459
867.81665,488
867.934082,480
868.051453,483
868.168823,463
868.286194,475
868.403564,467
868.520935,450
868.638306,486
868.755676,472
868.872986,479
868.990295,487
869.107727,486
869.225037,473
869.342346,492
869.459717,478
869.577026,493
869.694336,484
869.811707,517
869.929016,489
870.046326,493
870.163635,483
870.280945,489
870.398254,476
870.515564,479
870.632812,490
870.750183,496
870.867432,475
870.984741,481
871.102051,474
871.219299,496
871.336609,486
871.453918,499
871.571106,488
871.688416,512
871.805664,496
871.922852,507
872.040222,498
872.157471,493
872.274719,497
872.391968,491
872.509155,522
872.626465,482
872.743652,486
872.860962,477
872.978149,475
873.095337,497
873.212646,495
873.329834,478
873.44696,495
873.564209,492
873.681396,507
873.798645,489
873.915894,482
874.03302,504
874.150208,501
874.267456,497
874.384583,485
874.501831,508
874.618958,477
874.736145,496
874.853333,495
874.970459,505
875.087646,504
875.204834,497
875.32196,482
875.439148,510
875.556274,495
875.673401,471
875.790527,494
875.907715,494
876.024841,498
876.141968,488
876.259094,496
876.376282,497
876.493347,472
876.610474,489
876.7276,484
876.844727,494
876.961853,470
877.078918,476
877.195984,472
877.313171,503
877.430237,471
877.547302,473
877.664368,478
877.781433,494
877.898499,491
878.015625,485
878.13269,482
878.249695,496
878.366821,481
878.483887,464
878.600952,483
878.717957,481
878.834961,468
878.952087,487
879.069092,464
879.186157,486
879.303162,475
879.420227,477
879.537231,492
879.654236,481
879.77124,450
879.888306,477
880.005249,484
880.122314,461
880.239319,469
880.356323,478
880.473328,463
880.590271,467
880.707275,458
880.824341,457
880.941284,463
881.058228,470
881.175232,462
881.292236,463
881.40918,473
881.526123,476
881.643066,473
881.760071,471
881.877014,474
881.993958,489
882.11084,477
882.227783,470
882.344727,471
882.46167,490
882.578613,460
882.695618,456
882.812439,472
882.929382,476
883.046326,467
883.163208,474
883.280151,467
883.397034,467
883.513916,480
883.630798,458
883.747742,490
883.864563,468
883.981506,470
884.098389,499
884.21521,485
884.332153,491
884.448975,487
884.565796,487
884.682678,521
884.7995,499
884.916443,508
885.033264,517
885.150085,517
885.266968,538
885.383789,534
885.500671,529
885.617493,534
885.734314,513
885.851196,510
885.967896,510
886.084717,521
886.201599,538
886.318359,501
886.435181,505
886.552002,539
886.668762,523
886.785645,514
886.902344,498
887.019165,514
887.135925,514
887.252747,512
887.369446,514
887.486267,493
887.603027,523
887.719788,507
887.836548,496
887.953247,499
888.070068,496
888.186829,464
888.303528,484
888.420288,465
888.536987,466
888.653687,467
888.770447,473
888.887146,460
889.003967,488
889.120667,460
889.237305,485
889.354065,479
889.470703,479
889.587463,465
889.704163,481
889.820862,461
889.937561,488
890.054199,462
890.170837,467
890.287598,460
890.404236,465
890.520874,467
890.637634,476
890.754211,443
890.87085,473
890.987549,465
891.104187,484
891.220886,480
891.337463,466
891.454102,456
891.57074,501
891.687378,470
891.804077,477
891.920654,473
892.037231,469
892.15387,471
892.270447,492
892.387085,454
892.503723,467
892.6203,476
892.736877,481
892.853516,462
892.970032,479
893.08667,472
893.203186,486
893.319763,455
893.43634,492
893.552917,445
893.669556,491
893.786011,464
893.902588,468
894.019165,479
894.135681,464
894.252197,464
894.368835,484
894.485291,484
894.601868,459
894.718384,480
894.8349,468
894.951355,467
895.067932,467
895.184448,475
895.300964,465
895.417419,471
895.533936,476
895.650452,465
895.766907,467
895.883423,472
895.999878,495
896.116333,457
896.232849,452
896.349304,469
896.465759,490
896.582214,484
896.698669,464
896.815125,464
896.931641,476
897.048035,450
897.164551,483
897.280884,457
897.397339,471
897.513794,488
897.630249,483
897.746582,468
897.863098,477
897.979431,476
898.095886,480
898.212341,470
898.328674,488
898.445129,506
898.561462,489
898.677795,468
898.794312,496
898.910645,490
899.026978,474
899.143433,492
899.259766,492
899.37616,477
899.492493,489
899.608765,495
899.725159,492
899.841553,471
899.957947,458
900.07428,497
900.190552,478
900.306946,478
900.423157,479
900.53949,465
900.655884,499
900.772156,491
900.888489,467
901.004822,463
901.121033,460
901.237366,463
901.353699,487
901.46991,485
901.586304,482
901.702515,473
901.818787,468
901.93512,497
902.051331,503
902.167603,505
902.283875,504
902.400085,499
902.516418,505
902.632629,506
902.74884,512
902.865112,514
902.981384,525
903.097595,508
903.213867,498
903.330017,517
903.446289,491
903.5625,510
903.67865,506
903.794922,502
903.911072,497
904.027344,498
904.143494,490
904.259705,481
904.375916,474
904.492065,480
904.608215,480
904.724426,471
904.840576,488
904.956726,489
905.072876,472
905.189087,490
905.305176,491
905.421387,483
905.537537,470
905.653687,459
905.769775,495
905.885925,469
906.002014,478
906.118164,488
906.234314,477
906.350403,490
906.466492,466
906.582642,480
906.69873,463
906.814758,465
906.930908,488
907.046936,470
907.163086,479
907.279175,475
907.395264,486
907.511353,486
907.62738,473
907.743408,470
907.859497,497
907.975525,460
908.091553,497
908.207703,461
908.32373,469
908.439758,465
908.555786,489
908.671814,462
908.787842,486
908.90387,471
909.019775,482
909.135864,468
909.251892,496
909.367859,465
909.483826,470
909.599854,473
909.715881,479
909.831848,479
909.947815,480
910.063782,481
910.179749,497
910.295776,483
910.411743,476
910.527649,474
910.643616,479
910.759583,457
910.875488,477
910.991455,454
911.107361,485
911.223267,469
911.339294,486
911.4552,481
911.571106,480
911.687073,496
911.802979,486
911.918823,488
912.034729,486
912.150635,464
912.266602,482
912.382446,476
912.498352,441
912.614197,460
912.730103,482
912.846008,458
792.44574,776
792.56488,795
792.68396,805
792.80304,793
792.92218,726
793.041199,732
793.160339,729
793.279419,742
793.398499,728
793.517578,697
793.636658,681
793.755737,692
793.874817,679
793.993896,690
794.112976,659
794.232056,672
794.351074,671
794.470215,645
794.589233,645
794.708313,659
794.827393,605
794.946411,641
795.065552,645
795.18457,616
795.303589,637
795.422668,616
795.541687,630
795.660767,599
795.779846,626
795.898865,614
796.017883,627
796.136963,616
796.255981,601
796.375061,603
796.49408,611
796.613037,584
796.732117,573
796.851135,574
796.970154,599
797.089233,592
797.208191,580
797.327271,582
797.446228,575
797.565186,583
797.684265,567
797.803223,557
797.922241,566
798.04126,566
798.160278,572
798.279297,569
798.398315,569
798.517273,574
798.636292,554
798.75531,572
798.874268,570
798.993286,558
799.112244,550
799.231323,572
799.350281,574
799.469238,552
799.588257,584
799.707153,556
799.826111,556
799.945129,547
800.064087,550
800.183044,545
800.302063,545
800.421021,548
800.539978,558
800.658936,548
800.777893,554
800.896912,557
801.015747,542
801.134705,543
801.253723,543
801.37262,523
801.491638,535
801.610535,538
801.729492,549
801.84845,548
801.967407,546
802.086243,554
802.205261,537
802.324158,519
802.443115,527
802.562073,534
802.680969,552
802.799927,526
802.918762,549
803.037659,531
803.156677,533
803.275574,545
803.39447,528
803.513428,536
803.632263,543
803.751221,553
803.870117,545
803.989014,559
804.107971,545
804.226746,544
804.345642,555
804.4646,532
804.583496,530
804.702393,534
804.821228,536
804.940125,525
805.059021,531
805.177917,540
805.296814,536
805.415649,518
805.534546,530
805.653442,546
805.772278,531
805.891113,520
806.01001,551
806.128906,528
806.247742,520
806.366577,530
806.485413,536
806.604309,503
806.723145,546
806.84198,508
806.960876,518
807.079712,528
807.198486,528
807.317383,499
807.436218,512
807.554993,508
807.673889,520
807.792725,520
807.91156,552
808.030396,482
808.14917,521
808.268005,528
808.386841,528
808.505676,537
808.624451,516
808.743286,515
808.862122,538
808.980896,533
809.099731,526
809.218506,509
809.337341,549
809.456116,529
809.57489,526
809.693726,519
809.8125,554
809.931274,534
810.050049,516
810.168884,524
810.287659,533
810.406372,533
810.525269,512
810.643982,529
810.762756,530
810.881531,521
811.000305,540
811.11908,536
811.237854,527
811.356567,542
811.475403,522
811.594116,522
811.71283,522
811.831604,551
811.950378,529
812.069153,535
812.187927,532
812.30658,535
812.425415,521
812.544128,515
812.662781,547
812.781616,524
812.900269,526
813.019043,540
813.137756,549
813.256531,533
813.375244,534
813.493896,513
813.612671,529
813.731384,526
813.850037,524
813.96875,526
814.087524,522
814.206238,517
814.324951,517
814.443604,534
814.562256,541
814.68103,534
814.799683,506
814.918335,527
815.037109,529
815.155762,504
815.274475,538
815.393188,527
815.511841,531
815.630554,519
815.749146,513
815.867859,506
815.986572,504
816.105164,490
816.223877,532
816.342529,510
816.461182,528
816.579895,507
816.698486,509
816.817139,502
816.935791,517
817.054504,519
817.173096,535
817.291748,521
817.4104,525
817.529053,524
817.647644,499
817.766235,505
817.884949,519
818.00354,500
818.122192,522
818.240845,491
818.359436,508
818.478088,505
818.59668,501
818.715271,487
818.833923,495
818.952515,482
819.071106,478
819.189758,495
819.30835,486
819.426941,475
819.545532,494
819.664124,470
819.782715,482
819.901306,486
820.019897,480
820.138489,477
820.25708,505
820.375671,488
820.494202,487
820.612732,474
820.731384,486
820.849915,473
820.968506,490
821.087097,479
821.205627,507
821.324158,486
821.442749,478
821.561279,483
821.679871,476
821.798401,485
821.916931,484
822.035461,456
822.154053,468
822.272583,469
822.391174,479
822.509583,485
822.628174,473
822.746704,478
822.865234,479
822.983765,477
823.102295,478
823.220825,467
823.339294,473
823.457825,451
823.576355,470
823.694824,483
823.813354,482
823.931885,484
824.050354,459
824.168884,490
824.287354,496
824.405823,485
824.524353,481
824.642822,470
824.761353,491
824.879822,470
824.998291,468
825.116699,475
825.235291,461
825.353699,484
825.472168,477
825.590637,487
825.709106,480
825.827576,474
825.946045,478
826.064453,492
826.182983,470
826.301392,501
826.4198,493
826.53833,460
826.656738,484
826.775208,461
826.893677,497
827.012024,451
827.130493,466
827.248962,478
827.36731,474
827.485779,455
827.604248,458
827.722595,459
827.841064,474
827.959412,462
828.077942,469
828.196289,490
828.314636,465
828.433105,474
828.551514,460
828.669861,453
828.78833,473
828.906677,449
829.025085,462
829.143433,472
829.261841,472
829.38031,440
829.498657,480
829.617004,478
829.735413,461
829.85376,443
829.972107,457
830.090515,459
830.208862,486
830.327209,452
830.445557,449
830.563904,474
830.682312,487
830.800659,473
830.919006,461
831.037354,474
831.155701,476
831.274048,459
831.392395,475
831.51062,466
831.629028,463
831.747314,458
831.865662,491
831.984009,471
832.102356,464
832.220642,448
832.338928,483
832.457275,492
832.575623,495
832.693909,474
832.812134,472
832.930481,471
833.048828,485
833.167114,480
833.2854,474
833.403687,451
833.521973,484
833.640259,448
833.758545,485
833.876831,458
833.995056,476
834.113281,458
834.231628,477
834.349915,449
834.468201,467
834.586426,456
834.704651,494
834.822998,465
834.941162,483
835.059448,468
835.177673,484
835.295959,469
835.414246,471
835.53241,472
835.650635,477
835.768921,445
835.887146,472
836.005371,484
836.123596,481
836.241821,459
836.360046,477
836.478271,469
836.596497,470
836.714722,487
836.832886,464
836.95105,471
837.069336,482
837.1875,474
837.305725,475
837.423889,475
837.542053,492
837.660339,482
837.778503,476
837.896667,482
838.014832,456
838.132996,457
838.25116,482
838.369385,457
838.487488,472
838.605713,455
838.723877,476
838.84198,459
838.960205,477
839.078308,467
839.196472,478
839.314636,474
839.4328,498
839.550964,459
839.669067,486
839.787231,483
839.905396,502
840.023499,470
840.141602,479
840.259766,475
840.377869,494
840.495972,484
840.614136,484
840.732239,468
840.850342,481
840.968445,468
841.086548,475
841.204651,496
841.322754,471
841.440918,481
841.55896,514
841.677002,481
841.795166,494
841.913208,486
842.031311,484
842.149353,489
842.267456,489
842.385498,504
842.503601,477
842.621643,484
842.739746,474
842.857788,485
842.97583,478
843.093933,465
843.211975,487
843.330017,476
843.44812,488
843.566101,489
843.684204,484
843.802246,474
843.920227,486
844.038269,479
844.156311,473
844.274292,489
844.392395,489
844.510376,499
844.628357,461
844.74646,477
844.864441,480
844.982422,458
845.100403,482
845.218384,486
845.336426,480
845.454468,469
845.572449,474
845.69043,463
845.808411,484
845.926453,461
846.044373,470
846.162354,449
846.280396,487
846.398315,472
846.516296,472
846.634216,489
846.752197,507
846.870178,472
846.988098,465
847.106079,482
847.22406,474
847.34198,466
847.4599,499
847.577881,468
847.695801,466
847.813782,497
847.931641,486
848.049561,470
848.167603,495
848.285461,473
848.403381,481
848.521362,499
848.639221,474
848.75708,500
848.875,497
848.99292,492
849.110901,486
849.22876,474
849.34668,489
849.464539,479
849.582458,493
849.700317,489
849.818176,497
849.936096,457
850.053955,495
850.171875,496
850.289673,506
850.407593,493
850.525452,489
850.643311,466
850.761169,484
850.878967,495
850.996887,469
851.114746,489
851.232544,518
851.350403,473
851.468262,482
851.58606,469
851.703979,453
851.821777,495
851.939636,489
852.057434,474
852.175232,491
852.293091,461
852.410889,487
852.528687,507
852.646545,492
852.764343,489
852.88208,514
852.999939,490
853.117676,485
853.235535,480
853.353271,469
853.471069,468
853.588928,466
853.706604,481
853.824402,495
853.9422,468
854.059998,494
854.177734,482
854.295532,482
854.413269,489
854.531006,472
854.648804,478
854.766541,480
854.884277,464
855.002014,482
855.119751,482
855.237549,493
855.355225,467
855.473022,491
855.590698,497
855.708435,484
855.826172,487
855.943848,464
856.061646,480
856.179321,496
856.296997,494
856.414795,497
856.53241,503
856.650085,480
856.767822,479
856.885559,492
857.003174,493
857.120911,486
857.238586,485
857.356201,503
857.473938,475
857.591614,500
857.709351,503
857.826965,481
857.944641,487
858.062317,492
858.179993,488
858.297668,474
858.415283,482
858.532959,489
858.650574,503
858.768188,501
858.885803,486
859.003479,477
859.121094,477
859.23877,485
859.356384,466
859.473999,504
859.591675,486
859.709229,473
859.826843,455
859.944458,487
860.062012,480
860.179626,483
860.297302,488
860.414856,475
860.532471,460
860.650024,507
860.767639,470
860.885193,494
861.002808,469
861.120361,499
861.237976,475
861.35553,471
861.473022,449
861.590698,470
861.708191,475
861.825745,490
861.943298,479
862.060852,489
862.178406,480
862.295959,455
862.413513,501
862.531006,470
862.64856,462
862.766113,484
862.883667,483
863.00116,468
863.118713,465
863.236206,488
863.353699,469
863.471252,466
863.588745,462
863.706177,490
863.82373,501
863.941162,483
864.058716,496
864.176208,462
864.29364,462
864.411194,476
864.528687,485
864.646118,480
864.763611,469
864.881042,467
864.998535,476
865.116028,498
865.233459,469
865.350891,486
865.468384,451
865.585754,462
865.703308,459
865.820679,491
865.938171,469
866.055542,468
866.173035,456
866.290466,482
866.407837,475
866.52533,479
866.6427,481
866.760071,471
866.877563,470
866.994934,473
867.112305,454
867.229736,477
867.347107,470
867.464539,488
867.58197,484
867.699341,477
867.81665,470
867.934082,484
868.051453,454
868.168823,469
868.286194,480
868.403564,480
868.520935,493
868.638306,475
868.755676,474
868.872986,462
868.990295,475
869.107727,494
869.225037,477
869.342346,463
869.459717,481
869.577026,480
869.694336,479
869.811707,468
869.929016,482
870.046326,488
870.163635,485
870.280945,481
870.398254,502
870.515564,491
870.632812,472
870.750183,500
870.867432,497
870.984741,478
871.102051,469
871.219299,507
871.336609,498
871.453918,506
871.571106,521
871.688416,507
871.805664,506
871.922852,494
872.040222,491
872.157471,516
872.274719,496
872.391968,508
872.509155,493
872.626465,495
872.743652,491
872.860962,486
872.978149,483
873.095337,496
873.212646,470
873.329834,483
873.44696,508
873.564209,487
873.681396,484
873.798645,495
873.915894,477
874.03302,497
874.150208,508
874.267456,480
874.384583,504
874.501831,490
874.618958,501
874.736145,514
874.853333,494
874.970459,493
875.087646,497
875.204834,499
875.32196,496
875.439148,520
875.556274,487
875.673401,499
875.790527,487
875.907715,492
876.024841,470
876.141968,494
876.259094,478
876.376282,492
876.493347,492
876.610474,493
876.7276,480
876.844727,497
876.961853,480
877.078918,492
877.195984,509
877.313171,495
877.430237,479
877.547302,479
877.664368,491
877.781433,498
877.898499,462
878.015625,469
878.13269,473
878.249695,472
878.366821,475
878.483887,495
878.600952,474
878.717957,486
878.834961,482
878.952087,459
879.069092,478
879.186157,465
879.303162,493
879.420227,490
879.537231,461
879.654236,468
879.77124,474
879.888306,467
880.005249,456
880.122314,466
880.239319,465
880.356323,484
880.473328,454
880.590271,486
880.707275,473
880.824341,464
880.941284,463
881.058228,468
881.175232,468
881.292236,476
881.40918,467
881.526123,461
881.643066,477
881.760071,471
881.877014,457
881.993958,476
882.11084,462
882.227783,471
882.344727,465
882.46167,481
882.578613,475
882.695618,458
882.812439,484
882.929382,478
883.046326,478
883.163208,473
883.280151,471
883.397034,463
883.513916,463
883.630798,488
883.747742,466
883.864563,481
883.981506,478
884.098389,500
884.21521,487
884.332153,484
884.448975,477
884.565796,494
884.682678,485
884.7995,496
884.916443,508
885.033264,513
885.150085,531
885.266968,531
885.383789,528
885.500671,521
885.617493,550
885.734314,540
885.851196,506
885.967896,530
886.084717,524
886.201599,539
886.318359,506
886.435181,510
886.552002,501
886.668762,535
886.785645,498
886.902344,501
887.019165,494
887.135925,499
887.252747,505
887.369446,526
887.486267,495
887.603027,507
887.719788,512
887.836548,483
887.953247,492
888.070068,500
888.186829,461
888.303528,482
888.420288,468
888.536987,476
888.653687,490
888.770447,476
888.887146,455
889.003967,472
889.120667,464
889.237305,453
889.354065,470
889.470703,481
889.587463,471
889.704163,489
889.820862,453
889.937561,473
890.054199,464
890.170837,463
890.287598,477
890.404236,485
890.520874,461
890.637634,474
890.754211,486
890.87085,469
890.987549,477
891.104187,487
891.220886,490
891.337463,450
891.454102,461
891.57074,478
891.687378,466
891.804077,489
891.920654,475
892.037231,478
892.15387,475
892.270447,497
892.387085,468
892.503723,469
892.6203,455
892.736877,462
892.853516,482
892.970032,465
893.08667,477
893.203186,471
893.319763,478
893.43634,477
893.552917,456
893.669556,492
893.786011,472
893.902588,470
894.019165,470
894.135681,473
894.252197,460
894.368835,447
894.485291,455
894.601868,473
894.718384,482
894.8349,464
894.951355,474
895.067932,466
895.184448,471
895.300964,464
895.417419,470
895.533936,491
895.650452,467
895.766907,467
895.883423,486
895.999878,488
896.116333,467
896.232849,485
896.349304,480
896.465759,471
896.582214,458
896.698669,468
896.815125,463
896.931641,493
897.048035,467
897.164551,492
897.280884,456
897.397339,476
897.513794,477
897.630249,475
897.746582,472
897.863098,469
897.979431,462
898.095886,487
898.212341,456
898.328674,487
898.445129,459
898.561462,456
898.677795,486
898.794312,487
898.910645,474
899.026978,488
899.143433,481
899.259766,481
899.37616,474
899.492493,488
899.608765,450
899.725159,478
899.841553,477
899.957947,480
900.07428,474
900.190552,491
900.306946,475
900.423157,475
900.53949,483
900.655884,477
900.772156,474
900.888489,472
901.004822,491
901.121033,484
901.237366,462
901.353699,498
901.46991,475
901.586304,492
901.702515,487
901.818787,481
901.93512,487
902.051331,503
902.167603,470
902.283875,481
902.400085,497
902.516418,509
902.632629,481
902.74884,511
902.865112,493
902.981384,517
903.097595,514
903.213867,517
903.330017,513
903.446289,490
903.5625,504
903.67865,490
903.794922,487
903.911072,507
904.027344,480
904.143494,484
904.259705,497
904.375916,480
904.492065,484
904.608215,469
904.724426,490
904.840576,505
904.956726,479
905.072876,492
905.189087,482
905.305176,497
905.421387,471
905.537537,488
905.653687,479
905.769775,481
905.885925,482
906.002014,483
906.118164,460
906.234314,474
906.350403,491
906.466492,461
906.582642,469
906.69873,495
906.814758,484
906.930908,474
907.046936,464
907.163086,463
907.279175,467
907.395264,492
907.511353,473
907.62738,485
907.743408,474
907.859497,472
907.975525,472
908.091553,466
908.207703,504
908.32373,483
908.439758,475
908.555786,464
908.671814,497
908.787842,477
908.90387,474
909.019775,476
909.135864,460
909.251892,460
909.367859,500
909.483826,462
909.599854,482
909.715881,496
909.831848,493
909.947815,452
910.063782,471
910.179749,474
910.295776,491
910.411743,462
910.527649,477
910.643616,473
910.759583,486
910.875488,491
910.991455,459
911.107361,487
911.223267,459
911.339294,486
911.4552,467
911.571106,479
911.687073,463
911.802979,476
911.918823,479
912.034729,491
912.150635,486
912.266602,479
912.382446,486
912.498352,492
912.614197,478
912.730103,497
912.846008,473
