792.44574,714
792.56488,772
792.68396,782
792.80304,753
792.92218,730
793.041199,673
793.160339,671
793.279419,682
793.398499,678
793.517578,642
793.636658,662
793.755737,670
793.874817,656
793.993896,653
794.112976,643
794.232056,648
794.351074,650
794.470215,663
794.589233,621
794.708313,633
794.827393,620
794.946411,605
795.065552,615
795.18457,601
795.303589,600
795.422668,593
795.541687,613
795.660767,586
795.779846,591
795.898865,596
796.017883,595
796.136963,589
796.255981,606
796.375061,585
796.49408,593
796.613037,581
796.732117,585
796.851135,590
796.970154,567
797.089233,582
797.208191,568
797.327271,582
797.446228,554
797.565186,562
797.684265,565
797.803223,566
797.922241,526
798.04126,552
798.160278,565
798.279297,562
798.398315,569
798.517273,545
798.636292,555
798.75531,558
798.874268,556
798.993286,554
799.112244,569
799.231323,545
799.350281,576
799.469238,558
799.588257,554
799.707153,562
799.826111,549
799.945129,528
800.064087,548
800.183044,542
800.302063,556
800.421021,551
800.539978,553
800.658936,549
800.777893,550
800.896912,551
801.015747,544
801.134705,557
801.253723,545
801.37262,561
801.491638,538
801.610535,521
801.729492,539
801.84845,558
801.967407,531
802.086243,533
802.205261,538
802.324158,546
802.443115,557
802.562073,523
802.680969,540
802.799927,534
802.918762,528
803.037659,520
803.156677,540
803.275574,519
803.39447,513
803.513428,560
803.632263,535
803.751221,538
803.870117,555
803.989014,520
804.107971,507
804.226746,528
804.345642,530
804.4646,522
804.583496,529
804.702393,509
804.821228,529
804.940125,523
805.059021,541
805.177917,515
805.296814,535
805.415649,542
805.534546,547
805.653442,520
805.772278,536
805.891113,517
806.01001,546
806.128906,503
806.247742,540
806.366577,513
806.485413,531
806.604309,527
806.723145,554
806.84198,509
806.960876,507
807.079712,522
807.198486,511
807.317383,537
807.436218,535
807.554993,539
807.673889,561
807.792725,516
807.91156,526
808.030396,528
808.14917,543
808.268005,509
808.386841,500
808.505676,521
808.624451,533
808.743286,514
808.862122,521
808.980896,517
809.099731,500
809.218506,527
809.337341,535
809.456116,527
809.57489,517
809.693726,518
809.8125,521
809.931274,527
810.050049,514
810.168884,532
810.287659,511
810.406372,511
810.525269,529
810.643982,512
810.762756,522
810.881531,527
811.000305,513
811.11908,521
811.237854,531
811.356567,506
811.475403,526
811.594116,528
811.71283,514
811.831604,525
811.950378,528
812.069153,520
812.187927,494
812.30658,515
812.425415,538
812.544128,520
812.662781,526
812.781616,509
812.900269,533
813.019043,520
813.137756,523
813.256531,524
813.375244,539
813.493896,504
813.612671,501
813.731384,511
813.850037,524
813.96875,544
814.087524,517
814.206238,499
814.324951,527
814.443604,506
814.562256,513
814.68103,534
814.799683,520
814.918335,512
815.037109,509
815.155762,535
815.274475,525
815.393188,514
815.511841,505
815.630554,507
815.749146,514
815.867859,503
815.986572,507
816.105164,502
816.223877,504
816.342529,502
816.461182,514
816.579895,500
816.698486,503
816.817139,526
816.935791,520
817.054504,510
817.173096,526
817.291748,518
817.4104,506
817.529053,498
817.647644,523
817.766235,495
817.884949,485
818.00354,492
818.122192,498
818.240845,484
818.359436,501
818.478088,496
818.59668,518
818.715271,491
818.833923,485
818.952515,493
819.071106,488
819.189758,499
819.30835,498
819.426941,482
819.545532,488
819.664124,489
819.782715,486
819.901306,493
820.019897,484
820.138489,486
820.25708,494
820.375671,456
820.494202,508
820.612732,483
820.731384,466
820.849915,473
820.968506,493
821.087097,509
821.205627,500
821.324158,471
821.442749,480
821.561279,486
821.679871,472
821.798401,478
821.916931,493
822.035461,483
822.154053,462
822.272583,467
822.391174,487
822.509583,498
822.628174,472
822.746704,470
822.865234,462
822.983765,476
823.102295,484
823.220825,496
823.339294,471
823.457825,466
823.576355,460
823.694824,467
823.813354,501
823.931885,483
824.050354,479
824.168884,488
824.287354,487
824.405823,474
824.524353,488
824.642822,469
824.761353,479
824.879822,484
824.998291,480
825.116699,466
825.235291,497
825.353699,474
825.472168,480
825.590637,479
825.709106,481
825.827576,467
825.946045,472
826.064453,463
826.182983,468
826.301392,477
826.4198,495
826.53833,468
826.656738,463
826.775208,461
826.893677,481
827.012024,474
827.130493,459
827.248962,489
827.36731,465
827.485779,486
827.604248,482
827.722595,470
827.841064,463
827.959412,459
828.077942,466
828.196289,464
828.314636,456
828.433105,466
828.551514,472
828.669861,454
828.78833,463
828.906677,462
829.025085,480
829.143433,460
829.261841,465
829.38031,460
829.498657,460
829.617004,461
829.735413,449
829.85376,465
829.972107,477
830.090515,471
830.208862,458
830.327209,470
830.445557,476
830.563904,443
830.682312,474
830.800659,457
830.919006,442
831.037354,463
831.155701,471
831.274048,470
831.392395,442
831.51062,460
831.629028,451
831.747314,461
831.865662,473
831.984009,459
832.102356,452
832.220642,482
832.338928,486
832.457275,475
832.575623,458
832.693909,461
832.812134,457
832.930481,471
833.048828,444
833.167114,459
833.2854,487
833.403687,482
833.521973,449
833.640259,445
833.758545,503
833.876831,454
833.995056,468
834.113281,474
834.231628,478
834.349915,454
834.468201,472
834.586426,460
834.704651,471
834.822998,463
834.941162,486
835.059448,464
835.177673,467
835.295959,460
835.414246,476
835.53241,465
835.650635,485
835.768921,450
835.887146,480
836.005371,471
836.123596,457
836.241821,465
836.360046,469
836.478271,462
836.596497,464
836.714722,467
836.832886,464
836.95105,460
837.069336,480
837.1875,473
837.305725,452
837.423889,466
837.542053,477
837.660339,468
837.778503,488
837.896667,477
838.014832,482
838.132996,478
838.25116,456
838.369385,489
838.487488,450
838.605713,460
838.723877,469
838.84198,467
838.960205,465
839.078308,477
839.196472,488
839.314636,475
839.4328,468
839.550964,478
839.669067,469
839.787231,463
839.905396,488
840.023499,472
840.141602,482
840.259766,466
840.377869,487
840.495972,471
840.614136,480
840.732239,467
840.850342,489
840.968445,468
841.086548,486
841.204651,486
841.322754,488
841.440918,485
841.55896,480
841.677002,497
841.795166,484
841.913208,480
842.031311,496
842.149353,475
842.267456,490
842.385498,480
842.503601,472
842.621643,468
842.739746,481
842.857788,487
842.97583,500
843.093933,503
843.211975,494
843.330017,494
843.44812,478
843.566101,466
843.684204,479
843.802246,483
843.920227,497
844.038269,467
844.156311,487
844.274292,477
844.392395,490
844.510376,468
844.628357,476
844.74646,467
844.864441,478
844.982422,448
845.100403,493
845.218384,448
845.336426,477
845.454468,478
845.572449,459
845.69043,473
845.808411,486
845.926453,487
846.044373,481
846.162354,460
846.280396,488
846.398315,484
846.516296,475
846.634216,477
846.752197,495
846.870178,479
846.988098,511
847.106079,467
847.22406,482
847.34198,472
847.4599,493
847.577881,475
847.695801,478
847.813782,488
847.931641,482
848.049561,471
848.167603,486
848.285461,459
848.403381,477
848.521362,472
848.639221,478
848.75708,476
848.875,488
848.99292,481
849.110901,493
849.22876,473
849.34668,482
849.464539,475
849.582458,482
849.700317,496
849.818176,496
849.936096,476
850.053955,496
850.171875,493
850.289673,485
850.407593,490
850.525452,468
850.643311,480
850.761169,478
850.878967,478
850.996887,484
851.114746,509
851.232544,505
851.350403,483
851.468262,473
851.58606,475
851.703979,501
851.821777,465
851.939636,477
852.057434,473
852.175232,468
852.293091,486
852.410889,486
852.528687,489
852.646545,513
852.764343,489
852.88208,496
852.999939,479
853.117676,492
853.235535,486
853.353271,476
853.471069,488
853.588928,467
853.706604,494
853.824402,468
853.9422,465
854.059998,472
854.177734,469
854.295532,481
854.413269,465
854.531006,487
854.648804,472
854.766541,458
854.884277,485
855.002014,463
855.119751,478
855.237549,464
855.355225,462
855.473022,494
855.590698,472
855.708435,480
855.826172,473
855.943848,476
856.061646,470
856.179321,478
856.296997,481
856.414795,465
856.53241,478
856.650085,499
856.767822,489
856.885559,481
857.003174,484
857.120911,493
857.238586,466
857.356201,503
857.473938,482
857.591614,478
857.709351,464
857.826965,482
857.944641,487
858.062317,499
858.179993,498
858.297668,499
858.415283,459
858.532959,504
858.650574,467
858.768188,484
858.885803,484
859.003479,461
859.121094,489
859.23877,473
859.356384,466
859.473999,480
859.591675,478
859.709229,483
859.826843,468
859.944458,490
860.062012,481
860.179626,472
860.297302,479
860.414856,471
860.532471,478
860.650024,476
860.767639,458
860.885193,488
861.002808,506
861.120361,491
861.237976,481
861.35553,484
861.473022,476
861.590698,476
861.708191,481
861.825745,484
861.943298,486
862.060852,498
862.178406,473
862.295959,458
862.413513,480
862.531006,492
862.64856,455
862.766113,463
862.883667,456
863.00116,477
863.118713,455
863.236206,476
863.353699,458
863.471252,477
863.588745,473
863.706177,470
863.82373,467
863.941162,477
864.058716,470
864.176208,446
864.29364,442
864.411194,475
864.528687,458
864.646118,480
864.763611,467
864.881042,461
864.998535,467
865.116028,485
865.233459,473
865.350891,465
865.468384,453
865.585754,463
865.703308,467
865.820679,488
865.938171,438
866.055542,459
866.173035,466
866.290466,485
866.407837,462
866.52533,486
866.6427,476
866.760071,457
866.877563,473
866.994934,474
867.112305,461
867.229736,476
867.347107,443
867.464539,474
867.58197,496
867.699341,500
867.81665,451
867.934082,487
868.051453,471
868.168823,487
868.286194,458
868.403564,474
868.520935,454
868.638306,479
868.755676,476
868.872986,453
868.990295,476
869.107727,464
869.225037,483
869.342346,465
869.459717,489
869.577026,481
869.694336,474
869.811707,473
869.929016,493
870.046326,481
870.163635,475
870.280945,485
870.398254,491
870.515564,472
870.632812,482
870.750183,488
870.867432,492
870.984741,515
871.102051,482
871.219299,484
871.336609,488
871.453918,478
871.571106,492
871.688416,492
871.805664,507
871.922852,488
872.040222,502
872.157471,497
872.274719,491
872.391968,504
872.509155,496
872.626465,486
872.743652,470
872.860962,486
872.978149,482
873.095337,491
873.212646,492
873.329834,486
873.44696,472
873.564209,496
873.681396,465
873.798645,488
873.915894,474
874.03302,490
874.150208,480
874.267456,479
874.384583,480
874.501831,491
874.618958,488
874.736145,486
874.853333,513
874.970459,480
875.087646,495
875.204834,507
875.32196,484
875.439148,514
875.556274,483
875.673401,487
875.790527,478
875.907715,476
876.024841,469
876.141968,484
876.259094,468
876.376282,477
876.493347,463
876.610474,495
876.7276,470
876.844727,478
876.961853,483
877.078918,471
877.195984,475
877.313171,484
877.430237,466
877.547302,493
877.664368,468
877.781433,472
877.898499,480
878.015625,493
878.13269,489
878.249695,473
878.366821,483
878.483887,482
878.600952,474
878.717957,485
878.834961,465
878.952087,485
879.069092,447
879.186157,456
879.303162,472
879.420227,463
879.537231,463
879.654236,480
879.77124,471
879.888306,471
880.005249,461
880.122314,477
880.239319,462
880.356323,467
880.473328,476
880.590271,460
880.707275,454
880.824341,473
880.941284,464
881.058228,503
881.175232,483
881.292236,475
881.40918,458
881.526123,478
881.643066,464
881.760071,477
881.877014,493
881.993958,468
882.11084,468
882.227783,477
882.344727,471
882.46167,464
882.578613,463
882.695618,486
882.812439,464
882.929382,477
883.046326,467
883.163208,467
883.280151,460
883.397034,468
883.513916,470
883.630798,459
883.747742,495
883.864563,483
883.981506,474
884.098389,465
884.21521,478
884.332153,485
884.448975,479
884.565796,475
884.682678,495
884.7995,501
884.916443,492
885.033264,526
885.150085,513
885.266968,529
885.383789,488
885.500671,547
885.617493,541
885.734314,525
885.851196,494
885.967896,515
886.084717,509
886.201599,515
886.318359,488
886.435181,514
886.552002,516
886.668762,500
886.785645,482
886.902344,514
887.019165,483
887.135925,470
887.252747,510
887.369446,506
887.486267,500
887.603027,499
887.719788,491
887.836548,479
887.953247,487
888.070068,466
888.186829,471
888.303528,473
888.420288,474
888.536987,484
888.653687,460
888.770447,484
888.887146,466
889.003967,460
889.120667,468
889.237305,457
889.354065,460
889.470703,472
889.587463,471
889.704163,460
889.820862,478
889.937561,471
890.054199,465
890.170837,485
890.287598,456
890.404236,471
890.520874,458
890.637634,477
890.754211,452
890.87085,463
890.987549,460
891.104187,478
891.220886,467
891.337463,467
891.454102,469
891.57074,458
891.687378,477
891.804077,464
891.920654,466
892.037231,455
892.15387,457
892.270447,458
892.387085,474
892.503723,473
892.6203,458
892.736877,473
892.853516,464
892.970032,483
893.08667,470
893.203186,476
893.319763,457
893.43634,483
893.552917,458
893.669556,486
893.786011,455
893.902588,471
894.019165,470
894.135681,471
894.252197,460
894.368835,472
894.485291,453
894.601868,478
894.718384,471
894.8349,477
894.951355,460
895.067932,489
895.184448,460
895.300964,485
895.417419,459
895.533936,467
895.650452,464
895.766907,465
895.883423,459
895.999878,463
896.116333,462
896.232849,490
896.349304,474
896.465759,477
896.582214,460
896.698669,464
896.815125,484
896.931641,472
897.048035,468
897.164551,484
897.280884,468
897.397339,464
897.513794,476
897.630249,470
897.746582,472
897.863098,472
897.979431,454
898.095886,476
898.212341,464
898.328674,478
898.445129,469
898.561462,472
898.677795,467
898.794312,458
898.910645,444
899.026978,494
899.143433,468
899.259766,469
899.37616,462
899.492493,477
899.608765,445
899.725159,469
899.841553,471
899.957947,470
900.07428,482
900.190552,477
900.306946,490
900.423157,487
900.53949,467
900.655884,468
900.772156,468
900.888489,483
901.004822,479
901.121033,479
901.237366,488
901.353699,479
901.46991,498
901.586304,471
901.702515,477
901.818787,482
901.93512,495
902.051331,490
902.167603,494
902.283875,495
902.400085,482
902.516418,490
902.632629,478
902.74884,502
902.865112,479
902.981384,479
903.097595,484
903.213867,508
903.330017,492
903.446289,487
903.5625,493
903.67865,495
903.794922,476
903.911072,496
904.027344,504
904.143494,510
904.259705,483
904.375916,477
904.492065,456
904.608215,465
904.724426,486
904.840576,479
904.956726,506
905.072876,479
905.189087,490
905.305176,484
905.421387,471
905.537537,486
905.653687,468
905.769775,480
905.885925,458
906.002014,481
906.118164,458
906.234314,486
906.350403,476
906.466492,476
906.582642,482
906.69873,473
906.814758,464
906.930908,478
907.046936,478
907.163086,492
907.279175,472
907.395264,454
907.511353,461
907.62738,485
907.743408,465
907.859497,477
907.975525,489
908.091553,471
908.207703,474
908.32373,475
908.439758,474
908.555786,473
908.671814,464
908.787842,459
908.90387,470
909.019775,478
909.135864,451
909.251892,487
909.367859,467
909.483826,459
909.599854,456
909.715881,476
909.831848,472
909.947815,495
910.063782,486
910.179749,466
910.295776,460
910.411743,475
910.527649,470
910.643616,478
910.759583,470
910.875488,485
910.991455,463
911.107361,471
911.223267,466
911.339294,474
911.4552,471
911.571106,473
911.687073,476
911.802979,471
911.918823,469
912.034729,472
912.150635,475
912.266602,481
912.382446,466
912.498352,489
912.614197,469
912.730103,478
912.846008,452
792.44574,765
792.56488,745
792.68396,801
792.80304,780
792.92218,722
793.041199,681
793.160339,686
793.279419,696
793.398499,686
793.517578,664
793.636658,646
793.755737,672
793.874817,686
793.993896,670
794.112976,657
794.232056,625
794.351074,632
794.470215,638
794.589233,621
794.708313,633
794.827393,616
794.946411,635
795.065552,618
795.18457,614
795.303589,607
795.422668,614
795.541687,600
795.660767,584
795.779846,584
795.898865,586
796.017883,614
796.136963,606
796.255981,596
796.375061,589
796.49408,609
796.613037,584
796.732117,583
796.851135,560
796.970154,577
797.089233,562
797.208191,586
797.327271,580
797.446228,568
797.565186,564
797.684265,581
797.803223,563
797.922241,556
798.04126,571
798.160278,565
798.279297,575
798.398315,554
798.517273,564
798.636292,544
798.75531,567
798.874268,544
798.993286,565
799.112244,562
799.231323,586
799.350281,549
799.469238,550
799.588257,524
799.707153,549
799.826111,547
799.945129,564
800.064087,566
800.183044,556
800.302063,542
800.421021,550
800.539978,540
800.658936,551
800.777893,559
800.896912,536
801.015747,554
801.134705,544
801.253723,556
801.37262,547
801.491638,536
801.610535,554
801.729492,530
801.84845,536
801.967407,526
802.086243,533
802.205261,543
802.324158,527
802.443115,544
802.562073,531
802.680969,542
802.799927,563
802.918762,539
803.037659,535
803.156677,525
803.275574,533
803.39447,531
803.513428,542
803.632263,530
803.751221,522
803.870117,534
803.989014,538
804.107971,529
804.226746,543
804.345642,505
804.4646,532
804.583496,530
804.702393,520
804.821228,509
804.940125,526
805.059021,510
805.177917,521
805.296814,529
805.415649,543
805.534546,547
805.653442,515
805.772278,541
805.891113,531
806.01001,516
806.128906,540
806.247742,536
806.366577,515
806.485413,515
806.604309,505
806.723145,517
806.84198,520
806.960876,528
807.079712,533
807.198486,510
807.317383,510
807.436218,517
807.554993,528
807.673889,529
807.792725,536
807.91156,495
808.030396,528
808.14917,524
808.268005,518
808.386841,511
808.505676,525
808.624451,529
808.743286,505
808.862122,520
808.980896,527
809.099731,534
809.218506,535
809.337341,525
809.456116,525
809.57489,533
809.693726,505
809.8125,516
809.931274,541
810.050049,509
810.168884,524
810.287659,502
810.406372,512
810.525269,550
810.643982,522
810.762756,513
810.881531,519
811.000305,523
811.11908,525
811.237854,527
811.356567,512
811.475403,539
811.594116,538
811.71283,541
811.831604,537
811.950378,521
812.069153,538
812.187927,525
812.30658,498
812.425415,532
812.544128,545
812.662781,512
812.781616,517
812.900269,511
813.019043,516
813.137756,531
813.256531,516
813.375244,506
813.493896,528
813.612671,532
813.731384,535
813.850037,527
813.96875,539
814.087524,523
814.206238,511
814.324951,507
814.443604,517
814.562256,479
814.68103,547
814.799683,518
814.918335,538
815.037109,542
815.155762,506
815.274475,504
815.393188,506
815.511841,518
815.630554,524
815.749146,530
815.867859,499
815.986572,514
816.105164,542
816.223877,497
816.342529,497
816.461182,513
816.579895,524
816.698486,496
816.817139,524
816.935791,494
817.054504,521
817.173096,514
817.291748,519
817.4104,511
817.529053,531
817.647644,522
817.766235,505
817.884949,501
818.00354,511
818.122192,513
818.240845,501
818.359436,502
818.478088,525
818.59668,496
818.715271,499
818.833923,505
818.952515,500
819.071106,489
819.189758,500
819.30835,491
819.426941,490
819.545532,491
819.664124,482
819.782715,483
819.901306,488
820.019897,489
820.138489,477
820.25708,494
820.375671,495
820.494202,492
820.612732,484
820.731384,478
820.849915,490
820.968506,496
821.087097,480
821.205627,503
821.324158,476
821.442749,495
821.561279,496
821.679871,503
821.798401,495
821.916931,475
822.035461,496
822.154053,467
822.272583,480
822.391174,490
822.509583,491
822.628174,476
822.746704,485
822.865234,482
822.983765,477
823.102295,497
823.220825,478
823.339294,480
823.457825,453
823.576355,484
823.694824,479
823.813354,491
823.931885,490
824.050354,484
824.168884,474
824.287354,470
824.405823,486
824.524353,467
824.642822,475
824.761353,492
824.879822,499
824.998291,459
825.116699,485
825.235291,466
825.353699,476
825.472168,485
825.590637,503
825.709106,489
825.827576,466
825.946045,479
826.064453,464
826.182983,460
826.301392,473
826.4198,475
826.53833,475
826.656738,452
826.775208,472
826.893677,480
827.012024,475
827.130493,469
827.248962,473
827.36731,485
827.485779,479
827.604248,477
827.722595,475
827.841064,455
827.959412,477
828.077942,468
828.196289,468
828.314636,472
828.433105,453
828.551514,459
828.669861,486
828.78833,474
828.906677,468
829.025085,463
829.143433,482
829.261841,479
829.38031,477
829.498657,459
829.617004,474
829.735413,459
829.85376,454
829.972107,460
830.090515,456
830.208862,483
830.327209,454
830.445557,497
830.563904,465
830.682312,463
830.800659,467
830.919006,472
831.037354,468
831.155701,490
831.274048,480
831.392395,485
831.51062,475
831.629028,459
831.747314,473
831.865662,449
831.984009,483
832.102356,471
832.220642,474
832.338928,479
832.457275,465
832.575623,457
832.693909,473
832.812134,476
832.930481,478
833.048828,466
833.167114,468
833.2854,465
833.403687,473
833.521973,465
833.640259,453
833.758545,460
833.876831,467
833.995056,478
834.113281,478
834.231628,462
834.349915,461
834.468201,464
834.586426,487
834.704651,477
834.822998,465
834.941162,475
835.059448,463
835.177673,488
835.295959,489
835.414246,488
835.53241,491
835.650635,463
835.768921,479
835.887146,448
836.005371,468
836.123596,465
836.241821,457
836.360046,483
836.478271,472
836.596497,484
836.714722,476
836.832886,468
836.95105,462
837.069336,490
837.1875,472
837.305725,444
837.423889,479
837.542053,460
837.660339,464
837.778503,477
837.896667,458
838.014832,457
838.132996,460
838.25116,476
838.369385,468
838.487488,483
838.605713,498
838.723877,467
838.84198,473
838.960205,471
839.078308,460
839.196472,448
839.314636,488
839.4328,475
839.550964,461
839.669067,473
839.787231,474
839.905396,456
840.023499,480
840.141602,476
840.259766,479
840.377869,472
840.495972,486
840.614136,482
840.732239,477
840.850342,481
840.968445,478
841.086548,487
841.204651,481
841.322754,476
841.440918,502
841.55896,483
841.677002,497
841.795166,499
841.913208,505
842.031311,494
842.149353,491
842.267456,472
842.385498,477
842.503601,472
842.621643,481
842.739746,481
842.857788,472
842.97583,466
843.093933,497
843.211975,498
843.330017,489
843.44812,490
843.566101,493
843.684204,493
843.802246,479
843.920227,494
844.038269,498
844.156311,475
844.274292,496
844.392395,476
844.510376,493
844.628357,448
844.74646,474
844.864441,487
844.982422,446
845.100403,484
845.218384,513
845.336426,467
845.454468,490
845.572449,471
845.69043,485
845.808411,488
845.926453,486
846.044373,476
846.162354,484
846.280396,492
846.398315,497
846.516296,479
846.634216,478
846.752197,465
846.870178,472
846.988098,473
847.106079,486
847.22406,479
847.34198,490
847.4599,497
847.577881,516
847.695801,493
847.813782,484
847.931641,466
848.049561,490
848.167603,463
848.285461,463
848.403381,501
848.521362,480
848.639221,486
848.75708,491
848.875,482
848.99292,489
849.110901,483
849.22876,515
849.34668,487
849.464539,475
849.582458,502
849.700317,481
849.818176,489
849.936096,487
850.053955,470
850.171875,485
850.289673,483
850.407593,496
850.525452,497
850.643311,499
850.761169,490
850.878967,476
850.996887,493
851.114746,488
851.232544,489
851.350403,484
851.468262,456
851.58606,489
851.703979,479
851.821777,491
851.939636,475
852.057434,499
852.175232,481
852.293091,488
852.410889,493
852.528687,505
852.646545,488
852.764343,509
852.88208,471
852.999939,478
853.117676,482
853.235535,495
853.353271,480
853.471069,498
853.588928,464
853.706604,491
853.824402,474
853.9422,499
854.059998,496
854.177734,486
854.295532,478
854.413269,477
854.531006,487
854.648804,483
854.766541,480
854.884277,449
855.002014,499
855.119751,473
855.237549,480
855.355225,488
855.473022,475
855.590698,479
855.708435,466
855.826172,479
855.943848,493
856.061646,470
856.179321,463
856.296997,467
856.414795,510
856.53241,492
856.650085,480
856.767822,466
856.885559,480
857.003174,504
857.120911,490
857.238586,475
857.356201,488
857.473938,489
857.591614,469
857.709351,494
857.826965,488
857.944641,474
858.062317,484
858.179993,483
858.297668,496
858.415283,479
858.532959,485
858.650574,483
858.768188,492
858.885803,477
859.003479,465
859.121094,478
859.23877,465
859.356384,497
859.473999,479
859.591675,508
859.709229,460
859.826843,492
859.944458,467
860.062012,445
860.179626,487
860.297302,478
860.414856,481
860.532471,485
860.650024,475
860.767639,474
860.885193,482
861.002808,467
861.120361,477
861.237976,467
861.35553,463
861.473022,501
861.590698,478
861.708191,487
861.825745,478
861.943298,474
862.060852,466
862.178406,475
862.295959,470
862.413513,480
862.531006,453
862.64856,467
862.766113,467
862.883667,470
863.00116,473
863.118713,479
863.236206,461
863.353699,462
863.471252,467
863.588745,490
863.706177,482
863.82373,465
863.941162,491
864.058716,483
864.176208,460
864.29364,477
864.411194,478
864.528687,488
864.646118,476
864.763611,478
864.881042,465
864.998535,461
865.116028,459
865.233459,483
865.350891,480
865.468384,459
865.585754,478
865.703308,485
865.820679,479
865.938171,444
866.055542,468
866.173035,477
866.290466,466
866.407837,472
866.52533,458
866.6427,478
866.760071,465
866.877563,488
866.994934,467
867.112305,486
867.229736,484
867.347107,479
867.464539,474
867.58197,466
867.699341,466
867.81665,458
867.934082,479
868.051453,477
868.168823,483
868.286194,475
868.403564,460
868.520935,466
868.638306,481
868.755676,479
868.872986,494
868.990295,487
869.107727,483
869.225037,465
869.342346,471
869.459717,482
869.577026,481
869.694336,481
869.811707,463
869.929016,517
870.046326,478
870.163635,480
870.280945,475
870.398254,479
870.515564,470
870.632812,471
870.750183,489
870.867432,480
870.984741,463
871.102051,483
871.219299,470
871.336609,496
871.453918,494
871.571106,502
871.688416,476
871.805664,516
871.922852,476
872.040222,475
872.157471,505
872.274719,485
872.391968,489
872.509155,497
872.626465,495
872.743652,499
872.860962,473
872.978149,503
873.095337,477
873.212646,477
873.329834,465
873.44696,507
873.564209,487
873.681396,481
873.798645,482
873.915894,487
874.03302,495
874.150208,491
874.267456,491
874.384583,498
874.501831,485
874.618958,482
874.736145,505
874.853333,471
874.970459,487
875.087646,503
875.204834,501
875.32196,486
875.439148,488
875.556274,498
875.673401,481
875.790527,487
875.907715,453
876.024841,493
876.141968,475
876.259094,498
876.376282,495
876.493347,482
876.610474,462
876.7276,491
876.844727,500
876.961853,491
877.078918,475
877.195984,476
877.313171,472
877.430237,477
877.547302,491
877.664368,481
877.781433,489
877.898499,502
878.015625,489
878.13269,484
878.249695,470
878.366821,490
878.483887,461
878.600952,491
878.717957,478
878.834961,509
878.952087,472
879.069092,475
879.186157,482
879.303162,479
879.420227,477
879.537231,489
879.654236,470
879.77124,466
879.888306,497
880.005249,470
880.122314,479
880.239319,464
880.356323,449
880.473328,483
880.590271,470
880.707275,476
880.824341,489
880.941284,458
881.058228,463
881.175232,471
881.292236,469
881.40918,481
881.526123,472
881.643066,483
881.760071,468
881.877014,490
881.993958,486
882.11084,451
882.227783,478
882.344727,471
882.46167,475
882.578613,482
882.695618,459
882.812439,468
882.929382,459
883.046326,479
883.163208,489
883.280151,471
883.397034,482
883.513916,486
883.630798,472
883.747742,480
883.864563,468
883.981506,468
884.098389,489
884.21521,481
884.332153,487
884.448975,468
884.565796,490
884.682678,493
884.7995,509
884.916443,504
885.033264,510
885.150085,531
885.266968,510
885.383789,517
885.500671,537
885.617493,528
885.734314,504
885.851196,516
885.967896,527
886.084717,497
886.201599,507
886.318359,501
886.435181,510
886.552002,511
886.668762,505
886.785645,520
886.902344,500
887.019165,536
887.135925,514
887.252747,519
887.369446,513
887.486267,498
887.603027,473
887.719788,482
887.836548,481
887.953247,494
888.070068,476
888.186829,477
888.303528,480
888.420288,474
888.536987,472
888.653687,471
888.770447,462
888.887146,479
889.003967,476
889.120667,478
889.237305,472
889.354065,466
889.470703,468
889.587463,467
889.704163,492
889.820862,482
889.937561,483
890.054199,463
890.170837,468
890.287598,485
890.404236,468
890.520874,464
890.637634,479
890.754211,463
890.87085,471
890.987549,488
891.104187,463
891.220886,477
891.337463,474
891.454102,466
891.57074,477
891.687378,463
891.804077,474
891.920654,475
892.037231,473
892.15387,490
892.270447,459
892.387085,473
892.503723,470
892.6203,485
892.736877,467
892.853516,481
892.970032,474
893.08667,465
893.203186,459
893.319763,456
893.43634,452
893.552917,459
893.669556,467
893.786011,476
893.902588,482
894.019165,475
894.135681,477
894.252197,462
894.368835,473
894.485291,491
894.601868,459
894.718384,484
894.8349,473
894.951355,488
895.067932,468
895.184448,484
895.300964,460
895.417419,487
895.533936,489
895.650452,466
895.766907,491
895.883423,491
895.999878,465
896.116333,467
896.232849,474
896.349304,466
896.465759,473
896.582214,467
896.698669,471
896.815125,462
896.931641,482
897.048035,458
897.164551,442
897.280884,490
897.397339,472
897.513794,466
897.630249,471
897.746582,475
897.863098,493
897.979431,468
898.095886,478
898.212341,484
898.328674,482
898.445129,478
898.561462,490
898.677795,478
898.794312,463
898.910645,484
899.026978,471
899.143433,471
899.259766,469
899.37616,486
899.492493,469
899.608765,489
899.725159,488
899.841553,480
899.957947,496
900.07428,481
900.190552,475
900.306946,475
900.423157,498
900.53949,504
900.655884,475
900.772156,484
900.888489,490
901.004822,469
901.121033,469
901.237366,478
901.353699,493
901.46991,476
901.586304,463
901.702515,495
901.818787,473
901.93512,472
902.051331,492
902.167603,492
902.283875,493
902.400085,500
902.516418,495
902.632629,499
902.74884,499
902.865112,523
902.981384,510
903.097595,515
903.213867,510
903.330017,500
903.446289,507
903.5625,495
903.67865,497
903.794922,484
903.911072,480
904.027344,507
904.143494,477
904.259705,479
904.375916,463
904.492065,488
904.608215,475
904.724426,491
904.840576,467
904.956726,495
905.072876,450
905.189087,487
905.305176,467
905.421387,478
905.537537,472
905.653687,464
905.769775,478
905.885925,473
906.002014,480
906.118164,485
906.234314,480
906.350403,492
906.466492,465
906.582642,494
906.69873,470
906.814758,487
906.930908,453
907.046936,452
907.163086,462
907.279175,475
907.395264,487
907.511353,499
907.62738,477
907.743408,486
907.859497,479
907.975525,466
908.091553,493
908.207703,486
908.32373,472
908.439758,471
908.555786,466
908.671814,489
908.787842,476
908.90387,486
909.019775,463
909.135864,485
909.251892,462
909.367859,489
909.483826,475
909.599854,479
909.715881,461
909.831848,494
909.947815,475
910.063782,496
910.179749,482
910.295776,477
910.411743,470
910.527649,498
910.643616,509
910.759583,500
910.875488,461
910.991455,471
911.107361,470
911.223267,486
911.339294,481
911.4552,473
911.571106,465
911.687073,483
911.802979,492
911.918823,452
912.034729,462
912.150635,480
912.266602,492
912.382446,482
912.498352,478
912.614197,477
912.730103,485
912.846008,473
792.44574,739
792.56488,742
792.68396,797
792.80304,737
792.92218,768
793.041199,670
793.160339,695
793.279419,714
793.398499,681
793.517578,647
793.636658,688
793.755737,678
793.874817,674
793.993896,658
794.112976,627
794.232056,610
794.351074,639
794.470215,643
794.589233,651
794.708313,606
794.827393,629
794.946411,622
795.065552,633
795.18457,651
795.303589,611
795.422668,609
795.541687,624
795.660767,621
795.779846,594
795.898865,584
796.017883,610
796.136963,584
796.255981,595
796.375061,567
796.49408,600
796.613037,584
796.732117,608
796.851135,579
796.970154,606
797.089233,580
797.208191,571
797.327271,551
797.446228,574
797.565186,574
797.684265,562
797.803223,560
797.922241,582
798.04126,594
798.160278,558
798.279297,565
798.398315,565
798.517273,567
798.636292,571
798.75531,562
798.874268,561
798.993286,566
799.112244,563
799.231323,567
799.350281,552
799.469238,554
799.588257,582
799.707153,572
799.826111,529
799.945129,538
800.064087,557
800.183044,529
800.302063,567
800.421021,549
800.539978,572
800.658936,549
800.777893,557
800.896912,552
801.015747,557
801.134705,535
801.253723,545
801.37262,562
801.491638,549
801.610535,536
801.729492,535
801.84845,536
801.967407,564
802.086243,528
802.205261,550
802.324158,531
802.443115,536
802.562073,528
802.680969,558
802.799927,543
802.918762,529
803.037659,531
803.156677,524
803.275574,529
803.39447,520
803.513428,541
803.632263,557
803.751221,533
803.870117,559
803.989014,541
804.107971,527
804.226746,541
804.345642,540
804.4646,520
804.583496,531
804.702393,555
804.821228,540
804.940125,532
805.059021,519
805.177917,514
805.296814,518
805.415649,531
805.534546,530
805.653442,525
805.772278,514
805.891113,536
806.01001,525
806.128906,536
806.247742,544
806.366577,548
806.485413,539
806.604309,538
806.723145,538
806.84198,540
806.960876,541
807.079712,513
807.198486,530
807.317383,524
807.436218,506
807.554993,543
807.673889,563
807.792725,524
807.91156,519
808.030396,510
808.14917,529
808.268005,513
808.386841,546
808.505676,512
808.624451,541
808.743286,523
808.862122,533
808.980896,522
809.099731,526
809.218506,504
809.337341,542
809.456116,532
809.57489,523
809.693726,555
809.8125,521
809.931274,522
810.050049,528
810.168884,533
810.287659,521
810.406372,534
810.525269,525
810.643982,505
810.762756,530
810.881531,541
811.000305,517
811.11908,532
811.237854,539
811.356567,512
811.475403,540
811.594116,539
811.71283,524
811.831604,512
811.950378,543
812.069153,528
812.187927,537
812.30658,516
812.425415,527
812.544128,534
812.662781,547
812.781616,524
812.900269,530
813.019043,523
813.137756,524
813.256531,535
813.375244,533
813.493896,512
813.612671,538
813.731384,512
813.850037,546
813.96875,534
814.087524,519
814.206238,490
814.324951,498
814.443604,509
814.562256,512
814.68103,510
814.799683,524
814.918335,505
815.037109,514
815.155762,524
815.274475,535
815.393188,512
815.511841,513
815.630554,516
815.749146,498
815.867859,511
815.986572,523
816.105164,516
816.223877,533
816.342529,525
816.461182,504
816.579895,525
816.698486,503
816.817139,490
816.935791,520
817.054504,510
817.173096,491
817.291748,516
817.4104,509
817.529053,508
817.647644,524
817.766235,515
817.884949,518
818.00354,497
818.122192,509
818.240845,486
818.359436,519
818.478088,510
818.59668,505
818.715271,485
818.833923,494
818.952515,484
819.071106,498
819.189758,508
819.30835,494
819.426941,477
819.545532,496
819.664124,472
819.782715,506
819.901306,497
820.019897,497
820.138489,478
820.25708,470
820.375671,501
820.494202,494
820.612732,461
820.731384,491
820.849915,496
820.968506,491
821.087097,497
821.205627,496
821.324158,483
821.442749,497
821.561279,500
821.679871,498
821.798401,479
821.916931,480
822.035461,488
822.154053,475
822.272583,471
822.391174,495
822.509583,488
822.628174,479
822.746704,475
822.865234,498
822.983765,471
823.102295,483
823.220825,497
823.339294,473
823.457825,505
823.576355,480
823.694824,461
823.813354,476
823.931885,481
824.050354,483
824.168884,478
824.287354,477
824.405823,481
824.524353,500
824.642822,487
824.761353,468
824.879822,489
824.998291,483
825.116699,486
825.235291,492
825.353699,472
825.472168,468
825.590637,468
825.709106,469
825.827576,471
825.946045,459
826.064453,465
826.182983,468
826.301392,481
826.4198,468
826.53833,475
826.656738,467
826.775208,459
826.893677,476
827.012024,469
827.130493,489
827.248962,466
827.36731,476
827.485779,460
827.604248,482
827.722595,491
827.841064,470
827.959412,453
828.077942,465
828.196289,477
828.314636,464
828.433105,462
828.551514,465
828.669861,474
828.78833,470
828.906677,451
829.025085,477
829.143433,458
829.261841,463
829.38031,491
829.498657,484
829.617004,466
829.735413,476
829.85376,463
829.972107,475
830.090515,463
830.208862,458
830.327209,466
830.445557,460
830.563904,464
830.682312,469
830.800659,458
830.919006,455
831.037354,455
831.155701,499
831.274048,488
831.392395,469
831.51062,468
831.629028,473
831.747314,453
831.865662,472
831.984009,466
832.102356,488
832.220642,469
832.338928,483
832.457275,440
832.575623,481
832.693909,469
832.812134,470
832.930481,488
833.048828,490
833.167114,469
833.2854,478
833.403687,467
833.521973,470
833.640259,464
833.758545,465
833.876831,469
833.995056,481
834.113281,480
834.231628,453
834.349915,473
834.468201,471
834.586426,459
834.704651,488
834.822998,464
834.941162,480
835.059448,479
835.177673,466
835.295959,477
835.414246,491
835.53241,456
835.650635,473
835.768921,459
835.887146,463
836.005371,467
836.123596,476
836.241821,450
836.360046,466
836.478271,476
836.596497,462
836.714722,468
836.832886,478
836.95105,466
837.069336,460
837.1875,478
837.305725,498
837.423889,463
837.542053,485
837.660339,472
837.778503,479
837.896667,475
838.014832,472
838.132996,478
838.25116,479
838.369385,466
838.487488,463
838.605713,490
838.723877,468
838.84198,457
838.960205,464
839.078308,466
839.196472,463
839.314636,475
839.4328,479
839.550964,483
839.669067,476
839.787231,478
839.905396,471
840.023499,456
840.141602,476
840.259766,471
840.377869,477
840.495972,485
840.614136,490
840.732239,466
840.850342,466
840.968445,485
841.086548,497
841.204651,498
841.322754,487
841.440918,465
841.55896,493
841.677002,475
841.795166,486
841.913208,471
842.031311,482
842.149353,490
842.267456,492
842.385498,463
842.503601,499
842.621643,460
842.739746,489
842.857788,467
842.97583,485
843.093933,495
843.211975,484
843.330017,461
843.44812,492
843.566101,478
843.684204,500
843.802246,491
843.920227,489
844.038269,498
844.156311,500
844.274292,474
844.392395,491
844.510376,482
844.628357,485
844.74646,486
844.864441,482
844.982422,500
845.100403,463
845.218384,476
845.336426,473
845.454468,480
845.572449,476
845.69043,465
845.808411,479
845.926453,459
846.044373,475
846.162354,484
846.280396,468
846.398315,469
846.516296,462
846.634216,466
846.752197,505
846.870178,474
846.988098,491
847.106079,478
847.22406,487
847.34198,479
847.4599,495
847.577881,465
847.695801,465
847.813782,480
847.931641,477
848.049561,487
848.167603,506
848.285461,487
848.403381,499
848.521362,488
848.639221,492
848.75708,488
848.875,490
848.99292,523
849.110901,512
849.22876,491
849.34668,486
849.464539,496
849.582458,489
849.700317,483
849.818176,494
849.936096,487
850.053955,478
850.171875,488
850.289673,492
850.407593,487
850.525452,512
850.643311,487
850.761169,492
850.878967,477
850.996887,472
851.114746,489
851.232544,493
851.350403,493
851.468262,493
851.58606,487
851.703979,479
851.821777,482
851.939636,496
852.057434,469
852.175232,498
852.293091,496
852.410889,472
852.528687,497
852.646545,486
852.764343,505
852.88208,490
852.999939,477
853.117676,495
853.235535,488
853.353271,480
853.471069,477
853.588928,475
853.706604,458
853.824402,468
853.9422,476
854.059998,486
854.177734,483
854.295532,493
854.413269,470
854.531006,469
854.648804,477
854.766541,482
854.884277,475
855.002014,458
855.119751,510
855.237549,470
855.355225,478
855.473022,477
855.590698,460
855.708435,466
855.826172,490
855.943848,483
856.061646,464
856.179321,476
856.296997,452
856.414795,489
856.53241,484
856.650085,495
856.767822,474
856.885559,477
857.003174,477
857.120911,494
857.238586,503
857.356201,517
857.473938,485
857.591614,495
857.709351,482
857.826965,484
857.944641,504
858.062317,495
858.179993,484
858.297668,477
858.415283,486
858.532959,491
858.650574,483
858.768188,490
858.885803,502
859.003479,484
859.121094,503
859.23877,481
859.356384,465
859.473999,483
859.591675,477
859.709229,473
859.826843,479
859.944458,471
860.062012,476
860.179626,485
860.297302,493
860.414856,471
860.532471,466
860.650024,491
860.767639,483
860.885193,492
861.002808,464
861.120361,479
861.237976,475
861.35553,489
861.473022,484
861.590698,491
861.708191,494
861.825745,474
861.943298,456
862.060852,486
862.178406,469
862.295959,465
862.413513,470
862.531006,470
862.64856,477
862.766113,481
862.883667,459
863.00116,478
863.118713,484
863.236206,502
863.353699,477
863.471252,463
863.588745,488
863.706177,488
863.82373,487
863.941162,467
864.058716,457
864.176208,455
864.29364,474
864.411194,482
864.528687,473
864.646118,486
864.763611,454
864.881042,456
864.998535,479
865.116028,486
865.233459,462
865.350891,460
865.468384,457
865.585754,482
865.703308,476
865.820679,471
865.938171,471
866.055542,476
866.173035,464
866.290466,463
866.407837,470
866.52533,477
866.6427,458
866.760071,482
866.877563,478
866.994934,478
867.112305,500
867.229736,476
867.347107,473
867.464539,470
867.58197,474
867.699341,466
867.81665,457
867.934082,483
868.051453,479
868.168823,480
868.286194,468
868.403564,463
868.520935,477
868.638306,467
868.755676,488
868.872986,466
868.990295,471
869.107727,480
869.225037,462
869.342346,443
869.459717,460
869.577026,493
869.694336,466
869.811707,483
869.929016,468
870.046326,496
870.163635,485
870.280945,485
870.398254,470
870.515564,480
870.632812,491
870.750183,481
870.867432,478
870.984741,506
871.102051,490
871.219299,477
871.336609,472
871.453918,499
871.571106,500
871.688416,487
871.805664,494
871.922852,491
872.040222,488
872.157471,482
872.274719,485
872.391968,478
872.509155,492
872.626465,494
872.743652,497
872.860962,507
872.978149,498
873.095337,492
873.212646,487
873.329834,490
873.44696,467
873.564209,487
873.681396,477
873.798645,506
873.915894,473
874.03302,489
874.150208,490
874.267456,498
874.384583,479
874.501831,482
874.618958,488
874.736145,501
874.853333,500
874.970459,488
875.087646,496
875.204834,502
875.32196,475
875.439148,496
875.556274,463
875.673401,481
875.790527,479
875.907715,496
876.024841,472
876.141968,488
876.259094,489
876.376282,478
876.493347,489
876.610474,485
876.7276,476
876.844727,467
876.961853,462
877.078918,471
877.195984,484
877.313171,478
877.430237,474
877.547302,473
877.664368,465
877.781433,501
877.898499,512
878.015625,482
878.13269,472
878.249695,494
878.366821,477
878.483887,478
878.600952,478
878.717957,485
878.834961,484
878.952087,472
879.069092,488
879.186157,494
879.303162,467
879.420227,470
879.537231,479
879.654236,462
879.77124,474
879.888306,485
880.005249,465
880.122314,459
880.239319,483
880.356323,498
880.473328,458
880.590271,473
880.707275,472
880.824341,474
880.941284,454
881.058228,490
881.175232,481
881.292236,464
881.40918,472
881.526123,489
881.643066,476
881.760071,460
881.877014,464
881.993958,482
882.11084,465
882.227783,465
882.344727,467
882.46167,473
882.578613,462
882.695618,474
882.812439,461
882.929382,492
883.046326,479
883.163208,478
883.280151,482
883.397034,479
883.513916,477
883.630798,469
883.747742,467
883.864563,486
883.981506,467
884.098389,486
884.21521,479
884.332153,514
884.448975,490
884.565796,487
884.682678,490
884.7995,497
884.916443,517
885.033264,492
885.150085,509
885.266968,531
885.383789,519
885.500671,523
885.617493,545
885.734314,529
885.851196,501
885.967896,513
886.084717,504
886.201599,524
886.318359,509
886.435181,538
886.552002,515
886.668762,517
886.785645,499
886.902344,511
887.019165,507
887.135925,508
887.252747,525
887.369446,501
887.486267,489
887.603027,497
887.719788,489
887.836548,519
887.953247,476
888.070068,500
888.186829,472
888.303528,485
888.420288,480
888.536987,485
888.653687,467
888.770447,480
888.887146,486
889.003967,491
889.120667,477
889.237305,472
889.354065,476
889.470703,473
889.587463,470
889.704163,469
889.820862,457
889.937561,491
890.054199,474
890.170837,479
890.287598,470
890.404236,473
890.520874,476
890.637634,465
890.754211,464
890.87085,474
890.987549,463
891.104187,489
891.220886,466
891.337463,498
891.454102,481
891.57074,476
891.687378,484
891.804077,469
891.920654,479
892.037231,473
892.15387,466
892.270447,488
892.387085,484
892.503723,506
892.6203,491
892.736877,463
892.853516,484
892.970032,462
893.08667,469
893.203186,497
893.319763,459
893.43634,480
893.552917,455
893.669556,481
893.786011,475
893.902588,477
894.019165,479
894.135681,476
894.252197,460
894.368835,488
894.485291,480
894.601868,494
894.718384,464
894.8349,463
894.951355,469
895.067932,476
895.184448,456
895.300964,491
895.417419,467
895.533936,478
895.650452,469
895.766907,457
895.883423,476
895.999878,486
896.116333,462
896.232849,475
896.349304,502
896.465759,485
896.582214,475
896.698669,474
896.815125,462
896.931641,487
897.048035,465
897.164551,480
897.280884,471
897.397339,469
897.513794,472
897.630249,489
897.746582,475
897.863098,483
897.979431,484
898.095886,462
898.212341,486
898.328674,478
898.445129,475
898.561462,466
898.677795,481
898.794312,467
898.910645,474
899.026978,494
899.143433,472
899.259766,491
899.37616,481
899.492493,482
899.608765,483
899.725159,485
899.841553,475
899.957947,471
900.07428,470
900.190552,472
900.306946,480
900.423157,499
900.53949,492
900.655884,470
900.772156,476
900.888489,485
901.004822,475
901.121033,490
901.237366,491
901.353699,478
901.46991,470
901.586304,495
901.702515,484
901.818787,489
901.93512,490
902.051331,512
902.167603,495
902.283875,517
902.400085,499
902.516418,499
902.632629,497
902.74884,507
902.865112,500
902.981384,509
903.097595,519
903.213867,490
903.330017,502
903.446289,487
903.5625,494
903.67865,485
903.794922,493
903.911072,504
904.027344,507
904.143494,491
904.259705,492
904.375916,486
904.492065,480
904.608215,472
904.724426,474
904.840576,487
904.956726,484
905.072876,483
905.189087,461
905.305176,474
905.421387,469
905.537537,497
905.653687,458
905.769775,474
905.885925,477
906.002014,488
906.118164,483
906.234314,486
906.350403,477
906.466492,472
906.582642,481
906.69873,487
906.814758,500
906.930908,470
907.046936,468
907.163086,500
907.279175,454
907.395264,489
907.511353,469
907.62738,491
907.743408,485
907.859497,465
907.975525,483
908.091553,459
908.207703,488
908.32373,482
908.439758,476
908.555786,496
908.671814,468
908.787842,479
908.90387,478
909.019775,483
909.135864,465
909.251892,468
909.367859,486
909.483826,471
909.599854,468
909.715881,484
909.831848,468
909.947815,482
910.063782,491
910.179749,476
910.295776,497
910.411743,476
910.527649,481
910.643616,482
910.759583,472
910.875488,488
910.991455,481
911.107361,469
911.223267,485
911.339294,471
911.4552,476
911.571106,481
911.687073,470
911.802979,499
911.918823,473
912.034729,491
912.150635,475
912.266602,481
912.382446,484
912.498352,483
912.614197,466
912.730103,480
912.846008,470
