792.44574,501
792.56488,554
792.68396,553
792.80304,548
792.92218,501
793.041199,502
793.160339,491
793.279419,513
793.398499,501
793.517578,503
793.636658,478
793.755737,505
793.874817,521
793.993896,509
794.112976,498
794.232056,487
794.351074,506
794.470215,495
794.589233,520
794.708313,478
794.827393,491
794.946411,489
795.065552,490
795.18457,494
795.303589,492
795.422668,484
795.541687,482
795.660767,495
795.779846,483
795.898865,461
796.017883,478
796.136963,497
796.255981,501
796.375061,481
796.49408,492
796.613037,475
796.732117,497
796.851135,490
796.970154,486
797.089233,475
797.208191,472
797.327271,498
797.446228,477
797.565186,459
797.684265,483
797.803223,487
797.922241,484
798.04126,475
798.160278,482
798.279297,481
798.398315,481
798.517273,475
798.636292,498
798.75531,479
798.874268,483
798.993286,482
799.112244,483
799.231323,479
799.350281,490
799.469238,482
799.588257,472
799.707153,474
799.826111,479
799.945129,476
800.064087,475
800.183044,477
800.302063,480
800.421021,478
800.539978,477
800.658936,475
800.777893,478
800.896912,473
801.015747,490
801.134705,475
801.253723,462
801.37262,479
801.491638,480
801.610535,460
801.729492,472
801.84845,485
801.967407,467
802.086243,503
802.205261,493
802.324158,470
802.443115,458
802.562073,499
802.680969,482
802.799927,469
802.918762,478
803.037659,467
803.156677,466
803.275574,483
803.39447,471
803.513428,460
803.632263,464
803.751221,458
803.870117,471
803.989014,476
804.107971,493
804.226746,470
804.345642,472
804.4646,454
804.583496,491
804.702393,466
804.821228,475
804.940125,476
805.059021,463
805.177917,490
805.296814,468
805.415649,469
805.534546,480
805.653442,479
805.772278,474
805.891113,474
806.01001,467
806.128906,473
806.247742,480
806.366577,462
806.485413,483
806.604309,494
806.723145,487
806.84198,494
806.960876,485
807.079712,475
807.198486,454
807.317383,484
807.436218,469
807.554993,480
807.673889,478
807.792725,474
807.91156,473
808.030396,482
808.14917,469
808.268005,473
808.386841,466
808.505676,492
808.624451,472
808.743286,480
808.862122,476
808.980896,500
809.099731,471
809.218506,470
809.337341,476
809.456116,473
809.57489,476
809.693726,459
809.8125,483
809.931274,462
810.050049,457
810.168884,485
810.287659,467
810.406372,478
810.525269,480
810.643982,467
810.762756,486
810.881531,478
811.000305,481
811.11908,483
811.237854,471
811.356567,472
811.475403,469
811.594116,493
811.71283,478
811.831604,473
811.950378,488
812.069153,475
812.187927,487
812.30658,487
812.425415,469
812.544128,486
812.662781,451
812.781616,480
812.900269,459
813.019043,481
813.137756,464
813.256531,479
813.375244,484
813.493896,491
813.612671,455
813.731384,468
813.850037,475
813.96875,478
814.087524,471
814.206238,485
814.324951,476
814.443604,479
814.562256,459
814.68103,462
814.799683,494
814.918335,466
815.037109,461
815.155762,472
815.274475,450
815.393188,469
815.511841,491
815.630554,459
815.749146,461
815.867859,471
815.986572,457
816.105164,483
816.223877,478
816.342529,464
816.461182,452
816.579895,480
816.698486,467
816.817139,458
816.935791,457
817.054504,464
817.173096,473
817.291748,482
817.4104,464
817.529053,462
817.647644,465
817.766235,469
817.884949,459
818.00354,479
818.122192,459
818.240845,461
818.359436,464
818.478088,467
818.59668,458
818.715271,472
818.833923,444
818.952515,483
819.071106,454
819.189758,451
819.30835,450
819.426941,446
819.545532,444
819.664124,455
819.782715,459
819.901306,471
820.019897,460
820.138489,453
820.25708,455
820.375671,456
820.494202,449
820.612732,449
820.731384,466
820.849915,460
820.968506,455
821.087097,463
821.205627,455
821.324158,464
821.442749,465
821.561279,448
821.679871,465
821.798401,469
821.916931,448
822.035461,474
822.154053,460
822.272583,468
822.391174,459
822.509583,451
822.628174,450
822.746704,462
822.865234,456
822.983765,456
823.102295,439
823.220825,448
823.339294,451
823.457825,447
823.576355,453
823.694824,449
823.813354,456
823.931885,461
824.050354,450
824.168884,477
824.287354,458
824.405823,443
824.524353,466
824.642822,448
824.761353,459
824.879822,445
824.998291,443
825.116699,456
825.235291,450
825.353699,462
825.472168,453
825.590637,446
825.709106,467
825.827576,447
825.946045,439
826.064453,458
826.182983,437
826.301392,446
826.4198,442
826.53833,449
826.656738,459
826.775208,455
826.893677,449
827.012024,466
827.130493,450
827.248962,441
827.36731,447
827.485779,450
827.604248,460
827.722595,455
827.841064,437
827.959412,443
828.077942,442
828.196289,459
828.314636,449
828.433105,443
828.551514,455
828.669861,449
828.78833,445
828.906677,445
829.025085,449
829.143433,460
829.261841,448
829.38031,461
829.498657,430
829.617004,443
829.735413,445
829.85376,444
829.972107,465
830.090515,445
830.208862,448
830.327209,436
830.445557,452
830.563904,430
830.682312,443
830.800659,455
830.919006,430
831.037354,462
831.155701,457
831.274048,450
831.392395,450
831.51062,447
831.629028,431
831.747314,461
831.865662,456
831.984009,474
832.102356,429
832.220642,440
832.338928,430
832.457275,448
832.575623,442
832.693909,448
832.812134,442
832.930481,434
833.048828,460
833.167114,443
833.2854,445
833.403687,425
833.521973,452
833.640259,439
833.758545,439
833.876831,445
833.995056,445
834.113281,440
834.231628,457
834.349915,436
834.468201,443
834.586426,443
834.704651,447
834.822998,458
834.941162,455
835.059448,443
835.177673,456
835.295959,447
835.414246,448
835.53241,441
835.650635,461
835.768921,450
835.887146,428
836.005371,438
836.123596,445
836.241821,424
836.360046,437
836.478271,443
836.596497,438
836.714722,442
836.832886,444
836.95105,446
837.069336,470
837.1875,441
837.305725,446
837.423889,457
837.542053,427
837.660339,443
837.778503,437
837.896667,433
838.014832,464
838.132996,441
838.25116,436
838.369385,462
838.487488,456
838.605713,450
838.723877,443
838.84198,423
838.960205,442
839.078308,429
839.196472,436
839.314636,438
839.4328,448
839.550964,445
839.669067,452
839.787231,439
839.905396,435
840.023499,438
840.141602,434
840.259766,455
840.377869,448
840.495972,430
840.614136,443
840.732239,451
840.850342,449
840.968445,426
841.086548,455
841.204651,441
841.322754,443
841.440918,437
841.55896,448
841.677002,439
841.795166,443
841.913208,444
842.031311,457
842.149353,444
842.267456,430
842.385498,451
842.503601,430
842.621643,449
842.739746,441
842.857788,438
842.97583,452
843.093933,458
843.211975,425
843.330017,452
843.44812,426
843.566101,440
843.684204,427
843.802246,422
843.920227,443
844.038269,454
844.156311,466
844.274292,427
844.392395,434
844.510376,453
844.628357,421
844.74646,429
844.864441,444
844.982422,428
845.100403,438
845.218384,436
845.336426,446
845.454468,435
845.572449,446
845.69043,454
845.808411,458
845.926453,444
846.044373,420
846.162354,438
846.280396,443
846.398315,449
846.516296,437
846.634216,444
846.752197,429
846.870178,444
846.988098,447
847.106079,449
847.22406,433
847.34198,439
847.4599,440
847.577881,432
847.695801,423
847.813782,470
847.931641,449
848.049561,435
848.167603,425
848.285461,458
848.403381,433
848.521362,445
848.639221,448
848.75708,444
848.875,425
848.99292,442
849.110901,431
849.22876,435
849.34668,430
849.464539,441
849.582458,434
849.700317,445
849.818176,436
849.936096,444
850.053955,445
850.171875,424
850.289673,445
850.407593,446
850.525452,438
850.643311,431
850.761169,443
850.878967,429
850.996887,432
851.114746,434
851.232544,425
851.350403,425
851.468262,420
851.58606,456
851.703979,426
851.821777,437
851.939636,474
852.057434,448
852.175232,425
852.293091,441
852.410889,455
852.528687,440
852.646545,437
852.764343,446
852.88208,454
852.999939,445
853.117676,447
853.235535,463
853.353271,439
853.471069,439
853.588928,454
853.706604,441
853.824402,426
853.9422,452
854.059998,454
854.177734,440
854.295532,427
854.413269,444
854.531006,444
854.648804,449
854.766541,441
854.884277,430
855.002014,453
855.119751,446
855.237549,432
855.355225,431
855.473022,448
855.590698,441
855.708435,448
855.826172,441
855.943848,453
856.061646,443
856.179321,437
856.296997,446
856.414795,440
856.53241,446
856.650085,444
856.767822,443
856.885559,441
857.003174,433
857.120911,443
857.238586,423
857.356201,439
857.473938,459
857.591614,447
857.709351,431
857.826965,442
857.944641,437
858.062317,432
858.179993,426
858.297668,446
858.415283,445
858.532959,425
858.650574,444
858.768188,456
858.885803,446
859.003479,446
859.121094,460
859.23877,446
859.356384,438
859.473999,446
859.591675,463
859.709229,424
859.826843,428
859.944458,454
860.062012,431
860.179626,435
860.297302,438
860.414856,438
860.532471,451
860.650024,441
860.767639,432
860.885193,447
861.002808,451
861.120361,435
861.237976,453
861.35553,417
861.473022,435
861.590698,431
861.708191,425
861.825745,439
861.943298,440
862.060852,427
862.178406,443
862.295959,429
862.413513,450
862.531006,438
862.64856,432
862.766113,448
862.883667,427
863.00116,441
863.118713,450
863.236206,441
863.353699,455
863.471252,436
863.588745,427
863.706177,429
863.82373,457
863.941162,431
864.058716,441
864.176208,461
864.29364,414
864.411194,448
864.528687,458
864.646118,445
864.763611,458
864.881042,452
864.998535,442
865.116028,445
865.233459,444
865.350891,443
865.468384,443
865.585754,431
865.703308,435
865.820679,450
865.938171,454
866.055542,454
866.173035,439
866.290466,441
866.407837,442
866.52533,428
866.6427,451
866.760071,429
866.877563,448
866.994934,429
867.112305,431
867.229736,445
867.347107,442
867.464539,437
867.58197,445
867.699341,418
867.81665,447
867.934082,442
868.051453,457
868.168823,464
868.286194,455
868.403564,445
868.520935,438
868.638306,443
868.755676,441
868.872986,438
868.990295,455
869.107727,425
869.225037,436
869.342346,439
869.459717,459
869.577026,453
869.694336,436
869.811707,439
869.929016,428
870.046326,430
870.163635,447
870.280945,446
870.398254,435
870.515564,447
870.632812,433
870.750183,435
870.867432,436
870.984741,438
871.102051,439
871.219299,439
871.336609,433
871.453918,427
871.571106,451
871.688416,451
871.805664,451
871.922852,454
872.040222,436
872.157471,445
872.274719,443
872.391968,449
872.509155,436
872.626465,459
872.743652,456
872.860962,454
872.978149,438
873.095337,442
873.212646,422
873.329834,459
873.44696,460
873.564209,452
873.681396,458
873.798645,443
873.915894,452
874.03302,448
874.150208,466
874.267456,447
874.384583,446
874.501831,436
874.618958,439
874.736145,443
874.853333,464
874.970459,445
875.087646,453
875.204834,429
875.32196,453
875.439148,446
875.556274,428
875.673401,431
875.790527,453
875.907715,441
876.024841,475
876.141968,434
876.259094,460
876.376282,449
876.493347,457
876.610474,442
876.7276,438
876.844727,449
876.961853,460
877.078918,436
877.195984,447
877.313171,451
877.430237,445
877.547302,468
877.664368,443
877.781433,443
877.898499,456
878.015625,444
878.13269,471
878.249695,458
878.366821,462
878.483887,441
878.600952,465
878.717957,444
878.834961,441
878.952087,443
879.069092,464
879.186157,453
879.303162,437
879.420227,473
879.537231,439
879.654236,447
879.77124,438
879.888306,417
880.005249,450
880.122314,457
880.239319,435
880.356323,443
880.473328,444
880.590271,453
880.707275,454
880.824341,450
880.941284,455
881.058228,440
881.175232,456
881.292236,436
881.40918,455
881.526123,445
881.643066,445
881.760071,440
881.877014,434
881.993958,440
882.11084,439
882.227783,442
882.344727,438
882.46167,426
882.578613,441
882.695618,442
882.812439,450
882.929382,440
883.046326,446
883.163208,441
883.280151,442
883.397034,456
883.513916,443
883.630798,454
883.747742,445
883.864563,449
883.981506,430
884.098389,440
884.21521,452
884.332153,442
884.448975,451
884.565796,452
884.682678,450
884.7995,442
884.916443,465
885.033264,455
885.150085,442
885.266968,460
885.383789,458
885.500671,440
885.617493,447
885.734314,455
885.851196,454
885.967896,461
886.084717,458
886.201599,462
886.318359,456
886.435181,450
886.552002,468
886.668762,449
886.785645,448
886.902344,440
887.019165,444
887.135925,448
887.252747,448
887.369446,453
887.486267,450
887.603027,446
887.719788,463
887.836548,448
887.953247,459
888.070068,460
888.186829,432
888.303528,436
888.420288,443
888.536987,434
888.653687,453
888.770447,460
888.887146,448
889.003967,451
889.120667,454
889.237305,439
889.354065,450
889.470703,480
889.587463,455
889.704163,445
889.820862,442
889.937561,454
890.054199,446
890.170837,455
890.287598,439
890.404236,450
890.520874,458
890.637634,435
890.754211,452
890.87085,450
890.987549,458
891.104187,460
891.220886,466
891.337463,438
891.454102,444
891.57074,437
891.687378,462
891.804077,438
891.920654,461
892.037231,437
892.15387,463
892.270447,471
892.387085,459
892.503723,446
892.6203,448
892.736877,441
892.853516,443
892.970032,460
893.08667,457
893.203186,462
893.319763,452
893.43634,446
893.552917,455
893.669556,448
893.786011,456
893.902588,458
894.019165,465
894.135681,446
894.252197,439
894.368835,457
894.485291,476
894.601868,451
894.718384,460
894.8349,464
894.951355,465
895.067932,460
895.184448,452
895.300964,452
895.417419,442
895.533936,453
895.650452,464
895.766907,467
895.883423,446
895.999878,452
896.116333,459
896.232849,456
896.349304,437
896.465759,442
896.582214,450
896.698669,471
896.815125,461
896.931641,458
897.048035,473
897.164551,465
897.280884,454
897.397339,443
897.513794,445
897.630249,466
897.746582,449
897.863098,452
897.979431,466
898.095886,448
898.212341,459
898.328674,444
898.445129,471
898.561462,457
898.677795,467
898.794312,436
898.910645,449
899.026978,453
899.143433,452
899.259766,438
899.37616,454
899.492493,451
899.608765,473
899.725159,461
899.841553,465
899.957947,458
900.07428,457
900.190552,455
900.306946,463
900.423157,461
900.53949,454
900.655884,456
900.772156,464
900.888489,453
901.004822,455
901.121033,451
901.237366,455
901.353699,457
901.46991,459
901.586304,445
901.702515,460
901.818787,455
901.93512,467
902.051331,450
902.167603,459
902.283875,460
902.400085,462
902.516418,466
902.632629,447
902.74884,456
902.865112,461
902.981384,453
903.097595,466
903.213867,457
903.330017,465
903.446289,459
903.5625,453
903.67865,481
903.794922,450
903.911072,456
904.027344,458
904.143494,442
904.259705,459
904.375916,450
904.492065,464
904.608215,459
904.724426,467
904.840576,453
904.956726,470
905.072876,457
905.189087,461
905.305176,451
905.421387,467
905.537537,459
905.653687,453
905.769775,464
905.885925,466
906.002014,456
906.118164,454
906.234314,471
906.350403,448
906.466492,440
906.582642,447
906.69873,448
906.814758,475
906.930908,463
907.046936,456
907.163086,454
907.279175,472
907.395264,478
907.511353,462
907.62738,461
907.743408,457
907.859497,454
907.975525,485
908.091553,453
908.207703,473
908.32373,489
908.439758,461
908.555786,454
908.671814,451
908.787842,443
908.90387,447
909.019775,457
909.135864,450
909.251892,449
909.367859,438
909.483826,445
909.599854,437
909.715881,474
909.831848,472
909.947815,479
910.063782,453
910.179749,455
910.295776,480
910.411743,436
910.527649,460
910.643616,444
910.759583,449
910.875488,460
910.991455,477
911.107361,459
911.223267,467
911.339294,470
911.4552,445
911.571106,448
911.687073,455
911.802979,453
911.918823,466
912.034729,445
912.150635,461
912.266602,441
912.382446,454
912.498352,439
912.614197,458
912.730103,464
912.846008,436
792.44574,506
792.56488,531
792.68396,569
792.80304,544
792.92218,505
793.041199,476
793.160339,511
793.279419,514
793.398499,488
793.517578,472
793.636658,502
793.755737,498
793.874817,524
793.993896,519
794.112976,496
794.232056,504
794.351074,506
794.470215,493
794.589233,524
794.708313,477
794.827393,500
794.946411,506
795.065552,487
795.18457,484
795.303589,481
795.422668,505
795.541687,503
795.660767,493
795.779846,504
795.898865,493
796.017883,481
796.136963,500
796.255981,500
796.375061,499
796.49408,494
796.613037,488
796.732117,488
796.851135,497
796.970154,482
797.089233,482
797.208191,504
797.327271,485
797.446228,498
797.565186,512
797.684265,463
797.803223,485
797.922241,481
798.04126,495
798.160278,506
798.279297,492
798.398315,469
798.517273,491
798.636292,494
798.75531,473
798.874268,511
798.993286,488
799.112244,480
799.231323,493
799.350281,468
799.469238,482
799.588257,458
799.707153,494
799.826111,470
799.945129,487
800.064087,480
800.183044,473
800.302063,480
800.421021,461
800.539978,483
800.658936,466
800.777893,485
800.896912,492
801.015747,482
801.134705,479
801.253723,486
801.37262,479
801.491638,477
801.610535,491
801.729492,487
801.84845,481
801.967407,483
802.086243,493
802.205261,476
802.324158,467
802.443115,466
802.562073,469
802.680969,470
802.799927,481
802.918762,481
803.037659,480
803.156677,487
803.275574,487
803.39447,477
803.513428,470
803.632263,478
803.751221,475
803.870117,483
803.989014,492
804.107971,463
804.226746,478
804.345642,498
804.4646,467
804.583496,483
804.702393,487
804.821228,472
804.940125,478
805.059021,477
805.177917,468
805.296814,469
805.415649,479
805.534546,495
805.653442,474
805.772278,504
805.891113,480
806.01001,488
806.128906,483
806.247742,475
806.366577,498
806.485413,474
806.604309,484
806.723145,472
806.84198,468
806.960876,469
807.079712,489
807.198486,481
807.317383,459
807.436218,458
807.554993,464
807.673889,487
807.792725,485
807.91156,446
808.030396,457
808.14917,477
808.268005,473
808.386841,488
808.505676,469
808.624451,480
808.743286,464
808.862122,472
808.980896,460
809.099731,470
809.218506,472
809.337341,478
809.456116,490
809.57489,458
809.693726,482
809.8125,474
809.931274,481
810.050049,474
810.168884,484
810.287659,491
810.406372,484
810.525269,460
810.643982,475
810.762756,471
810.881531,489
811.000305,472
811.11908,457
811.237854,463
811.356567,475
811.475403,462
811.594116,461
811.71283,492
811.831604,485
811.950378,481
812.069153,483
812.187927,466
812.30658,478
812.425415,460
812.544128,486
812.662781,479
812.781616,458
812.900269,455
813.019043,471
813.137756,467
813.256531,488
813.375244,467
813.493896,463
813.612671,480
813.731384,479
813.850037,492
813.96875,458
814.087524,460
814.206238,481
814.324951,473
814.443604,468
814.562256,475
814.68103,486
814.799683,456
814.918335,468
815.037109,468
815.155762,452
815.274475,478
815.393188,491
815.511841,463
815.630554,477
815.749146,477
815.867859,473
815.986572,472
816.105164,464
816.223877,455
816.342529,467
816.461182,457
816.579895,468
816.698486,468
816.817139,477
816.935791,491
817.054504,487
817.173096,467
817.291748,471
817.4104,461
817.529053,475
817.647644,469
817.766235,463
817.884949,462
818.00354,452
818.122192,468
818.240845,464
818.359436,471
818.478088,473
818.59668,470
818.715271,457
818.833923,469
818.952515,466
819.071106,445
819.189758,445
819.30835,445
819.426941,467
819.545532,461
819.664124,448
819.782715,466
819.901306,478
820.019897,451
820.138489,462
820.25708,438
820.375671,473
820.494202,442
820.612732,464
820.731384,438
820.849915,479
820.968506,446
821.087097,450
821.205627,456
821.324158,456
821.442749,445
821.561279,465
821.679871,459
821.798401,468
821.916931,447
822.035461,442
822.154053,458
822.272583,450
822.391174,459
822.509583,443
822.628174,461
822.746704,455
822.865234,444
822.983765,471
823.102295,433
823.220825,455
823.339294,449
823.457825,466
823.576355,461
823.694824,456
823.813354,447
823.931885,455
824.050354,460
824.168884,461
824.287354,468
824.405823,456
824.524353,441
824.642822,445
824.761353,461
824.879822,469
824.998291,453
825.116699,466
825.235291,452
825.353699,441
825.472168,450
825.590637,451
825.709106,459
825.827576,462
825.946045,459
826.064453,449
826.182983,451
826.301392,446
826.4198,449
826.53833,448
826.656738,445
826.775208,450
826.893677,453
827.012024,447
827.130493,468
827.248962,434
827.36731,459
827.485779,469
827.604248,439
827.722595,448
827.841064,450
827.959412,455
828.077942,452
828.196289,466
828.314636,448
828.433105,455
828.551514,429
828.669861,451
828.78833,453
828.906677,444
829.025085,456
829.143433,469
829.261841,437
829.38031,455
829.498657,456
829.617004,462
829.735413,466
829.85376,445
829.972107,438
830.090515,457
830.208862,460
830.327209,450
830.445557,450
830.563904,466
830.682312,446
830.800659,435
830.919006,444
831.037354,453
831.155701,449
831.274048,449
831.392395,443
831.51062,441
831.629028,456
831.747314,450
831.865662,450
831.984009,455
832.102356,446
832.220642,460
832.338928,430
832.457275,454
832.575623,446
832.693909,471
832.812134,434
832.930481,436
833.048828,446
833.167114,431
833.2854,434
833.403687,445
833.521973,462
833.640259,457
833.758545,447
833.876831,427
833.995056,454
834.113281,454
834.231628,459
834.349915,445
834.468201,452
834.586426,454
834.704651,465
834.822998,460
834.941162,439
835.059448,455
835.177673,442
835.295959,453
835.414246,430
835.53241,442
835.650635,425
835.768921,441
835.887146,449
836.005371,454
836.123596,430
836.241821,436
836.360046,439
836.478271,438
836.596497,446
836.714722,446
836.832886,456
836.95105,447
837.069336,438
837.1875,454
837.305725,446
837.423889,453
837.542053,462
837.660339,447
837.778503,445
837.896667,443
838.014832,450
838.132996,457
838.25116,445
838.369385,451
838.487488,466
838.605713,431
838.723877,450
838.84198,470
838.960205,437
839.078308,460
839.196472,437
839.314636,448
839.4328,451
839.550964,455
839.669067,432
839.787231,456
839.905396,453
840.023499,450
840.141602,456
840.259766,449
840.377869,450
840.495972,436
840.614136,441
840.732239,464
840.850342,454
840.968445,449
841.086548,455
841.204651,448
841.322754,446
841.440918,445
841.55896,433
841.677002,452
841.795166,442
841.913208,438
842.031311,459
842.149353,451
842.267456,456
842.385498,438
842.503601,459
842.621643,451
842.739746,429
842.857788,454
842.97583,429
843.093933,438
843.211975,449
843.330017,443
843.44812,429
843.566101,441
843.684204,449
843.802246,447
843.920227,437
844.038269,437
844.156311,442
844.274292,451
844.392395,447
844.510376,448
844.628357,434
844.74646,435
844.864441,434
844.982422,443
845.100403,448
845.218384,438
845.336426,439
845.454468,443
845.572449,446
845.69043,448
845.808411,454
845.926453,429
846.044373,447
846.162354,444
846.280396,437
846.398315,439
846.516296,427
846.634216,444
846.752197,459
846.870178,422
846.988098,460
847.106079,445
847.22406,465
847.34198,449
847.4599,429
847.577881,433
847.695801,450
847.813782,446
847.931641,435
848.049561,447
848.167603,432
848.285461,447
848.403381,441
848.521362,451
848.639221,439
848.75708,443
848.875,435
848.99292,439
849.110901,440
849.22876,438
849.34668,447
849.464539,453
849.582458,454
849.700317,454
849.818176,449
849.936096,451
850.053955,447
850.171875,456
850.289673,449
850.407593,437
850.525452,433
850.643311,443
850.761169,443
850.878967,443
850.996887,441
851.114746,451
851.232544,441
851.350403,432
851.468262,439
851.58606,445
851.703979,440
851.821777,435
851.939636,441
852.057434,447
852.175232,472
852.293091,451
852.410889,434
852.528687,447
852.646545,454
852.764343,443
852.88208,448
852.999939,451
853.117676,449
853.235535,467
853.353271,436
853.471069,442
853.588928,435
853.706604,456
853.824402,442
853.9422,429
854.059998,454
854.177734,439
854.295532,434
854.413269,439
854.531006,440
854.648804,434
854.766541,443
854.884277,433
855.002014,459
855.119751,453
855.237549,454
855.355225,453
855.473022,439
855.590698,442
855.708435,407
855.826172,428
855.943848,457
856.061646,459
856.179321,440
856.296997,436
856.414795,435
856.53241,446
856.650085,447
856.767822,446
856.885559,429
857.003174,442
857.120911,440
857.238586,432
857.356201,425
857.473938,437
857.591614,452
857.709351,444
857.826965,443
857.944641,435
858.062317,441
858.179993,439
858.297668,420
858.415283,434
858.532959,443
858.650574,444
858.768188,462
858.885803,459
859.003479,440
859.121094,433
859.23877,457
859.356384,449
859.473999,453
859.591675,436
859.709229,432
859.826843,451
859.944458,448
860.062012,437
860.179626,447
860.297302,442
860.414856,435
860.532471,445
860.650024,450
860.767639,444
860.885193,453
861.002808,434
861.120361,436
861.237976,454
861.35553,461
861.473022,448
861.590698,454
861.708191,444
861.825745,446
861.943298,441
862.060852,445
862.178406,426
862.295959,444
862.413513,444
862.531006,459
862.64856,445
862.766113,427
862.883667,457
863.00116,428
863.118713,438
863.236206,448
863.353699,445
863.471252,444
863.588745,456
863.706177,432
863.82373,445
863.941162,431
864.058716,441
864.176208,434
864.29364,445
864.411194,446
864.528687,440
864.646118,440
864.763611,446
864.881042,460
864.998535,459
865.116028,446
865.233459,440
865.350891,447
865.468384,455
865.585754,424
865.703308,441
865.820679,454
865.938171,445
866.055542,443
866.173035,455
866.290466,471
866.407837,444
866.52533,423
866.6427,458
866.760071,447
866.877563,464
866.994934,435
867.112305,456
867.229736,451
867.347107,437
867.464539,455
867.58197,443
867.699341,431
867.81665,461
867.934082,440
868.051453,446
868.168823,443
868.286194,443
868.403564,449
868.520935,440
868.638306,451
868.755676,443
868.872986,429
868.990295,448
869.107727,428
869.225037,432
869.342346,429
869.459717,449
869.577026,448
869.694336,462
869.811707,437
869.929016,452
870.046326,422
870.163635,450
870.280945,427
870.398254,438
870.515564,451
870.632812,441
870.750183,433
870.867432,447
870.984741,443
871.102051,446
871.219299,444
871.336609,438
871.453918,446
871.571106,447
871.688416,423
871.805664,450
871.922852,433
872.040222,435
872.157471,459
872.274719,443
872.391968,457
872.509155,454
872.626465,447
872.743652,444
872.860962,446
872.978149,439
873.095337,448
873.212646,448
873.329834,438
873.44696,448
873.564209,454
873.681396,464
873.798645,440
873.915894,449
874.03302,438
874.150208,442
874.267456,459
874.384583,436
874.501831,458
874.618958,458
874.736145,443
874.853333,464
874.970459,461
875.087646,452
875.204834,454
875.32196,447
875.439148,446
875.556274,437
875.673401,455
875.790527,466
875.907715,417
876.024841,447
876.141968,457
876.259094,445
876.376282,448
876.493347,443
876.610474,456
876.7276,440
876.844727,446
876.961853,447
877.078918,459
877.195984,441
877.313171,448
877.430237,438
877.547302,458
877.664368,428
877.781433,460
877.898499,446
878.015625,446
878.13269,472
878.249695,462
878.366821,448
878.483887,480
878.600952,438
878.717957,433
878.834961,453
878.952087,456
879.069092,432
879.186157,440
879.303162,453
879.420227,443
879.537231,453
879.654236,447
879.77124,463
879.888306,460
880.005249,450
880.122314,433
880.239319,458
880.356323,446
880.473328,450
880.590271,438
880.707275,445
880.824341,446
880.941284,429
881.058228,438
881.175232,452
881.292236,444
881.40918,455
881.526123,435
881.643066,443
881.760071,432
881.877014,432
881.993958,452
882.11084,446
882.227783,454
882.344727,457
882.46167,453
882.578613,444
882.695618,444
882.812439,449
882.929382,447
883.046326,456
883.163208,463
883.280151,430
883.397034,453
883.513916,446
883.630798,448
883.747742,446
883.864563,440
883.981506,472
884.098389,455
884.21521,459
884.332153,456
884.448975,446
884.565796,445
884.682678,452
884.7995,464
884.916443,463
885.033264,454
885.150085,456
885.266968,448
885.383789,456
885.500671,443
885.617493,448
885.734314,451
885.851196,458
885.967896,446
886.084717,469
886.201599,433
886.318359,448
886.435181,448
886.552002,458
886.668762,456
886.785645,455
886.902344,449
887.019165,451
887.135925,459
887.252747,457
887.369446,461
887.486267,455
887.603027,430
887.719788,468
887.836548,446
887.953247,467
888.070068,454
888.186829,445
888.303528,449
888.420288,466
888.536987,434
888.653687,450
888.770447,441
888.887146,458
889.003967,452
889.120667,446
889.237305,455
889.354065,445
889.470703,434
889.587463,448
889.704163,449
889.820862,461
889.937561,451
890.054199,457
890.170837,464
890.287598,460
890.404236,449
890.520874,437
890.637634,439
890.754211,431
890.87085,438
890.987549,452
891.104187,448
891.220886,453
891.337463,466
891.454102,447
891.57074,473
891.687378,461
891.804077,457
891.920654,457
892.037231,428
892.15387,460
892.270447,458
892.387085,448
892.503723,443
892.6203,442
892.736877,459
892.853516,459
892.970032,433
893.08667,463
893.203186,460
893.319763,456
893.43634,444
893.552917,461
893.669556,444
893.786011,459
893.902588,452
894.019165,440
894.135681,454
894.252197,456
894.368835,460
894.485291,459
894.601868,461
894.718384,474
894.8349,456
894.951355,486
895.067932,439
895.184448,436
895.300964,479
895.417419,467
895.533936,448
895.650452,471
895.766907,466
895.883423,464
895.999878,454
896.116333,473
896.232849,439
896.349304,446
896.465759,449
896.582214,457
896.698669,440
896.815125,457
896.931641,454
897.048035,459
897.164551,455
897.280884,457
897.397339,448
897.513794,457
897.630249,448
897.746582,452
897.863098,439
897.979431,453
898.095886,462
898.212341,444
898.328674,449
898.445129,461
898.561462,466
898.677795,457
898.794312,458
898.910645,457
899.026978,453
899.143433,461
899.259766,466
899.37616,463
899.492493,454
899.608765,454
899.725159,452
899.841553,441
899.957947,444
900.07428,468
900.190552,455
900.306946,446
900.423157,449
900.53949,458
900.655884,443
900.772156,463
900.888489,447
901.004822,462
901.121033,474
901.237366,453
901.353699,441
901.46991,458
901.586304,466
901.702515,471
901.818787,451
901.93512,474
902.051331,485
902.167603,469
902.283875,458
902.400085,447
902.516418,443
902.632629,457
902.74884,456
902.865112,446
902.981384,451
903.097595,452
903.213867,458
903.330017,470
903.446289,479
903.5625,465
903.67865,454
903.794922,456
903.911072,460
904.027344,456
904.143494,471
904.259705,472
904.375916,436
904.492065,470
904.608215,468
904.724426,479
904.840576,459
904.956726,461
905.072876,453
905.189087,480
905.305176,466
905.421387,464
905.537537,456
905.653687,480
905.769775,461
905.885925,468
906.002014,451
906.118164,483
906.234314,452
906.350403,475
906.466492,480
906.582642,448
906.69873,461
906.814758,476
906.930908,452
907.046936,464
907.163086,443
907.279175,481
907.395264,458
907.511353,460
907.62738,450
907.743408,478
907.859497,464
907.975525,455
908.091553,458
908.207703,456
908.32373,461
908.439758,461
908.555786,461
908.671814,458
908.787842,452
908.90387,472
909.019775,455
909.135864,468
909.251892,453
909.367859,450
909.483826,460
909.599854,471
909.715881,442
909.831848,475
909.947815,459
910.063782,460
910.179749,470
910.295776,465
910.411743,466
910.527649,439
910.643616,474
910.759583,460
910.875488,457
910.991455,479
911.107361,463
911.223267,469
911.339294,455
911.4552,455
911.571106,456
911.687073,473
911.802979,456
911.918823,459
912.034729,455
912.150635,454
912.266602,457
912.382446,440
912.498352,460
912.614197,452
912.730103,467
912.846008,466
792.44574,498
792.56488,543
792.68396,575
792.80304,553
792.92218,501
793.041199,482
793.160339,486
793.279419,523
793.398499,498
793.517578,500
793.636658,502
793.755737,519
793.874817,534
793.993896,502
794.112976,514
794.232056,473
794.351074,516
794.470215,506
794.589233,512
794.708313,518
794.827393,486
794.946411,487
795.065552,503
795.18457,495
795.303589,510
795.422668,494
795.541687,510
795.660767,498
795.779846,493
795.898865,500
796.017883,495
796.136963,500
796.255981,473
796.375061,494
796.49408,482
796.613037,512
796.732117,505
796.851135,488
796.970154,479
797.089233,475
797.208191,506
797.327271,513
797.446228,488
797.565186,492
797.684265,479
797.803223,486
797.922241,481
798.04126,476
798.160278,483
798.279297,512
798.398315,498
798.517273,472
798.636292,483
798.75531,496
798.874268,492
798.993286,487
799.112244,476
799.231323,491
799.350281,494
799.469238,495
799.588257,465
799.707153,497
799.826111,506
799.945129,489
800.064087,473
800.183044,485
800.302063,488
800.421021,482
800.539978,485
800.658936,488
800.777893,490
800.896912,503
801.015747,463
801.134705,480
801.253723,475
801.37262,463
801.491638,475
801.610535,467
801.729492,490
801.84845,485
801.967407,481
802.086243,489
802.205261,505
802.324158,490
802.443115,469
802.562073,486
802.680969,476
802.799927,497
802.918762,476
803.037659,462
803.156677,453
803.275574,476
803.39447,478
803.513428,463
803.632263,467
803.751221,507
803.870117,483
803.989014,488
804.107971,456
804.226746,495
804.345642,497
804.4646,478
804.583496,482
804.702393,500
804.821228,466
804.940125,489
805.059021,485
805.177917,491
805.296814,488
805.415649,519
805.534546,476
805.653442,475
805.772278,474
805.891113,487
806.01001,474
806.128906,484
806.247742,481
806.366577,502
806.485413,477
806.604309,491
806.723145,462
806.84198,508
806.960876,481
807.079712,487
807.198486,488
807.317383,463
807.436218,489
807.554993,483
807.673889,467
807.792725,473
807.91156,481
808.030396,477
808.14917,476
808.268005,490
808.386841,463
808.505676,488
808.624451,472
808.743286,462
808.862122,479
808.980896,488
809.099731,488
809.218506,487
809.337341,470
809.456116,490
809.57489,482
809.693726,485
809.8125,461
809.931274,490
810.050049,470
810.168884,454
810.287659,464
810.406372,495
810.525269,476
810.643982,468
810.762756,486
810.881531,482
811.000305,463
811.11908,469
811.237854,486
811.356567,477
811.475403,478
811.594116,468
811.71283,479
811.831604,480
811.950378,475
812.069153,484
812.187927,488
812.30658,478
812.425415,483
812.544128,487
812.662781,477
812.781616,481
812.900269,494
813.019043,477
813.137756,464
813.256531,470
813.375244,491
813.493896,491
813.612671,474
813.731384,498
813.850037,477
813.96875,486
814.087524,471
814.206238,486
814.324951,472
814.443604,474
814.562256,479
814.68103,457
814.799683,479
814.918335,487
815.037109,455
815.155762,478
815.274475,464
815.393188,479
815.511841,467
815.630554,476
815.749146,458
815.867859,469
815.986572,477
816.105164,450
816.223877,465
816.342529,464
816.461182,476
816.579895,452
816.698486,475
816.817139,461
816.935791,463
817.054504,494
817.173096,490
817.291748,470
817.4104,466
817.529053,477
817.647644,460
817.766235,470
817.884949,471
818.00354,463
818.122192,470
818.240845,464
818.359436,440
818.478088,469
818.59668,469
818.715271,463
818.833923,474
818.952515,470
819.071106,473
819.189758,460
819.30835,453
819.426941,461
819.545532,465
819.664124,457
819.782715,478
819.901306,455
820.019897,471
820.138489,452
820.25708,447
820.375671,461
820.494202,454
820.612732,457
820.731384,457
820.849915,475
820.968506,457
821.087097,463
821.205627,477
821.324158,440
821.442749,467
821.561279,474
821.679871,451
821.798401,455
821.916931,462
822.035461,472
822.154053,470
822.272583,457
822.391174,452
822.509583,439
822.628174,453
822.746704,471
822.865234,451
822.983765,453
823.102295,446
823.220825,440
823.339294,476
823.457825,486
823.576355,443
823.694824,462
823.813354,459
823.931885,478
824.050354,453
824.168884,460
824.287354,444
824.405823,438
824.524353,457
824.642822,468
824.761353,447
824.879822,452
824.998291,458
825.116699,446
825.235291,444
825.353699,457
825.472168,462
825.590637,454
825.709106,459
825.827576,460
825.946045,449
826.064453,442
826.182983,448
826.301392,457
826.4198,457
826.53833,456
826.656738,450
826.775208,483
826.893677,451
827.012024,442
827.130493,459
827.248962,452
827.36731,473
827.485779,446
827.604248,450
827.722595,452
827.841064,462
827.959412,456
828.077942,449
828.196289,453
828.314636,458
828.433105,456
828.551514,459
828.669861,446
828.78833,445
828.906677,461
829.025085,428
829.143433,444
829.261841,443
829.38031,444
829.498657,450
829.617004,462
829.735413,472
829.85376,441
829.972107,448
830.090515,453
830.208862,447
830.327209,443
830.445557,445
830.563904,441
830.682312,442
830.800659,443
830.919006,449
831.037354,451
831.155701,463
831.274048,421
831.392395,450
831.51062,451
831.629028,462
831.747314,441
831.865662,459
831.984009,460
832.102356,440
832.220642,465
832.338928,458
832.457275,438
832.575623,431
832.693909,451
832.812134,437
832.930481,445
833.048828,441
833.167114,438
833.2854,454
833.403687,458
833.521973,457
833.640259,446
833.758545,447
833.876831,448
833.995056,425
834.113281,460
834.231628,441
834.349915,458
834.468201,456
834.586426,476
834.704651,442
834.822998,447
834.941162,451
835.059448,462
835.177673,432
835.295959,443
835.414246,450
835.53241,450
835.650635,451
835.768921,481
835.887146,460
836.005371,455
836.123596,433
836.241821,441
836.360046,437
836.478271,446
836.596497,458
836.714722,444
836.832886,444
836.95105,466
837.069336,436
837.1875,455
837.305725,450
837.423889,455
837.542053,443
837.660339,446
837.778503,451
837.896667,443
838.014832,439
838.132996,436
838.25116,467
838.369385,450
838.487488,440
838.605713,458
838.723877,427
838.84198,451
838.960205,454
839.078308,428
839.196472,452
839.314636,456
839.4328,436
839.550964,461
839.669067,449
839.787231,465
839.905396,439
840.023499,457
840.141602,455
840.259766,436
840.377869,470
840.495972,455
840.614136,439
840.732239,438
840.850342,447
840.968445,453
841.086548,469
841.204651,451
841.322754,456
841.440918,438
841.55896,441
841.677002,452
841.795166,453
841.913208,448
842.031311,446
842.149353,444
842.267456,442
842.385498,431
842.503601,447
842.621643,438
842.739746,464
842.857788,465
842.97583,443
843.093933,446
843.211975,429
843.330017,463
843.44812,435
843.566101,462
843.684204,448
843.802246,455
843.920227,450
844.038269,471
844.156311,450
844.274292,461
844.392395,450
844.510376,439
844.628357,430
844.74646,442
844.864441,444
844.982422,442
845.100403,443
845.218384,451
845.336426,466
845.454468,435
845.572449,467
845.69043,461
845.808411,435
845.926453,461
846.044373,436
846.162354,445
846.280396,446
846.398315,459
846.516296,446
846.634216,451
846.752197,454
846.870178,468
846.988098,437
847.106079,456
847.22406,432
847.34198,444
847.4599,430
847.577881,447
847.695801,452
847.813782,438
847.931641,434
848.049561,445
848.167603,456
848.285461,463
848.403381,445
848.521362,440
848.639221,451
848.75708,435
848.875,455
848.99292,452
849.110901,442
849.22876,454
849.34668,450
849.464539,466
849.582458,440
849.700317,433
849.818176,453
849.936096,439
850.053955,463
850.171875,449
850.289673,453
850.407593,441
850.525452,453
850.643311,463
850.761169,434
850.878967,436
850.996887,428
851.114746,459
851.232544,466
851.350403,448
851.468262,457
851.58606,462
851.703979,427
851.821777,450
851.939636,446
852.057434,440
852.175232,438
852.293091,451
852.410889,447
852.528687,448
852.646545,441
852.764343,442
852.88208,447
852.999939,469
853.117676,461
853.235535,444
853.353271,455
853.471069,451
853.588928,435
853.706604,437
853.824402,450
853.9422,444
854.059998,447
854.177734,439
854.295532,437
854.413269,435
854.531006,456
854.648804,436
854.766541,455
854.884277,449
855.002014,442
855.119751,425
855.237549,441
855.355225,452
855.473022,456
855.590698,458
855.708435,429
855.826172,453
855.943848,453
856.061646,469
856.179321,437
856.296997,458
856.414795,443
856.53241,439
856.650085,455
856.767822,439
856.885559,454
857.003174,439
857.120911,459
857.238586,444
857.356201,449
857.473938,464
857.591614,445
857.709351,451
857.826965,443
857.944641,465
858.062317,462
858.179993,442
858.297668,445
858.415283,445
858.532959,449
858.650574,450
858.768188,456
858.885803,433
859.003479,451
859.121094,440
859.23877,453
859.356384,452
859.473999,460
859.591675,432
859.709229,419
859.826843,437
859.944458,439
860.062012,449
860.179626,452
860.297302,437
860.414856,449
860.532471,436
860.650024,451
860.767639,448
860.885193,451
861.002808,457
861.120361,446
861.237976,450
861.35553,441
861.473022,457
861.590698,444
861.708191,438
861.825745,452
861.943298,456
862.060852,456
862.178406,454
862.295959,445
862.413513,444
862.531006,441
862.64856,444
862.766113,444
862.883667,449
863.00116,443
863.118713,439
863.236206,445
863.353699,450
863.471252,452
863.588745,457
863.706177,458
863.82373,446
863.941162,438
864.058716,447
864.176208,442
864.29364,423
864.411194,457
864.528687,435
864.646118,432
864.763611,440
864.881042,447
864.998535,429
865.116028,440
865.233459,443
865.350891,454
865.468384,452
865.585754,449
865.703308,453
865.820679,437
865.938171,446
866.055542,439
866.173035,454
866.290466,444
866.407837,444
866.52533,447
866.6427,459
866.760071,443
866.877563,440
866.994934,464
867.112305,456
867.229736,457
867.347107,427
867.464539,451
867.58197,447
867.699341,445
867.81665,469
867.934082,460
868.051453,448
868.168823,449
868.286194,461
868.403564,437
868.520935,453
868.638306,476
868.755676,422
868.872986,433
868.990295,447
869.107727,433
869.225037,448
869.342346,443
869.459717,468
869.577026,454
869.694336,453
869.811707,446
869.929016,446
870.046326,449
870.163635,430
870.280945,428
870.398254,450
870.515564,452
870.632812,457
870.750183,456
870.867432,444
870.984741,448
871.102051,449
871.219299,450
871.336609,440
871.453918,456
871.571106,441
871.688416,438
871.805664,447
871.922852,455
872.040222,450
872.157471,449
872.274719,458
872.391968,461
872.509155,456
872.626465,443
872.743652,447
872.860962,445
872.978149,454
873.095337,453
873.212646,438
873.329834,452
873.44696,448
873.564209,447
873.681396,441
873.798645,444
873.915894,449
874.03302,437
874.150208,460
874.267456,474
874.384583,441
874.501831,456
874.618958,454
874.736145,452
874.853333,440
874.970459,447
875.087646,452
875.204834,435
875.32196,452
875.439148,439
875.556274,455
875.673401,457
875.790527,451
875.907715,443
876.024841,447
876.141968,458
876.259094,448
876.376282,456
876.493347,450
876.610474,455
876.7276,453
876.844727,449
876.961853,449
877.078918,471
877.195984,454
877.313171,445
877.430237,441
877.547302,442
877.664368,462
877.781433,447
877.898499,433
878.015625,448
878.13269,451
878.249695,455
878.366821,446
878.483887,454
878.600952,443
878.717957,436
878.834961,452
878.952087,465
879.069092,451
879.186157,445
879.303162,441
879.420227,467
879.537231,430
879.654236,436
879.77124,450
879.888306,436
880.005249,442
880.122314,433
880.239319,468
880.356323,432
880.473328,441
880.590271,442
880.707275,437
880.824341,446
880.941284,440
881.058228,460
881.175232,453
881.292236,447
881.40918,458
881.526123,456
881.643066,440
881.760071,464
881.877014,458
881.993958,456
882.11084,452
882.227783,467
882.344727,445
882.46167,446
882.578613,476
882.695618,448
882.812439,453
882.929382,444
883.046326,457
883.163208,453
883.280151,469
883.397034,447
883.513916,456
883.630798,477
883.747742,446
883.864563,464
883.981506,430
884.098389,448
884.21521,456
884.332153,448
884.448975,450
884.565796,478
884.682678,438
884.7995,451
884.916443,455
885.033264,429
885.150085,479
885.266968,460
885.383789,459
885.500671,473
885.617493,468
885.734314,452
885.851196,470
885.967896,438
886.084717,464
886.201599,453
886.318359,458
886.435181,454
886.552002,459
886.668762,451
886.785645,463
886.902344,446
887.019165,459
887.135925,446
887.252747,458
887.369446,456
887.486267,467
887.603027,440
887.719788,442
887.836548,454
887.953247,457
888.070068,453
888.186829,450
888.303528,436
888.420288,454
888.536987,473
888.653687,443
888.770447,450
888.887146,455
889.003967,446
889.120667,441
889.237305,469
889.354065,479
889.470703,443
889.587463,447
889.704163,460
889.820862,456
889.937561,450
890.054199,467
890.170837,448
890.287598,463
890.404236,428
890.520874,445
890.637634,463
890.754211,450
890.87085,441
890.987549,445
891.104187,463
891.220886,454
891.337463,446
891.454102,457
891.57074,451
891.687378,455
891.804077,468
891.920654,456
892.037231,453
892.15387,464
892.270447,461
892.387085,451
892.503723,453
892.6203,455
892.736877,454
892.853516,456
892.970032,437
893.08667,451
893.203186,453
893.319763,467
893.43634,448
893.552917,479
893.669556,466
893.786011,467
893.902588,435
894.019165,457
894.135681,475
894.252197,471
894.368835,468
894.485291,451
894.601868,464
894.718384,469
894.8349,457
894.951355,456
895.067932,450
895.184448,445
895.300964,455
895.417419,471
895.533936,454
895.650452,456
895.766907,453
895.883423,446
895.999878,459
896.116333,468
896.232849,440
896.349304,457
896.465759,439
896.582214,470
896.698669,456
896.815125,456
896.931641,465
897.048035,464
897.164551,460
897.280884,460
897.397339,473
897.513794,458
897.630249,450
897.746582,469
897.863098,464
897.979431,464
898.095886,467
898.212341,463
898.328674,455
898.445129,462
898.561462,461
898.677795,445
898.794312,436
898.910645,476
899.026978,444
899.143433,466
899.259766,457
899.37616,461
899.492493,466
899.608765,451
899.725159,445
899.841553,465
899.957947,464
900.07428,450
900.190552,464
900.306946,468
900.423157,452
900.53949,455
900.655884,451
900.772156,460
900.888489,444
901.004822,461
901.121033,473
901.237366,453
901.353699,447
901.46991,460
901.586304,453
901.702515,468
901.818787,453
901.93512,455
902.051331,437
902.167603,453
902.283875,449
902.400085,466
902.516418,449
902.632629,449
902.74884,451
902.865112,463
902.981384,470
903.097595,457
903.213867,450
903.330017,455
903.446289,464
903.5625,466
903.67865,459
903.794922,472
903.911072,463
904.027344,483
904.143494,463
904.259705,448
904.375916,462
904.492065,454
904.608215,465
904.724426,460
904.840576,476
904.956726,480
905.072876,453
905.189087,478
905.305176,467
905.421387,475
905.537537,464
905.653687,463
905.769775,474
905.885925,460
906.002014,432
906.118164,466
906.234314,471
906.350403,460
906.466492,466
906.582642,455
906.69873,469
906.814758,464
906.930908,485
907.046936,469
907.163086,448
907.279175,449
907.395264,457
907.511353,485
907.62738,479
907.743408,455
907.859497,463
907.975525,469
908.091553,475
908.207703,462
908.32373,440
908.439758,463
908.555786,460
908.671814,457
908.787842,461
908.90387,475
909.019775,472
909.135864,483
909.251892,439
909.367859,448
909.483826,483
909.599854,465
909.715881,473
909.831848,460
909.947815,477
910.063782,457
910.179749,440
910.295776,475
910.411743,445
910.527649,464
910.643616,453
910.759583,469
910.875488,484
910.991455,461
911.107361,455
911.223267,464
911.339294,444
911.4552,456
911.571106,462
911.687073,464
911.802979,482
911.918823,470
912.034729,484
912.150635,467
912.266602,472
912.382446,473
912.498352,478
912.614197,481
912.730103,463
912.846008,490
