792.44574,9174
792.56488,8504
792.68396,7981
792.80304,7410
792.92218,6892
793.041199,6448
793.160339,6028
793.279419,5613
793.398499,5342
793.517578,5054
793.636658,4718
793.755737,4470
793.874817,4180
793.993896,4080
794.112976,3886
794.232056,3772
794.351074,3543
794.470215,3379
794.589233,3294
794.708313,3208
794.827393,3027
794.946411,3017
795.065552,2958
795.18457,2880
795.303589,2845
795.422668,2812
795.541687,2790
795.660767,2713
795.779846,2728
795.898865,2724
796.017883,2604
796.136963,2634
796.255981,2654
796.375061,2641
796.49408,2599
796.613037,2576
796.732117,2462
796.851135,2513
796.970154,2372
797.089233,2421
797.208191,2368
797.327271,2299
797.446228,2298
797.565186,2346
797.684265,2267
797.803223,2238
797.922241,2205
798.04126,2241
798.160278,2248
798.279297,2212
798.398315,2286
798.517273,2282
798.636292,2260
798.75531,2274
798.874268,2364
798.993286,2377
799.112244,2348
799.231323,2377
799.350281,2433
799.469238,2506
799.588257,2470
799.707153,2502
799.826111,2472
799.945129,2459
800.064087,2404
800.183044,2278
800.302063,2231
800.421021,2151
800.539978,2010
800.658936,1924
800.777893,1844
800.896912,1718
801.015747,1678
801.134705,1540
801.253723,1526
801.37262,1485
801.491638,1471
801.610535,1438
801.729492,1425
801.84845,1375
801.967407,1374
802.086243,1410
802.205261,1368
802.324158,1358
802.443115,1339
802.562073,1383
802.680969,1388
802.799927,1309
802.918762,1364
803.037659,1316
803.156677,1296
803.275574,1300
803.39447,1287
803.513428,1317
803.632263,1279
803.751221,1286
803.870117,1280
803.989014,1259
804.107971,1223
804.226746,1247
804.345642,1222
804.4646,1246
804.583496,1218
804.702393,1207
804.821228,1195
804.940125,1198
805.059021,1170
805.177917,1188
805.296814,1177
805.415649,1208
805.534546,1192
805.653442,1241
805.772278,1222
805.891113,1229
806.01001,1225
806.128906,1257
806.247742,1177
806.366577,1216
806.485413,1264
806.604309,1262
806.723145,1249
806.84198,1258
806.960876,1220
807.079712,1211
807.198486,1209
807.317383,1200
807.436218,1198
807.554993,1196
807.673889,1204
807.792725,1165
807.91156,1147
808.030396,1191
808.14917,1162
808.268005,1179
808.386841,1195
808.505676,1185
808.624451,1214
808.743286,1233
808.862122,1154
808.980896,1176
809.099731,1182
809.218506,1221
809.337341,1215
809.456116,1210
809.57489,1225
809.693726,1210
809.8125,1226
809.931274,1235
810.050049,1270
810.168884,1269
810.287659,1280
810.406372,1267
810.525269,1265
810.643982,1283
810.762756,1261
810.881531,1321
811.000305,1276
811.11908,1296
811.237854,1361
811.356567,1308
811.475403,1345
811.594116,1365
811.71283,1375
811.831604,1357
811.950378,1332
812.069153,1301
812.187927,1272
812.30658,1311
812.425415,1274
812.544128,1247
812.662781,1217
812.781616,1224
812.900269,1240
813.019043,1183
813.137756,1215
813.256531,1182
813.375244,1176
813.493896,1204
813.612671,1196
813.731384,1153
813.850037,1194
813.96875,1156
814.087524,1155
814.206238,1159
814.324951,1157
814.443604,1166
814.562256,1157
814.68103,1168
814.799683,1101
814.918335,1154
815.037109,1117
815.155762,1065
815.274475,1112
815.393188,1106
815.511841,1103
815.630554,1141
815.749146,1127
815.867859,1106
815.986572,1078
816.105164,1056
816.223877,1088
816.342529,1115
816.461182,1125
816.579895,1083
816.698486,1067
816.817139,1125
816.935791,1091
817.054504,1098
817.173096,1083
817.291748,1074
817.4104,1053
817.529053,1094
817.647644,1072
817.766235,1098
817.884949,1076
818.00354,1092
818.122192,1064
818.240845,1087
818.359436,1063
818.478088,1069
818.59668,1106
818.715271,1079
818.833923,1063
818.952515,1096
819.071106,1070
819.189758,1081
819.30835,1084
819.426941,1078
819.545532,1105
819.664124,1090
819.782715,1115
819.901306,1156
820.019897,1146
820.138489,1111
820.25708,1146
820.375671,1149
820.494202,1158
820.612732,1164
820.731384,1165
820.849915,1130
820.968506,1155
821.087097,1137
821.205627,1124
821.324158,1126
821.442749,1137
821.561279,1133
821.679871,1130
821.798401,1134
821.916931,1102
822.035461,1099
822.154053,1157
822.272583,1098
822.391174,1091
822.509583,1087
822.628174,1073
822.746704,1070
822.865234,1090
822.983765,1051
823.102295,1056
823.220825,1055
823.339294,1055
823.457825,1077
823.576355,1050
823.694824,1054
823.813354,1042
823.931885,1078
824.050354,1039
824.168884,1050
824.287354,1098
824.405823,1097
824.524353,1058
824.642822,1085
824.761353,1084
824.879822,1076
824.998291,1045
825.116699,1087
825.235291,1088
825.353699,1152
825.472168,1311
825.590637,1457
825.709106,1784
825.827576,1981
825.946045,2179
826.064453,1955
826.182983,1673
826.301392,1352
826.4198,1231
826.53833,1162
826.656738,1115
826.775208,1116
826.893677,1052
827.012024,1038
827.130493,1015
827.248962,1021
827.36731,1017
827.485779,997
827.604248,995
827.722595,1021
827.841064,967
827.959412,983
828.077942,967
828.196289,1022
828.314636,1009
828.433105,1014
828.551514,983
828.669861,998
828.78833,969
828.906677,959
829.025085,971
829.143433,987
829.261841,993
829.38031,986
829.498657,971
829.617004,989
829.735413,981
829.85376,959
829.972107,942
830.090515,965
830.208862,953
830.327209,969
830.445557,971
830.563904,964
830.682312,963
830.800659,959
830.919006,982
831.037354,992
831.155701,1007
831.274048,967
831.392395,962
831.51062,1006
831.629028,1006
831.747314,1006
831.865662,991
831.984009,995
832.102356,981
832.220642,985
832.338928,985
832.457275,972
832.575623,976
832.693909,955
832.812134,969
832.930481,975
833.048828,1007
833.167114,994
833.2854,1011
833.403687,1009
833.521973,1043
833.640259,1054
833.758545,1085
833.876831,1096
833.995056,1110
834.113281,1126
834.231628,1149
834.349915,1179
834.468201,1157
834.586426,1203
834.704651,1256
834.822998,1213
834.941162,1226
835.059448,1286
835.177673,1253
835.295959,1299
835.414246,1264
835.53241,1314
835.650635,1297
835.768921,1269
835.887146,1289
836.005371,1285
836.123596,1247
836.241821,1239
836.360046,1206
836.478271,1192
836.596497,1194
836.714722,1214
836.832886,1226
836.95105,1286
837.069336,1328
837.1875,1313
837.305725,1370
837.423889,1423
837.542053,1468
837.660339,1509
837.778503,1611
837.896667,1616
838.014832,1641
838.132996,1609
838.25116,1544
838.369385,1494
838.487488,1422
838.605713,1346
838.723877,1276
838.84198,1261
838.960205,1260
839.078308,1185
839.196472,1161
839.314636,1131
839.4328,1097
839.550964,1132
839.669067,1056
839.787231,1054
839.905396,1039
840.023499,1036
840.141602,1044
840.259766,1014
840.377869,1026
840.495972,1040
840.614136,1039
840.732239,1073
840.850342,1110
840.968445,1120
841.086548,1105
841.204651,1148
841.322754,1156
841.440918,1127
841.55896,1120
841.677002,1113
841.795166,1124
841.913208,1083
842.031311,1029
842.149353,1095
842.267456,1041
842.385498,1070
842.503601,1041
842.621643,1045
842.739746,1048
842.857788,1035
842.97583,1091
843.093933,1058
843.211975,1088
843.330017,1045
843.44812,1056
843.566101,1037
843.684204,1076
843.802246,1075
843.920227,1060
844.038269,1057
844.156311,1026
844.274292,1069
844.392395,1044
844.510376,1063
844.628357,1047
844.74646,1050
844.864441,1076
844.982422,1079
845.100403,1103
845.218384,1070
845.336426,1075
845.454468,1139
845.572449,1139
845.69043,1136
845.808411,1160
845.926453,1136
846.044373,1156
846.162354,1099
846.280396,1085
846.398315,1070
846.516296,1042
846.634216,1052
846.752197,1024
846.870178,1042
846.988098,1046
847.106079,1064
847.22406,1008
847.34198,1009
847.4599,1030
847.577881,1019
847.695801,1020
847.813782,1047
847.931641,1048
848.049561,1055
848.167603,1014
848.285461,1006
848.403381,1046
848.521362,1033
848.639221,1059
848.75708,1027
848.875,1032
848.99292,1073
849.110901,1016
849.22876,1100
849.34668,1075
849.464539,1075
849.582458,1077
849.700317,1064
849.818176,1066
849.936096,1080
850.053955,1113
850.171875,1127
850.289673,1058
850.407593,1100
850.525452,1055
850.643311,1072
850.761169,1083
850.878967,1160
850.996887,1159
851.114746,1190
851.232544,1204
851.350403,1326
851.468262,1366
851.58606,1460
851.703979,1548
851.821777,1664
851.939636,1810
852.057434,2102
852.175232,2778
852.293091,4051
852.410889,5368
852.528687,6397
852.646545,6786
852.764343,5938
852.88208,4630
852.999939,3233
853.117676,2339
853.235535,1743
853.353271,1484
853.471069,1321
853.588928,1262
853.706604,1268
853.824402,1245
853.9422,1288
854.059998,1368
854.177734,1467
854.295532,1649
854.413269,1941
854.531006,2196
854.648804,2489
854.766541,2591
854.884277,2555
855.002014,2363
855.119751,2101
855.237549,1814
855.355225,1685
855.473022,1472
855.590698,1394
855.708435,1294
855.826172,1292
855.943848,1257
856.061646,1233
856.179321,1209
856.296997,1241
856.414795,1167
856.53241,1190
856.650085,1191
856.767822,1197
856.885559,1207
857.003174,1153
857.120911,1218
857.238586,1216
857.356201,1241
857.473938,1236
857.591614,1262
857.709351,1280
857.826965,1275
857.944641,1262
858.062317,1211
858.179993,1216
858.297668,1209
858.415283,1240
858.532959,1204
858.650574,1195
858.768188,1201
858.885803,1204
859.003479,1191
859.121094,1226
859.23877,1180
859.356384,1209
859.473999,1184
859.591675,1200
859.709229,1220
859.826843,1222
859.944458,1192
860.062012,1157
860.179626,1197
860.297302,1149
860.414856,1156
860.532471,1129
860.650024,1095
860.767639,1097
860.885193,1062
861.002808,1037
861.120361,1073
861.237976,1035
861.35553,1037
861.473022,1026
861.590698,1022
861.708191,1030
861.825745,1035
861.943298,1061
862.060852,1027
862.178406,1035
862.295959,1041
862.413513,993
862.531006,1044
862.64856,1038
862.766113,1073
862.883667,1096
863.00116,1155
863.118713,1163
863.236206,1177
863.353699,1259
863.471252,1368
863.588745,1445
863.706177,1558
863.82373,1627
863.941162,1703
864.058716,1617
864.176208,1567
864.29364,1456
864.411194,1410
864.528687,1366
864.646118,1262
864.763611,1283
864.881042,1280
864.998535,1295
865.116028,1340
865.233459,1363
865.350891,1406
865.468384,1573
865.585754,1699
865.703308,1826
865.820679,1865
865.938171,1968
866.055542,1892
866.173035,1818
866.290466,1777
866.407837,1780
866.52533,1772
866.6427,1777
866.760071,1780
866.877563,1901
866.994934,1841
867.112305,1863
867.229736,1834
867.347107,1913
867.464539,1797
867.58197,1779
867.699341,1718
867.81665,1608
867.934082,1539
868.051453,1464
868.168823,1428
868.286194,1375
868.403564,1342
868.520935,1322
868.638306,1292
868.755676,1301
868.872986,1272
868.990295,1259
869.107727,1236
869.225037,1228
869.342346,1236
869.459717,1200
869.577026,1220
869.694336,1219
869.811707,1180
869.929016,1171
870.046326,1167
870.163635,1184
870.280945,1188
870.398254,1182
870.515564,1168
870.632812,1166
870.750183,1174
870.867432,1191
870.984741,1137
871.102051,1145
871.219299,1177
871.336609,1161
871.453918,1136
871.571106,1139
871.688416,1182
871.805664,1156
871.922852,1125
872.040222,1161
872.157471,1148
872.274719,1209
872.391968,1145
872.509155,1184
872.626465,1160
872.743652,1174
872.860962,1208
872.978149,1158
873.095337,1180
873.212646,1187
873.329834,1191
873.44696,1183
873.564209,1222
873.681396,1194
873.798645,1234
873.915894,1222
874.03302,1229
874.150208,1238
874.267456,1246
874.384583,1227
874.501831,1275
874.618958,1266
874.736145,1251
874.853333,1315
874.970459,1319
875.087646,1288
875.204834,1321
875.32196,1319
875.439148,1309
875.556274,1337
875.673401,1370
875.790527,1423
875.907715,1397
876.024841,1398
876.141968,1415
876.259094,1416
876.376282,1418
876.493347,1477
876.610474,1451
876.7276,1488
876.844727,1460
876.961853,1462
877.078918,1480
877.195984,1466
877.313171,1489
877.430237,1510
877.547302,1421
877.664368,1472
877.781433,1435
877.898499,1432
878.015625,1420
878.13269,1368
878.249695,1397
878.366821,1384
878.483887,1381
878.600952,1385
878.717957,1373
878.834961,1350
878.952087,1398
879.069092,1368
879.186157,1375
879.303162,1384
879.420227,1362
879.537231,1382
879.654236,1374
879.77124,1375
879.888306,1378
880.005249,1370
880.122314,1412
880.239319,1441
880.356323,1372
880.473328,1369
880.590271,1377
880.707275,1337
880.824341,1368
880.941284,1309
881.058228,1315
881.175232,1305
881.292236,1321
881.40918,1325
881.526123,1330
881.643066,1290
881.760071,1308
881.877014,1283
881.993958,1296
882.11084,1280
882.227783,1292
882.344727,1254
882.46167,1264
882.578613,1284
882.695618,1268
882.812439,1265
882.929382,1259
883.046326,1277
883.163208,1316
883.280151,1270
883.397034,1257
883.513916,1255
883.630798,1277
883.747742,1271
883.864563,1236
883.981506,1256
884.098389,1285
884.21521,1261
884.332153,1237
884.448975,1277
884.565796,1273
884.682678,1285
884.7995,1254
884.916443,1260
885.033264,1301
885.150085,1321
885.266968,1313
885.383789,1375
885.500671,1346
885.617493,1406
885.734314,1397
885.851196,1438
885.967896,1444
886.084717,1532
886.201599,1539
886.318359,1510
886.435181,1540
886.552002,1541
886.668762,1474
886.785645,1428
886.902344,1376
887.019165,1343
887.135925,1288
887.252747,1243
887.369446,1216
887.486267,1264
887.603027,1232
887.719788,1254
887.836548,1237
887.953247,1225
888.070068,1205
888.186829,1236
888.303528,1218
888.420288,1208
888.536987,1224
888.653687,1253
888.770447,1213
888.887146,1255
889.003967,1197
889.120667,1224
889.237305,1208
889.354065,1216
889.470703,1206
889.587463,1217
889.704163,1294
889.820862,1251
889.937561,1253
890.054199,1210
890.170837,1227
890.287598,1193
890.404236,1224
890.520874,1221
890.637634,1207
890.754211,1233
890.87085,1204
890.987549,1236
891.104187,1192
891.220886,1215
891.337463,1236
891.454102,1215
891.57074,1186
891.687378,1254
891.804077,1207
891.920654,1244
892.037231,1206
892.15387,1253
892.270447,1246
892.387085,1241
892.503723,1184
892.6203,1182
892.736877,1189
892.853516,1229
892.970032,1223
893.08667,1234
893.203186,1219
893.319763,1217
893.43634,1207
893.552917,1198
893.669556,1223
893.786011,1224
893.902588,1213
894.019165,1168
894.135681,1206
894.252197,1222
894.368835,1228
894.485291,1218
894.601868,1185
894.718384,1254
894.8349,1217
894.951355,1223
895.067932,1221
895.184448,1224
895.300964,1239
895.417419,1288
895.533936,1264
895.650452,1177
895.766907,1255
895.883423,1256
895.999878,1315
896.116333,1282
896.232849,1303
896.349304,1343
896.465759,1309
896.582214,1501
896.698669,1583
896.815125,1671
896.931641,1658
897.048035,1671
897.164551,1615
897.280884,1524
897.397339,1472
897.513794,1450
897.630249,1463
897.746582,1513
897.863098,1576
897.979431,1734
898.095886,1860
898.212341,2047
898.328674,2215
898.445129,2254
898.561462,2233
898.677795,2067
898.794312,1931
898.910645,1809
899.026978,1636
899.143433,1500
899.259766,1455
899.37616,1329
899.492493,1278
899.608765,1288
899.725159,1258
899.841553,1238
899.957947,1255
900.07428,1216
900.190552,1215
900.306946,1227
900.423157,1200
900.53949,1199
900.655884,1220
900.772156,1251
900.888489,1188
901.004822,1205
901.121033,1216
901.237366,1227
901.353699,1159
901.46991,1200
901.586304,1180
901.702515,1189
901.818787,1185
901.93512,1201
902.051331,1155
902.167603,1193
902.283875,1137
902.400085,1198
902.516418,1169
902.632629,1198
902.74884,1162
902.865112,1178
902.981384,1163
903.097595,1243
903.213867,1181
903.330017,1209
903.446289,1165
903.5625,1163
903.67865,1185
903.794922,1165
903.911072,1217
904.027344,1180
904.143494,1186
904.259705,1148
904.375916,1172
904.492065,1170
904.608215,1227
904.724426,1171
904.840576,1157
904.956726,1131
905.072876,1176
905.189087,1178
905.305176,1171
905.421387,1163
905.537537,1194
905.653687,1194
905.769775,1201
905.885925,1167
906.002014,1175
906.118164,1184
906.234314,1144
906.350403,1170
906.466492,1226
906.582642,1190
906.69873,1192
906.814758,1132
906.930908,1136
907.046936,1145
907.163086,1149
907.279175,1135
907.395264,1196
907.511353,1143
907.62738,1145
907.743408,1151
907.859497,1168
907.975525,1132
908.091553,1159
908.207703,1165
908.32373,1122
908.439758,1144
908.555786,1145
908.671814,1162
908.787842,1150
908.90387,1163
909.019775,1185
909.135864,1142
909.251892,1123
909.367859,1151
909.483826,1157
909.599854,1164
909.715881,1159
909.831848,1146
909.947815,1157
910.063782,1166
910.179749,1118
910.295776,1156
910.411743,1160
910.527649,1151
910.643616,1185
910.759583,1162
910.875488,1180
910.991455,1162
911.107361,1161
911.223267,1159
911.339294,1175
911.4552,1167
911.571106,1115
911.687073,1153
911.802979,1129
911.918823,1163
912.034729,1100
912.150635,1223
912.266602,1150
912.382446,1148
912.498352,1127
912.614197,1149
912.730103,1145
912.846008,1123
792.44574,9184
792.56488,8593
792.68396,7933
792.80304,7431
792.92218,6873
793.041199,6488
793.160339,5985
793.279419,5653
793.398499,5299
793.517578,4909
793.636658,4747
793.755737,4464
793.874817,4214
793.993896,3990
794.112976,3866
794.232056,3670
794.351074,3494
794.470215,3469
794.589233,3254
794.708313,3148
794.827393,3158
794.946411,2899
795.065552,2952
795.18457,2852
795.303589,2884
795.422668,2801
795.541687,2768
795.660767,2695
795.779846,2713
795.898865,2705
796.017883,2619
796.136963,2620
796.255981,2648
796.375061,2615
796.49408,2598
796.613037,2514
796.732117,2540
796.851135,2480
796.970154,2420
797.089233,2405
797.208191,2372
797.327271,2265
797.446228,2286
797.565186,2265
797.684265,2240
797.803223,2223
797.922241,2177
798.04126,2251
798.160278,2246
798.279297,2199
798.398315,2289
798.517273,2260
798.636292,2277
798.75531,2269
798.874268,2326
798.993286,2414
799.112244,2368
799.231323,2434
799.350281,2467
799.469238,2430
799.588257,2534
799.707153,2486
799.826111,2471
799.945129,2444
800.064087,2428
800.183044,2264
800.302063,2255
800.421021,2099
800.539978,2010
800.658936,1862
800.777893,1852
800.896912,1747
801.015747,1622
801.134705,1606
801.253723,1502
801.37262,1442
801.491638,1403
801.610535,1402
801.729492,1383
801.84845,1327
801.967407,1317
802.086243,1378
802.205261,1347
802.324158,1282
802.443115,1347
802.562073,1311
802.680969,1348
802.799927,1312
802.918762,1274
803.037659,1353
803.156677,1317
803.275574,1295
803.39447,1274
803.513428,1283
803.632263,1273
803.751221,1290
803.870117,1266
803.989014,1257
804.107971,1272
804.226746,1222
804.345642,1242
804.4646,1214
804.583496,1200
804.702393,1178
804.821228,1197
804.940125,1225
805.059021,1188
805.177917,1192
805.296814,1211
805.415649,1165
805.534546,1180
805.653442,1170
805.772278,1209
805.891113,1194
806.01001,1198
806.128906,1216
806.247742,1203
806.366577,1208
806.485413,1217
806.604309,1177
806.723145,1226
806.84198,1233
806.960876,1210
807.079712,1190
807.198486,1220
807.317383,1165
807.436218,1220
807.554993,1166
807.673889,1196
807.792725,1165
807.91156,1125
808.030396,1180
808.14917,1161
808.268005,1172
808.386841,1136
808.505676,1149
808.624451,1186
808.743286,1180
808.862122,1179
808.980896,1134
809.099731,1197
809.218506,1165
809.337341,1214
809.456116,1157
809.57489,1211
809.693726,1175
809.8125,1224
809.931274,1178
810.050049,1237
810.168884,1249
810.287659,1261
810.406372,1211
810.525269,1270
810.643982,1236
810.762756,1268
810.881531,1271
811.000305,1250
811.11908,1280
811.237854,1288
811.356567,1327
811.475403,1304
811.594116,1343
811.71283,1361
811.831604,1319
811.950378,1301
812.069153,1269
812.187927,1290
812.30658,1267
812.425415,1249
812.544128,1214
812.662781,1209
812.781616,1214
812.900269,1214
813.019043,1178
813.137756,1168
813.256531,1187
813.375244,1144
813.493896,1166
813.612671,1173
813.731384,1148
813.850037,1170
813.96875,1169
814.087524,1148
814.206238,1123
814.324951,1116
814.443604,1115
814.562256,1081
814.68103,1125
814.799683,1083
814.918335,1065
815.037109,1097
815.155762,1126
815.274475,1098
815.393188,1087
815.511841,1051
815.630554,1098
815.749146,1089
815.867859,1055
815.986572,1106
816.105164,1078
816.223877,1071
816.342529,1066
816.461182,1081
816.579895,1057
816.698486,1054
816.817139,1072
816.935791,1066
817.054504,1084
817.173096,1055
817.291748,1044
817.4104,1069
817.529053,1065
817.647644,1082
817.766235,1055
817.884949,1078
818.00354,1067
818.122192,1061
818.240845,1091
818.359436,1087
818.478088,1040
818.59668,1080
818.715271,1080
818.833923,1063
818.952515,1063
819.071106,1064
819.189758,1045
819.30835,1053
819.426941,1057
819.545532,1130
819.664124,1090
819.782715,1082
819.901306,1067
820.019897,1097
820.138489,1123
820.25708,1170
820.375671,1156
820.494202,1134
820.612732,1156
820.731384,1163
820.849915,1134
820.968506,1128
821.087097,1115
821.205627,1118
821.324158,1126
821.442749,1095
821.561279,1092
821.679871,1109
821.798401,1068
821.916931,1120
822.035461,1041
822.154053,1102
822.272583,1067
822.391174,1086
822.509583,1064
822.628174,1087
822.746704,1076
822.865234,1040
822.983765,1061
823.102295,1065
823.220825,1043
823.339294,1089
823.457825,1044
823.576355,1026
823.694824,1020
823.813354,1026
823.931885,1025
824.050354,1000
824.168884,1021
824.287354,1018
824.405823,1020
824.524353,1027
824.642822,1032
824.761353,1014
824.879822,1058
824.998291,1026
825.116699,1049
825.235291,1074
825.353699,1151
825.472168,1241
825.590637,1462
825.709106,1747
825.827576,1969
825.946045,2121
826.064453,1964
826.182983,1654
826.301392,1401
826.4198,1227
826.53833,1113
826.656738,1098
826.775208,1025
826.893677,1084
827.012024,1001
827.130493,1002
827.248962,984
827.36731,994
827.485779,991
827.604248,1000
827.722595,1002
827.841064,962
827.959412,989
828.077942,979
828.196289,977
828.314636,977
828.433105,959
828.551514,988
828.669861,918
828.78833,968
828.906677,939
829.025085,963
829.143433,960
829.261841,951
829.38031,958
829.498657,943
829.617004,939
829.735413,973
829.85376,978
829.972107,974
830.090515,964
830.208862,939
830.327209,973
830.445557,963
830.563904,934
830.682312,959
830.800659,913
830.919006,980
831.037354,989
831.155701,994
831.274048,983
831.392395,1006
831.51062,984
831.629028,1004
831.747314,992
831.865662,979
831.984009,960
832.102356,977
832.220642,962
832.338928,970
832.457275,993
832.575623,962
832.693909,960
832.812134,970
832.930481,971
833.048828,944
833.167114,973
833.2854,937
833.403687,990
833.521973,1024
833.640259,1023
833.758545,1104
833.876831,1107
833.995056,1111
834.113281,1114
834.231628,1154
834.349915,1158
834.468201,1189
834.586426,1177
834.704651,1183
834.822998,1198
834.941162,1278
835.059448,1242
835.177673,1241
835.295959,1290
835.414246,1293
835.53241,1263
835.650635,1265
835.768921,1302
835.887146,1276
836.005371,1262
836.123596,1268
836.241821,1228
836.360046,1180
836.478271,1222
836.596497,1158
836.714722,1199
836.832886,1198
836.95105,1277
837.069336,1280
837.1875,1335
837.305725,1344
837.423889,1392
837.542053,1439
837.660339,1565
837.778503,1565
837.896667,1591
838.014832,1630
838.132996,1597
838.25116,1544
838.369385,1523
838.487488,1392
838.605713,1350
838.723877,1278
838.84198,1273
838.960205,1217
839.078308,1157
839.196472,1158
839.314636,1139
839.4328,1086
839.550964,1058
839.669067,1023
839.787231,1014
839.905396,1044
840.023499,1006
840.141602,982
840.259766,1039
840.377869,1048
840.495972,1043
840.614136,1012
840.732239,1037
840.850342,1095
840.968445,1103
841.086548,1081
841.204651,1125
841.322754,1135
841.440918,1126
841.55896,1088
841.677002,1068
841.795166,1042
841.913208,1067
842.031311,1041
842.149353,1066
842.267456,1065
842.385498,1030
842.503601,1057
842.621643,1043
842.739746,1073
842.857788,1022
842.97583,1046
843.093933,1055
843.211975,1061
843.330017,1052
843.44812,1020
843.566101,1050
843.684204,1027
843.802246,1034
843.920227,1073
844.038269,1031
844.156311,1037
844.274292,1033
844.392395,1070
844.510376,1022
844.628357,1062
844.74646,1063
844.864441,1037
844.982422,1039
845.100403,1082
845.218384,1090
845.336426,1129
845.454468,1159
845.572449,1131
845.69043,1125
845.808411,1133
845.926453,1111
846.044373,1087
846.162354,1098
846.280396,1061
846.398315,1049
846.516296,1071
846.634216,1031
846.752197,1000
846.870178,1009
846.988098,1021
847.106079,991
847.22406,989
847.34198,1022
847.4599,1004
847.577881,991
847.695801,1002
847.813782,1045
847.931641,1011
848.049561,1015
848.167603,1065
848.285461,1052
848.403381,996
848.521362,1047
848.639221,1016
848.75708,1024
848.875,1011
848.99292,1012
849.110901,1030
849.22876,1018
849.34668,1070
849.464539,1007
849.582458,1055
849.700317,1044
849.818176,1068
849.936096,1078
850.053955,1079
850.171875,1064
850.289673,1074
850.407593,1045
850.525452,1074
850.643311,1067
850.761169,1076
850.878967,1120
850.996887,1202
851.114746,1142
851.232544,1237
851.350403,1270
851.468262,1369
851.58606,1445
851.703979,1537
851.821777,1669
851.939636,1804
852.057434,2153
852.175232,2824
852.293091,3983
852.410889,5402
852.528687,6507
852.646545,6761
852.764343,6046
852.88208,4590
852.999939,3255
853.117676,2324
853.235535,1772
853.353271,1459
853.471069,1281
853.588928,1247
853.706604,1202
853.824402,1223
853.9422,1237
854.059998,1327
854.177734,1470
854.295532,1684
854.413269,1931
854.531006,2194
854.648804,2485
854.766541,2514
854.884277,2536
855.002014,2296
855.119751,2061
855.237549,1801
855.355225,1615
855.473022,1510
855.590698,1360
855.708435,1343
855.826172,1248
855.943848,1255
856.061646,1190
856.179321,1193
856.296997,1178
856.414795,1202
856.53241,1187
856.650085,1184
856.767822,1170
856.885559,1185
857.003174,1201
857.120911,1214
857.238586,1252
857.356201,1250
857.473938,1236
857.591614,1224
857.709351,1243
857.826965,1213
857.944641,1274
858.062317,1181
858.179993,1192
858.297668,1169
858.415283,1237
858.532959,1199
858.650574,1225
858.768188,1219
858.885803,1192
859.003479,1182
859.121094,1177
859.23877,1221
859.356384,1187
859.473999,1232
859.591675,1232
859.709229,1172
859.826843,1168
859.944458,1213
860.062012,1140
860.179626,1155
860.297302,1115
860.414856,1101
860.532471,1066
860.650024,1071
860.767639,1047
860.885193,1077
861.002808,1045
861.120361,1048
861.237976,1038
861.35553,1013
861.473022,1037
861.590698,1005
861.708191,1034
861.825745,1022
861.943298,1009
862.060852,1023
862.178406,1040
862.295959,1041
862.413513,1060
862.531006,1020
862.64856,1039
862.766113,1051
862.883667,1081
863.00116,1085
863.118713,1108
863.236206,1189
863.353699,1257
863.471252,1287
863.588745,1479
863.706177,1555
863.82373,1605
863.941162,1695
864.058716,1621
864.176208,1547
864.29364,1428
864.411194,1381
864.528687,1291
864.646118,1289
864.763611,1284
864.881042,1265
864.998535,1292
865.116028,1310
865.233459,1302
865.350891,1425
865.468384,1481
865.585754,1639
865.703308,1792
865.820679,1873
865.938171,1914
866.055542,1920
866.173035,1849
866.290466,1832
866.407837,1729
866.52533,1776
866.6427,1802
866.760071,1788
866.877563,1804
866.994934,1839
867.112305,1846
867.229736,1857
867.347107,1832
867.464539,1785
867.58197,1704
867.699341,1749
867.81665,1596
867.934082,1536
868.051453,1463
868.168823,1359
868.286194,1350
868.403564,1324
868.520935,1295
868.638306,1265
868.755676,1259
868.872986,1227
868.990295,1213
869.107727,1224
869.225037,1234
869.342346,1192
869.459717,1211
869.577026,1204
869.694336,1191
869.811707,1152
869.929016,1175
870.046326,1169
870.163635,1153
870.280945,1151
870.398254,1169
870.515564,1152
870.632812,1149
870.750183,1139
870.867432,1153
870.984741,1144
871.102051,1158
871.219299,1145
871.336609,1147
871.453918,1118
871.571106,1145
871.688416,1143
871.805664,1152
871.922852,1148
872.040222,1151
872.157471,1164
872.274719,1130
872.391968,1170
872.509155,1124
872.626465,1175
872.743652,1163
872.860962,1188
872.978149,1165
873.095337,1179
873.212646,1151
873.329834,1187
873.44696,1185
873.564209,1170
873.681396,1210
873.798645,1168
873.915894,1196
874.03302,1195
874.150208,1213
874.267456,1235
874.384583,1217
874.501831,1249
874.618958,1247
874.736145,1273
874.853333,1272
874.970459,1262
875.087646,1279
875.204834,1292
875.32196,1252
875.439148,1321
875.556274,1331
875.673401,1320
875.790527,1347
875.907715,1369
876.024841,1345
876.141968,1381
876.259094,1413
876.376282,1414
876.493347,1472
876.610474,1470
876.7276,1469
876.844727,1462
876.961853,1464
877.078918,1482
877.195984,1464
877.313171,1461
877.430237,1474
877.547302,1465
877.664368,1427
877.781433,1454
877.898499,1363
878.015625,1427
878.13269,1375
878.249695,1383
878.366821,1335
878.483887,1364
878.600952,1374
878.717957,1359
878.834961,1362
878.952087,1367
879.069092,1344
879.186157,1368
879.303162,1392
879.420227,1313
879.537231,1358
879.654236,1389
879.77124,1348
879.888306,1378
880.005249,1333
880.122314,1409
880.239319,1348
880.356323,1348
880.473328,1325
880.590271,1372
880.707275,1321
880.824341,1354
880.941284,1331
881.058228,1333
881.175232,1273
881.292236,1312
881.40918,1281
881.526123,1297
881.643066,1267
881.760071,1290
881.877014,1265
881.993958,1291
882.11084,1277
882.227783,1295
882.344727,1258
882.46167,1217
882.578613,1247
882.695618,1254
882.812439,1257
882.929382,1269
883.046326,1222
883.163208,1263
883.280151,1232
883.397034,1265
883.513916,1227
883.630798,1241
883.747742,1237
883.864563,1229
883.981506,1250
884.098389,1242
884.21521,1265
884.332153,1271
884.448975,1205
884.565796,1263
884.682678,1220
884.7995,1282
884.916443,1257
885.033264,1229
885.150085,1296
885.266968,1287
885.383789,1310
885.500671,1389
885.617493,1403
885.734314,1422
885.851196,1460
885.967896,1461
886.084717,1469
886.201599,1541
886.318359,1502
886.435181,1532
886.552002,1476
886.668762,1495
886.785645,1426
886.902344,1415
887.019165,1345
887.135925,1333
887.252747,1216
887.369446,1239
887.486267,1231
887.603027,1245
887.719788,1201
887.836548,1224
887.953247,1222
888.070068,1210
888.186829,1214
888.303528,1184
888.420288,1224
888.536987,1222
888.653687,1200
888.770447,1235
888.887146,1203
889.003967,1221
889.120667,1193
889.237305,1187
889.354065,1217
889.470703,1193
889.587463,1231
889.704163,1228
889.820862,1224
889.937561,1236
890.054199,1241
890.170837,1194
890.287598,1159
890.404236,1254
890.520874,1201
890.637634,1197
890.754211,1211
890.87085,1220
890.987549,1183
891.104187,1189
891.220886,1209
891.337463,1197
891.454102,1279
891.57074,1231
891.687378,1172
891.804077,1181
891.920654,1184
892.037231,1181
892.15387,1200
892.270447,1197
892.387085,1197
892.503723,1202
892.6203,1197
892.736877,1181
892.853516,1164
892.970032,1194
893.08667,1194
893.203186,1175
893.319763,1274
893.43634,1205
893.552917,1209
893.669556,1199
893.786011,1180
893.902588,1208
894.019165,1209
894.135681,1206
894.252197,1205
894.368835,1173
894.485291,1214
894.601868,1198
894.718384,1166
894.8349,1218
894.951355,1177
895.067932,1199
895.184448,1257
895.300964,1258
895.417419,1225
895.533936,1197
895.650452,1203
895.766907,1234
895.883423,1267
895.999878,1261
896.116333,1262
896.232849,1322
896.349304,1334
896.465759,1370
896.582214,1492
896.698669,1590
896.815125,1654
896.931641,1685
897.048035,1646
897.164551,1596
897.280884,1508
897.397339,1444
897.513794,1448
897.630249,1443
897.746582,1544
897.863098,1577
897.979431,1708
898.095886,1867
898.212341,2046
898.328674,2217
898.445129,2257
898.561462,2199
898.677795,2107
898.794312,1943
898.910645,1732
899.026978,1568
899.143433,1490
899.259766,1382
899.37616,1358
899.492493,1319
899.608765,1286
899.725159,1281
899.841553,1249
899.957947,1212
900.07428,1260
900.190552,1189
900.306946,1203
900.423157,1222
900.53949,1167
900.655884,1219
900.772156,1170
900.888489,1192
901.004822,1174
901.121033,1176
901.237366,1199
901.353699,1163
901.46991,1183
901.586304,1154
901.702515,1153
901.818787,1175
901.93512,1145
902.051331,1165
902.167603,1136
902.283875,1213
902.400085,1150
902.516418,1125
902.632629,1118
902.74884,1166
902.865112,1179
902.981384,1176
903.097595,1175
903.213867,1159
903.330017,1164
903.446289,1144
903.5625,1146
903.67865,1166
903.794922,1140
903.911072,1135
904.027344,1150
904.143494,1201
904.259705,1170
904.375916,1162
904.492065,1163
904.608215,1180
904.724426,1137
904.840576,1161
904.956726,1149
905.072876,1157
905.189087,1158
905.305176,1169
905.421387,1167
905.537537,1175
905.653687,1144
905.769775,1136
905.885925,1149
906.002014,1169
906.118164,1164
906.234314,1121
906.350403,1192
906.466492,1168
906.582642,1121
906.69873,1151
906.814758,1130
906.930908,1160
907.046936,1085
907.163086,1154
907.279175,1162
907.395264,1125
907.511353,1105
907.62738,1136
907.743408,1110
907.859497,1166
907.975525,1194
908.091553,1152
908.207703,1121
908.32373,1103
908.439758,1117
908.555786,1126
908.671814,1116
908.787842,1130
908.90387,1166
909.019775,1158
909.135864,1112
909.251892,1126
909.367859,1126
909.483826,1104
909.599854,1114
909.715881,1134
909.831848,1087
909.947815,1100
910.063782,1115
910.179749,1156
910.295776,1119
910.411743,1123
910.527649,1146
910.643616,1126
910.759583,1126
910.875488,1136
910.991455,1108
911.107361,1113
911.223267,1125
911.339294,1107
911.4552,1131
911.571106,1096
911.687073,1110
911.802979,1157
911.918823,1154
912.034729,1118
912.150635,1134
912.266602,1127
912.382446,1103
912.498352,1145
912.614197,1094
912.730103,1132
912.846008,1117
792.44574,9249
792.56488,8529
792.68396,7974
792.80304,7453
792.92218,6804
793.041199,6359
793.160339,6074
793.279419,5647
793.398499,5314
793.517578,4994
793.636658,4605
793.755737,4508
793.874817,4224
793.993896,3986
794.112976,3824
794.232056,3664
794.351074,3567
794.470215,3333
794.589233,3192
794.708313,3111
794.827393,3077
794.946411,3042
795.065552,2880
795.18457,2897
795.303589,2844
795.422668,2806
795.541687,2748
795.660767,2699
795.779846,2616
795.898865,2660
796.017883,2704
796.136963,2624
796.255981,2642
796.375061,2544
796.49408,2554
796.613037,2542
796.732117,2488
796.851135,2493
796.970154,2379
797.089233,2378
797.208191,2351
797.327271,2363
797.446228,2311
797.565186,2311
797.684265,2257
797.803223,2201
797.922241,2201
798.04126,2200
798.160278,2235
798.279297,2171
798.398315,2263
798.517273,2312
798.636292,2226
798.75531,2255
798.874268,2286
798.993286,2364
799.112244,2414
799.231323,2438
799.350281,2482
799.469238,2498
799.588257,2410
799.707153,2471
799.826111,2383
799.945129,2419
800.064087,2380
800.183044,2307
800.302063,2182
800.421021,2111
800.539978,1969
800.658936,1912
800.777893,1763
800.896912,1715
801.015747,1605
801.134705,1585
801.253723,1489
801.37262,1451
801.491638,1401
801.610535,1395
801.729492,1362
801.84845,1359
801.967407,1351
802.086243,1317
802.205261,1327
802.324158,1292
802.443115,1305
802.562073,1319
802.680969,1301
802.799927,1290
802.918762,1280
803.037659,1287
803.156677,1312
803.275574,1283
803.39447,1266
803.513428,1240
803.632263,1230
803.751221,1247
803.870117,1237
803.989014,1233
804.107971,1184
804.226746,1205
804.345642,1236
804.4646,1186
804.583496,1178
804.702393,1208
804.821228,1122
804.940125,1185
805.059021,1201
805.177917,1167
805.296814,1199
805.415649,1163
805.534546,1158
805.653442,1139
805.772278,1195
805.891113,1175
806.01001,1223
806.128906,1175
806.247742,1178
806.366577,1182
806.485413,1212
806.604309,1221
806.723145,1199
806.84198,1203
806.960876,1189
807.079712,1196
807.198486,1186
807.317383,1182
807.436218,1194
807.554993,1141
807.673889,1190
807.792725,1183
807.91156,1158
808.030396,1179
808.14917,1165
808.268005,1164
808.386841,1146
808.505676,1141
808.624451,1176
808.743286,1179
808.862122,1141
808.980896,1149
809.099731,1130
809.218506,1160
809.337341,1167
809.456116,1145
809.57489,1183
809.693726,1154
809.8125,1205
809.931274,1182
810.050049,1195
810.168884,1236
810.287659,1250
810.406372,1200
810.525269,1261
810.643982,1288
810.762756,1290
810.881531,1274
811.000305,1282
811.11908,1248
811.237854,1275
811.356567,1305
811.475403,1316
811.594116,1311
811.71283,1300
811.831604,1280
811.950378,1283
812.069153,1307
812.187927,1273
812.30658,1218
812.425415,1228
812.544128,1235
812.662781,1220
812.781616,1179
812.900269,1157
813.019043,1147
813.137756,1176
813.256531,1174
813.375244,1169
813.493896,1159
813.612671,1154
813.731384,1168
813.850037,1094
813.96875,1152
814.087524,1140
814.206238,1142
814.324951,1140
814.443604,1115
814.562256,1144
814.68103,1118
814.799683,1129
814.918335,1119
815.037109,1070
815.155762,1071
815.274475,1073
815.393188,1078
815.511841,1097
815.630554,1092
815.749146,1095
815.867859,1105
815.986572,1110
816.105164,1077
816.223877,1039
816.342529,1066
816.461182,1064
816.579895,1051
816.698486,1061
816.817139,1070
816.935791,1041
817.054504,1062
817.173096,1055
817.291748,1100
817.4104,1040
817.529053,1066
817.647644,1059
817.766235,1071
817.884949,1058
818.00354,1045
818.122192,1082
818.240845,1078
818.359436,1037
818.478088,1083
818.59668,1072
818.715271,1084
818.833923,1064
818.952515,1052
819.071106,1056
819.189758,1060
819.30835,1062
819.426941,1069
819.545532,1036
819.664124,1064
819.782715,1080
819.901306,1084
820.019897,1105
820.138489,1093
820.25708,1124
820.375671,1142
820.494202,1126
820.612732,1149
820.731384,1116
820.849915,1131
820.968506,1120
821.087097,1113
821.205627,1097
821.324158,1114
821.442749,1105
821.561279,1091
821.679871,1051
821.798401,1113
821.916931,1102
822.035461,1072
822.154053,1102
822.272583,1062
822.391174,1088
822.509583,1105
822.628174,1052
822.746704,1069
822.865234,1044
822.983765,1069
823.102295,1035
823.220825,1030
823.339294,1051
823.457825,1047
823.576355,1038
823.694824,1002
823.813354,1016
823.931885,1056
824.050354,1017
824.168884,1065
824.287354,989
824.405823,1011
824.524353,1044
824.642822,1034
824.761353,1035
824.879822,1018
824.998291,1047
825.116699,1067
825.235291,1077
825.353699,1140
825.472168,1223
825.590637,1391
825.709106,1728
825.827576,1993
825.946045,2111
826.064453,1933
826.182983,1655
826.301392,1399
826.4198,1248
826.53833,1152
826.656738,1069
826.775208,1074
826.893677,1050
827.012024,1060
827.130493,1008
827.248962,1033
827.36731,992
827.485779,997
827.604248,939
827.722595,959
827.841064,983
827.959412,942
828.077942,988
828.196289,952
828.314636,951
828.433105,994
828.551514,983
828.669861,983
828.78833,940
828.906677,937
829.025085,943
829.143433,963
829.261841,928
829.38031,961
829.498657,930
829.617004,985
829.735413,946
829.85376,912
829.972107,962
830.090515,964
830.208862,952
830.327209,954
830.445557,964
830.563904,961
830.682312,948
830.800659,947
830.919006,943
831.037354,956
831.155701,966
831.274048,1001
831.392395,988
831.51062,976
831.629028,963
831.747314,968
831.865662,951
831.984009,942
832.102356,961
832.220642,931
832.338928,933
832.457275,950
832.575623,945
832.693909,964
832.812134,941
832.930481,957
833.048828,980
833.167114,991
833.2854,984
833.403687,997
833.521973,997
833.640259,1007
833.758545,1070
833.876831,1085
833.995056,1102
834.113281,1120
834.231628,1134
834.349915,1167
834.468201,1128
834.586426,1178
834.704651,1188
834.822998,1210
834.941162,1249
835.059448,1196
835.177673,1230
835.295959,1308
835.414246,1254
835.53241,1244
835.650635,1260
835.768921,1290
835.887146,1228
836.005371,1226
836.123596,1202
836.241821,1257
836.360046,1211
836.478271,1161
836.596497,1184
836.714722,1223
836.832886,1213
836.95105,1235
837.069336,1231
837.1875,1323
837.305725,1334
837.423889,1448
837.542053,1441
837.660339,1467
837.778503,1584
837.896667,1596
838.014832,1607
838.132996,1635
838.25116,1529
838.369385,1486
838.487488,1395
838.605713,1319
838.723877,1303
838.84198,1234
838.960205,1204
839.078308,1146
839.196472,1132
839.314636,1098
839.4328,1103
839.550964,1055
839.669067,1019
839.787231,1006
839.905396,1034
840.023499,998
840.141602,1012
840.259766,1027
840.377869,1042
840.495972,1012
840.614136,1034
840.732239,1053
840.850342,1073
840.968445,1094
841.086548,1093
841.204651,1097
841.322754,1128
841.440918,1119
841.55896,1111
841.677002,1101
841.795166,1041
841.913208,1062
842.031311,1060
842.149353,1048
842.267456,1006
842.385498,1043
842.503601,1028
842.621643,1030
842.739746,1004
842.857788,1041
842.97583,1034
843.093933,1055
843.211975,1061
843.330017,1028
843.44812,1053
843.566101,1017
843.684204,1015
843.802246,1052
843.920227,1026
844.038269,1018
844.156311,1042
844.274292,1053
844.392395,1029
844.510376,1029
844.628357,1033
844.74646,1030
844.864441,1058
844.982422,1027
845.100403,1066
845.218384,1094
845.336426,1097
845.454468,1106
845.572449,1120
845.69043,1140
845.808411,1117
845.926453,1113
846.044373,1101
846.162354,1070
846.280396,1068
846.398315,1070
846.516296,1043
846.634216,1031
846.752197,982
846.870178,1039
846.988098,1025
847.106079,984
847.22406,1040
847.34198,1042
847.4599,1024
847.577881,1047
847.695801,1005
847.813782,1037
847.931641,975
848.049561,1004
848.167603,986
848.285461,1054
848.403381,1015
848.521362,1055
848.639221,1030
848.75708,1012
848.875,1013
848.99292,1013
849.110901,1020
849.22876,1025
849.34668,973
849.464539,1068
849.582458,1053
849.700317,1024
849.818176,1057
849.936096,1037
850.053955,1065
850.171875,1044
850.289673,1046
850.407593,1062
850.525452,1079
850.643311,1067
850.761169,1084
850.878967,1081
850.996887,1147
851.114746,1149
851.232544,1168
851.350403,1303
851.468262,1358
851.58606,1467
851.703979,1530
851.821777,1627
851.939636,1742
852.057434,2153
852.175232,2852
852.293091,3948
852.410889,5323
852.528687,6435
852.646545,6772
852.764343,6039
852.88208,4577
852.999939,3308
853.117676,2294
853.235535,1775
853.353271,1469
853.471069,1275
853.588928,1277
853.706604,1225
853.824402,1197
853.9422,1250
854.059998,1318
854.177734,1407
854.295532,1673
854.413269,1909
854.531006,2229
854.648804,2478
854.766541,2632
854.884277,2423
855.002014,2359
855.119751,2024
855.237549,1839
855.355225,1635
855.473022,1465
855.590698,1355
855.708435,1282
855.826172,1236
855.943848,1249
856.061646,1156
856.179321,1188
856.296997,1172
856.414795,1190
856.53241,1169
856.650085,1170
856.767822,1195
856.885559,1197
857.003174,1174
857.120911,1184
857.238586,1210
857.356201,1228
857.473938,1218
857.591614,1261
857.709351,1228
857.826965,1208
857.944641,1250
858.062317,1228
858.179993,1248
858.297668,1203
858.415283,1191
858.532959,1140
858.650574,1209
858.768188,1165
858.885803,1156
859.003479,1167
859.121094,1161
859.23877,1179
859.356384,1192
859.473999,1201
859.591675,1216
859.709229,1199
859.826843,1185
859.944458,1156
860.062012,1154
860.179626,1100
860.297302,1136
860.414856,1090
860.532471,1128
860.650024,1079
860.767639,1052
860.885193,1057
861.002808,1051
861.120361,1029
861.237976,1044
861.35553,1019
861.473022,1002
861.590698,1026
861.708191,1016
861.825745,1018
861.943298,1032
862.060852,1033
862.178406,1016
862.295959,995
862.413513,1016
862.531006,1011
862.64856,1045
862.766113,1064
862.883667,1086
863.00116,1144
863.118713,1193
863.236206,1156
863.353699,1231
863.471252,1308
863.588745,1448
863.706177,1581
863.82373,1629
863.941162,1646
864.058716,1633
864.176208,1520
864.29364,1450
864.411194,1362
864.528687,1288
864.646118,1303
864.763611,1285
864.881042,1215
864.998535,1263
865.116028,1288
865.233459,1344
865.350891,1402
865.468384,1533
865.585754,1642
865.703308,1771
865.820679,1846
865.938171,1913
866.055542,1866
866.173035,1833
866.290466,1777
866.407837,1750
866.52533,1752
866.6427,1821
866.760071,1816
866.877563,1795
866.994934,1864
867.112305,1812
867.229736,1857
867.347107,1838
867.464539,1782
867.58197,1726
867.699341,1675
867.81665,1597
867.934082,1495
868.051453,1451
868.168823,1423
868.286194,1348
868.403564,1306
868.520935,1277
868.638306,1267
868.755676,1226
868.872986,1258
868.990295,1225
869.107727,1207
869.225037,1218
869.342346,1195
869.459717,1211
869.577026,1141
869.694336,1148
869.811707,1144
869.929016,1139
870.046326,1142
870.163635,1157
870.280945,1158
870.398254,1170
870.515564,1176
870.632812,1129
870.750183,1176
870.867432,1154
870.984741,1171
871.102051,1133
871.219299,1136
871.336609,1125
871.453918,1169
871.571106,1176
871.688416,1170
871.805664,1129
871.922852,1150
872.040222,1172
872.157471,1122
872.274719,1140
872.391968,1156
872.509155,1143
872.626465,1098
872.743652,1166
872.860962,1117
872.978149,1152
873.095337,1152
873.212646,1161
873.329834,1138
873.44696,1164
873.564209,1159
873.681396,1180
873.798645,1165
873.915894,1185
874.03302,1189
874.150208,1210
874.267456,1250
874.384583,1259
874.501831,1268
874.618958,1269
874.736145,1279
874.853333,1231
874.970459,1268
875.087646,1299
875.204834,1337
875.32196,1295
875.439148,1274
875.556274,1284
875.673401,1362
875.790527,1334
875.907715,1329
876.024841,1348
876.141968,1370
876.259094,1376
876.376282,1417
876.493347,1424
876.610474,1413
876.7276,1437
876.844727,1479
876.961853,1458
877.078918,1488
877.195984,1491
877.313171,1483
877.430237,1488
877.547302,1448
877.664368,1428
877.781433,1386
877.898499,1397
878.015625,1400
878.13269,1378
878.249695,1391
878.366821,1382
878.483887,1341
878.600952,1365
878.717957,1336
878.834961,1346
878.952087,1376
879.069092,1344
879.186157,1379
879.303162,1367
879.420227,1330
879.537231,1361
879.654236,1342
879.77124,1360
879.888306,1348
880.005249,1371
880.122314,1333
880.239319,1346
880.356323,1376
880.473328,1361
880.590271,1347
880.707275,1293
880.824341,1353
880.941284,1306
881.058228,1305
881.175232,1323
881.292236,1259
881.40918,1258
881.526123,1309
881.643066,1275
881.760071,1252
881.877014,1289
881.993958,1267
882.11084,1220
882.227783,1248
882.344727,1260
882.46167,1216
882.578613,1218
882.695618,1245
882.812439,1281
882.929382,1235
883.046326,1235
883.163208,1256
883.280151,1262
883.397034,1217
883.513916,1229
883.630798,1250
883.747742,1217
883.864563,1197
883.981506,1239
884.098389,1214
884.21521,1238
884.332153,1238
884.448975,1240
884.565796,1204
884.682678,1220
884.7995,1291
884.916443,1235
885.033264,1246
885.150085,1255
885.266968,1293
885.383789,1326
885.500671,1335
885.617493,1369
885.734314,1407
885.851196,1393
885.967896,1438
886.084717,1483
886.201599,1471
886.318359,1564
886.435181,1509
886.552002,1530
886.668762,1470
886.785645,1431
886.902344,1380
887.019165,1305
887.135925,1298
887.252747,1250
887.369446,1230
887.486267,1227
887.603027,1209
887.719788,1234
887.836548,1163
887.953247,1205
888.070068,1210
888.186829,1169
888.303528,1220
888.420288,1187
888.536987,1208
888.653687,1196
888.770447,1218
888.887146,1198
889.003967,1185
889.120667,1208
889.237305,1210
889.354065,1230
889.470703,1214
889.587463,1226
889.704163,1230
889.820862,1217
889.937561,1194
890.054199,1200
890.170837,1187
890.287598,1240
890.404236,1168
890.520874,1183
890.637634,1207
890.754211,1191
890.87085,1201
890.987549,1208
891.104187,1209
891.220886,1203
891.337463,1188
891.454102,1185
891.57074,1165
891.687378,1179
891.804077,1178
891.920654,1179
892.037231,1200
892.15387,1196
892.270447,1189
892.387085,1156
892.503723,1151
892.6203,1181
892.736877,1196
892.853516,1193
892.970032,1177
893.08667,1213
893.203186,1213
893.319763,1223
893.43634,1223
893.552917,1191
893.669556,1186
893.786011,1210
893.902588,1197
894.019165,1223
894.135681,1214
894.252197,1196
894.368835,1221
894.485291,1196
894.601868,1208
894.718384,1189
894.8349,1184
894.951355,1263
895.067932,1215
895.184448,1191
895.300964,1208
895.417419,1180
895.533936,1233
895.650452,1212
895.766907,1173
895.883423,1225
895.999878,1257
896.116333,1275
896.232849,1278
896.349304,1283
896.465759,1397
896.582214,1483
896.698669,1554
896.815125,1657
896.931641,1699
897.048035,1626
897.164551,1558
897.280884,1482
897.397339,1460
897.513794,1430
897.630249,1487
897.746582,1473
897.863098,1594
897.979431,1711
898.095886,1814
898.212341,2020
898.328674,2153
898.445129,2238
898.561462,2191
898.677795,2117
898.794312,1919
898.910645,1698
899.026978,1607
899.143433,1520
899.259766,1412
899.37616,1349
899.492493,1291
899.608765,1259
899.725159,1220
899.841553,1250
899.957947,1208
900.07428,1205
900.190552,1236
900.306946,1178
900.423157,1200
900.53949,1211
900.655884,1156
900.772156,1176
900.888489,1146
901.004822,1161
901.121033,1177
901.237366,1164
901.353699,1202
901.46991,1149
901.586304,1184
901.702515,1137
901.818787,1184
901.93512,1135
902.051331,1179
902.167603,1147
902.283875,1148
902.400085,1167
902.516418,1153
902.632629,1172
902.74884,1136
902.865112,1189
902.981384,1185
903.097595,1159
903.213867,1159
903.330017,1123
903.446289,1141
903.5625,1142
903.67865,1147
903.794922,1200
903.911072,1157
904.027344,1141
904.143494,1153
904.259705,1139
904.375916,1168
904.492065,1141
904.608215,1140
904.724426,1117
904.840576,1144
904.956726,1147
905.072876,1143
905.189087,1143
905.305176,1102
905.421387,1151
905.537537,1141
905.653687,1163
905.769775,1144
905.885925,1149
906.002014,1191
906.118164,1114
906.234314,1147
906.350403,1161
906.466492,1138
906.582642,1144
906.69873,1162
906.814758,1132
906.930908,1169
907.046936,1105
907.163086,1143
907.279175,1142
907.395264,1126
907.511353,1110
907.62738,1100
907.743408,1142
907.859497,1137
907.975525,1136
908.091553,1123
908.207703,1115
908.32373,1122
908.439758,1135
908.555786,1110
908.671814,1132
908.787842,1106
908.90387,1127
909.019775,1118
909.135864,1089
909.251892,1096
909.367859,1137
909.483826,1128
909.599854,1102
909.715881,1120
909.831848,1131
909.947815,1101
910.063782,1106
910.179749,1113
910.295776,1116
910.411743,1092
910.527649,1105
910.643616,1127
910.759583,1114
910.875488,1114
910.991455,1108
911.107361,1121
911.223267,1082
911.339294,1131
911.4552,1092
911.571106,1120
911.687073,1110
911.802979,1092
911.918823,1107
912.034729,1087
912.150635,1113
912.266602,1062
912.382446,1085
912.498352,1105
912.614197,1097
912.730103,1100
912.846008,1118
792.44574,9320
792.56488,8523
792.68396,7920
792.80304,7269
792.92218,6880
793.041199,6470
793.160339,6019
793.279419,5592
793.398499,5256
793.517578,4961
793.636658,4697
793.755737,4538
793.874817,4275
793.993896,3986
794.112976,3790
794.232056,3671
794.351074,3475
794.470215,3448
794.589233,3282
794.708313,3184
794.827393,3059
794.946411,3001
795.065552,2917
795.18457,2923
795.303589,2743
795.422668,2776
795.541687,2756
795.660767,2750
795.779846,2657
795.898865,2699
796.017883,2602
796.136963,2606
796.255981,2609
796.375061,2627
796.49408,2621
796.613037,2587
796.732117,2436
796.851135,2448
796.970154,2425
797.089233,2385
797.208191,2362
797.327271,2323
797.446228,2250
797.565186,2245
797.684265,2203
797.803223,2188
797.922241,2199
798.04126,2187
798.160278,2167
798.279297,2230
798.398315,2216
798.517273,2202
798.636292,2192
798.75531,2291
798.874268,2274
798.993286,2365
799.112244,2323
799.231323,2352
799.350281,2448
799.469238,2450
799.588257,2456
799.707153,2423
799.826111,2455
799.945129,2404
800.064087,2318
800.183044,2324
800.302063,2192
800.421021,2110
800.539978,2053
800.658936,1878
800.777893,1780
800.896912,1744
801.015747,1623
801.134705,1540
801.253723,1474
801.37262,1460
801.491638,1398
801.610535,1410
801.729492,1364
801.84845,1332
801.967407,1361
802.086243,1311
802.205261,1333
802.324158,1355
802.443115,1305
802.562073,1292
802.680969,1291
802.799927,1311
802.918762,1314
803.037659,1319
803.156677,1267
803.275574,1273
803.39447,1262
803.513428,1244
803.632263,1259
803.751221,1250
803.870117,1223
803.989014,1211
804.107971,1236
804.226746,1202
804.345642,1249
804.4646,1204
804.583496,1172
804.702393,1166
804.821228,1140
804.940125,1186
805.059021,1148
805.177917,1151
805.296814,1193
805.415649,1178
805.534546,1118
805.653442,1180
805.772278,1213
805.891113,1201
806.01001,1166
806.128906,1205
806.247742,1213
806.366577,1191
806.485413,1164
806.604309,1191
806.723145,1183
806.84198,1179
806.960876,1182
807.079712,1165
807.198486,1172
807.317383,1129
807.436218,1157
807.554993,1134
807.673889,1122
807.792725,1163
807.91156,1171
808.030396,1148
808.14917,1122
808.268005,1128
808.386841,1092
808.505676,1152
808.624451,1149
808.743286,1145
808.862122,1126
808.980896,1148
809.099731,1133
809.218506,1135
809.337341,1151
809.456116,1161
809.57489,1179
809.693726,1195
809.8125,1167
809.931274,1197
810.050049,1187
810.168884,1191
810.287659,1236
810.406372,1222
810.525269,1248
810.643982,1285
810.762756,1229
810.881531,1293
811.000305,1285
811.11908,1220
811.237854,1258
811.356567,1321
811.475403,1349
811.594116,1292
811.71283,1329
811.831604,1332
811.950378,1316
812.069153,1260
812.187927,1255
812.30658,1249
812.425415,1221
812.544128,1241
812.662781,1193
812.781616,1189
812.900269,1188
813.019043,1173
813.137756,1132
813.256531,1171
813.375244,1139
813.493896,1153
813.612671,1154
813.731384,1169
813.850037,1160
813.96875,1146
814.087524,1083
814.206238,1144
814.324951,1081
814.443604,1094
814.562256,1063
814.68103,1074
814.799683,1085
814.918335,1110
815.037109,1068
815.155762,1065
815.274475,1040
815.393188,1085
815.511841,1067
815.630554,1073
815.749146,1015
815.867859,1055
815.986572,1065
816.105164,1081
816.223877,1078
816.342529,1061
816.461182,1068
816.579895,1043
816.698486,1027
816.817139,1029
816.935791,1056
817.054504,1048
817.173096,1020
817.291748,1035
817.4104,1064
817.529053,1023
817.647644,1052
817.766235,1050
817.884949,1072
818.00354,1032
818.122192,1015
818.240845,1053
818.359436,1032
818.478088,1042
818.59668,1053
818.715271,1055
818.833923,1027
818.952515,1051
819.071106,1067
819.189758,1054
819.30835,1036
819.426941,1065
819.545532,1042
819.664124,1099
819.782715,1048
819.901306,1074
820.019897,1114
820.138489,1075
820.25708,1116
820.375671,1104
820.494202,1094
820.612732,1101
820.731384,1135
820.849915,1088
820.968506,1096
821.087097,1092
821.205627,1141
821.324158,1073
821.442749,1050
821.561279,1083
821.679871,1073
821.798401,1075
821.916931,1064
822.035461,1078
822.154053,1063
822.272583,1040
822.391174,1042
822.509583,1090
822.628174,1059
822.746704,1050
822.865234,1021
822.983765,1063
823.102295,1063
823.220825,1033
823.339294,984
823.457825,1049
823.576355,1031
823.694824,1019
823.813354,1029
823.931885,1040
824.050354,1019
824.168884,1028
824.287354,1007
824.405823,1033
824.524353,1038
824.642822,1001
824.761353,1032
824.879822,1037
824.998291,1008
825.116699,1049
825.235291,1090
825.353699,1130
825.472168,1211
825.590637,1460
825.709106,1704
825.827576,1915
825.946045,2088
826.064453,1976
826.182983,1587
826.301392,1408
826.4198,1227
826.53833,1103
826.656738,1118
826.775208,1070
826.893677,1040
827.012024,1012
827.130493,1010
827.248962,993
827.36731,988
827.485779,998
827.604248,1027
827.722595,950
827.841064,979
827.959412,946
828.077942,981
828.196289,976
828.314636,967
828.433105,960
828.551514,939
828.669861,959
828.78833,926
828.906677,977
829.025085,964
829.143433,956
829.261841,946
829.38031,954
829.498657,943
829.617004,938
829.735413,950
829.85376,930
829.972107,928
830.090515,931
830.208862,930
830.327209,926
830.445557,937
830.563904,934
830.682312,917
830.800659,936
830.919006,950
831.037354,967
831.155701,980
831.274048,997
831.392395,969
831.51062,1015
831.629028,986
831.747314,969
831.865662,977
831.984009,981
832.102356,951
832.220642,971
832.338928,944
832.457275,938
832.575623,919
832.693909,905
832.812134,936
832.930481,961
833.048828,975
833.167114,981
833.2854,983
833.403687,942
833.521973,988
833.640259,1003
833.758545,1064
833.876831,1093
833.995056,1075
834.113281,1095
834.231628,1144
834.349915,1136
834.468201,1157
834.586426,1147
834.704651,1176
834.822998,1206
834.941162,1200
835.059448,1261
835.177673,1275
835.295959,1266
835.414246,1285
835.53241,1267
835.650635,1249
835.768921,1212
835.887146,1246
836.005371,1210
836.123596,1227
836.241821,1211
836.360046,1203
836.478271,1184
836.596497,1190
836.714722,1180
836.832886,1219
836.95105,1236
837.069336,1273
837.1875,1298
837.305725,1332
837.423889,1390
837.542053,1466
837.660339,1533
837.778503,1608
837.896667,1567
838.014832,1621
838.132996,1594
838.25116,1513
838.369385,1450
838.487488,1389
838.605713,1305
838.723877,1268
838.84198,1230
838.960205,1191
839.078308,1170
839.196472,1166
839.314636,1111
839.4328,1080
839.550964,1066
839.669067,1030
839.787231,1026
839.905396,1032
840.023499,1017
840.141602,1011
840.259766,1017
840.377869,989
840.495972,1034
840.614136,1079
840.732239,1050
840.850342,1054
840.968445,1088
841.086548,1112
841.204651,1112
841.322754,1125
841.440918,1095
841.55896,1062
841.677002,1061
841.795166,1049
841.913208,1039
842.031311,1047
842.149353,1053
842.267456,1013
842.385498,1056
842.503601,1033
842.621643,1017
842.739746,1049
842.857788,1024
842.97583,1016
843.093933,1009
843.211975,1059
843.330017,995
843.44812,1030
843.566101,1017
843.684204,1038
843.802246,992
843.920227,999
844.038269,1027
844.156311,1016
844.274292,1011
844.392395,984
844.510376,1028
844.628357,1037
844.74646,1046
844.864441,1017
844.982422,1060
845.100403,1060
845.218384,1104
845.336426,1107
845.454468,1088
845.572449,1123
845.69043,1132
845.808411,1095
845.926453,1080
846.044373,1089
846.162354,1101
846.280396,1071
846.398315,1055
846.516296,1027
846.634216,1022
846.752197,1010
846.870178,1005
846.988098,1022
847.106079,985
847.22406,998
847.34198,1002
847.4599,962
847.577881,999
847.695801,991
847.813782,966
847.931641,1015
848.049561,974
848.167603,984
848.285461,994
848.403381,1056
848.521362,990
848.639221,1005
848.75708,1041
848.875,998
848.99292,1011
849.110901,1006
849.22876,1048
849.34668,999
849.464539,1008
849.582458,1012
849.700317,1049
849.818176,1027
849.936096,1069
850.053955,1068
850.171875,1045
850.289673,1036
850.407593,1044
850.525452,1042
850.643311,1065
850.761169,1072
850.878967,1128
850.996887,1134
851.114746,1178
851.232544,1187
851.350403,1272
851.468262,1317
851.58606,1397
851.703979,1555
851.821777,1629
851.939636,1763
852.057434,2109
852.175232,2814
852.293091,3952
852.410889,5416
852.528687,6556
852.646545,6753
852.764343,6054
852.88208,4570
852.999939,3235
853.117676,2275
853.235535,1756
853.353271,1453
853.471069,1276
853.588928,1217
853.706604,1151
853.824402,1199
853.9422,1214
854.059998,1305
854.177734,1445
854.295532,1644
854.413269,1929
854.531006,2199
854.648804,2430
854.766541,2540
854.884277,2477
855.002014,2340
855.119751,2056
855.237549,1790
855.355225,1644
855.473022,1439
855.590698,1322
855.708435,1308
855.826172,1296
855.943848,1243
856.061646,1182
856.179321,1182
856.296997,1169
856.414795,1195
856.53241,1175
856.650085,1169
856.767822,1130
856.885559,1154
857.003174,1253
857.120911,1192
857.238586,1225
857.356201,1226
857.473938,1261
857.591614,1219
857.709351,1222
857.826965,1256
857.944641,1213
858.062317,1194
858.179993,1242
858.297668,1160
858.415283,1186
858.532959,1184
858.650574,1169
858.768188,1200
858.885803,1185
859.003479,1176
859.121094,1172
859.23877,1173
859.356384,1202
859.473999,1211
859.591675,1175
859.709229,1208
859.826843,1170
859.944458,1144
860.062012,1134
860.179626,1085
860.297302,1126
860.414856,1046
860.532471,1056
860.650024,1043
860.767639,1028
860.885193,1083
861.002808,1037
861.120361,1066
861.237976,1000
861.35553,1015
861.473022,1038
861.590698,1013
861.708191,1039
861.825745,1002
861.943298,1002
862.060852,1076
862.178406,1015
862.295959,1017
862.413513,1055
862.531006,1004
862.64856,1029
862.766113,1045
862.883667,1095
863.00116,1057
863.118713,1132
863.236206,1155
863.353699,1223
863.471252,1325
863.588745,1395
863.706177,1543
863.82373,1612
863.941162,1646
864.058716,1554
864.176208,1547
864.29364,1463
864.411194,1357
864.528687,1323
864.646118,1281
864.763611,1235
864.881042,1224
864.998535,1252
865.116028,1309
865.233459,1352
865.350891,1400
865.468384,1478
865.585754,1659
865.703308,1746
865.820679,1913
865.938171,1953
866.055542,1905
866.173035,1875
866.290466,1742
866.407837,1788
866.52533,1699
866.6427,1750
866.760071,1803
866.877563,1844
866.994934,1806
867.112305,1882
867.229736,1832
867.347107,1799
867.464539,1783
867.58197,1812
867.699341,1651
867.81665,1597
867.934082,1503
868.051453,1419
868.168823,1443
868.286194,1340
868.403564,1328
868.520935,1277
868.638306,1244
868.755676,1243
868.872986,1211
868.990295,1250
869.107727,1217
869.225037,1183
869.342346,1198
869.459717,1181
869.577026,1151
869.694336,1127
869.811707,1120
869.929016,1156
870.046326,1169
870.163635,1108
870.280945,1134
870.398254,1156
870.515564,1172
870.632812,1156
870.750183,1169
870.867432,1118
870.984741,1130
871.102051,1092
871.219299,1143
871.336609,1132
871.453918,1153
871.571106,1139
871.688416,1131
871.805664,1132
871.922852,1135
872.040222,1117
872.157471,1125
872.274719,1160
872.391968,1147
872.509155,1153
872.626465,1119
872.743652,1132
872.860962,1125
872.978149,1143
873.095337,1151
873.212646,1157
873.329834,1168
873.44696,1182
873.564209,1217
873.681396,1206
873.798645,1194
873.915894,1194
874.03302,1232
874.150208,1207
874.267456,1219
874.384583,1252
874.501831,1214
874.618958,1241
874.736145,1240
874.853333,1282
874.970459,1275
875.087646,1281
875.204834,1306
875.32196,1294
875.439148,1297
875.556274,1309
875.673401,1318
875.790527,1288
875.907715,1338
876.024841,1356
876.141968,1389
876.259094,1364
876.376282,1432
876.493347,1403
876.610474,1444
876.7276,1435
876.844727,1462
876.961853,1500
877.078918,1459
877.195984,1472
877.313171,1474
877.430237,1474
877.547302,1465
877.664368,1402
877.781433,1377
877.898499,1418
878.015625,1384
878.13269,1325
878.249695,1354
878.366821,1307
878.483887,1311
878.600952,1350
878.717957,1351
878.834961,1341
878.952087,1343
879.069092,1334
879.186157,1372
879.303162,1348
879.420227,1370
879.537231,1311
879.654236,1340
879.77124,1337
879.888306,1371
880.005249,1309
880.122314,1345
880.239319,1324
880.356323,1344
880.473328,1352
880.590271,1307
880.707275,1331
880.824341,1283
880.941284,1293
881.058228,1291
881.175232,1258
881.292236,1260
881.40918,1266
881.526123,1256
881.643066,1229
881.760071,1261
881.877014,1249
881.993958,1260
882.11084,1248
882.227783,1285
882.344727,1260
882.46167,1218
882.578613,1227
882.695618,1214
882.812439,1257
882.929382,1237
883.046326,1210
883.163208,1252
883.280151,1243
883.397034,1241
883.513916,1220
883.630798,1239
883.747742,1226
883.864563,1244
883.981506,1190
884.098389,1205
884.21521,1224
884.332153,1227
884.448975,1217
884.565796,1232
884.682678,1237
884.7995,1216
884.916443,1248
885.033264,1245
885.150085,1255
885.266968,1298
885.383789,1310
885.500671,1338
885.617493,1385
885.734314,1380
885.851196,1426
885.967896,1487
886.084717,1480
886.201599,1502
886.318359,1483
886.435181,1530
886.552002,1480
886.668762,1475
886.785645,1401
886.902344,1356
887.019165,1331
887.135925,1296
887.252747,1212
887.369446,1219
887.486267,1265
887.603027,1213
887.719788,1217
887.836548,1213
887.953247,1195
888.070068,1207
888.186829,1195
888.303528,1188
888.420288,1215
888.536987,1131
888.653687,1202
888.770447,1194
888.887146,1182
889.003967,1203
889.120667,1205
889.237305,1186
889.354065,1206
889.470703,1183
889.587463,1141
889.704163,1206
889.820862,1191
889.937561,1236
890.054199,1202
890.170837,1208
890.287598,1207
890.404236,1190
890.520874,1180
890.637634,1191
890.754211,1188
890.87085,1192
890.987549,1180
891.104187,1179
891.220886,1215
891.337463,1195
891.454102,1198
891.57074,1163
891.687378,1160
891.804077,1146
891.920654,1189
892.037231,1186
892.15387,1163
892.270447,1190
892.387085,1169
892.503723,1172
892.6203,1197
892.736877,1195
892.853516,1188
892.970032,1179
893.08667,1157
893.203186,1190
893.319763,1179
893.43634,1210
893.552917,1192
893.669556,1208
893.786011,1147
893.902588,1173
894.019165,1178
894.135681,1162
894.252197,1152
894.368835,1207
894.485291,1194
894.601868,1192
894.718384,1184
894.8349,1141
894.951355,1161
895.067932,1175
895.184448,1173
895.300964,1195
895.417419,1189
895.533936,1195
895.650452,1211
895.766907,1228
895.883423,1224
895.999878,1255
896.116333,1263
896.232849,1306
896.349304,1363
896.465759,1383
896.582214,1488
896.698669,1521
896.815125,1623
896.931641,1664
897.048035,1652
897.164551,1586
897.280884,1471
897.397339,1446
897.513794,1409
897.630249,1455
897.746582,1513
897.863098,1529
897.979431,1729
898.095886,1819
898.212341,2047
898.328674,2187
898.445129,2255
898.561462,2203
898.677795,2101
898.794312,1919
898.910645,1738
899.026978,1574
899.143433,1459
899.259766,1394
899.37616,1313
899.492493,1301
899.608765,1229
899.725159,1279
899.841553,1237
899.957947,1179
900.07428,1208
900.190552,1198
900.306946,1221
900.423157,1182
900.53949,1149
900.655884,1178
900.772156,1165
900.888489,1175
901.004822,1173
901.121033,1140
901.237366,1173
901.353699,1138
901.46991,1193
901.586304,1164
901.702515,1130
901.818787,1131
901.93512,1139
902.051331,1155
902.167603,1138
902.283875,1100
902.400085,1154
902.516418,1122
902.632629,1146
902.74884,1155
902.865112,1135
902.981384,1157
903.097595,1156
903.213867,1147
903.330017,1148
903.446289,1152
903.5625,1132
903.67865,1174
903.794922,1134
903.911072,1105
904.027344,1138
904.143494,1141
904.259705,1109
904.375916,1134
904.492065,1161
904.608215,1139
904.724426,1162
904.840576,1123
904.956726,1143
905.072876,1115
905.189087,1157
905.305176,1129
905.421387,1107
905.537537,1151
905.653687,1138
905.769775,1131
905.885925,1139
906.002014,1092
906.118164,1118
906.234314,1150
906.350403,1127
906.466492,1126
906.582642,1119
906.69873,1182
906.814758,1141
906.930908,1097
907.046936,1102
907.163086,1103
907.279175,1135
907.395264,1121
907.511353,1146
907.62738,1094
907.743408,1120
907.859497,1143
907.975525,1095
908.091553,1129
908.207703,1115
908.32373,1104
908.439758,1152
908.555786,1131
908.671814,1120
908.787842,1130
908.90387,1110
909.019775,1095
909.135864,1133
909.251892,1101
909.367859,1100
909.483826,1125
909.599854,1061
909.715881,1123
909.831848,1109
909.947815,1127
910.063782,1090
910.179749,1140
910.295776,1128
910.411743,1105
910.527649,1114
910.643616,1047
910.759583,1101
910.875488,1106
910.991455,1117
911.107361,1085
911.223267,1094
911.339294,1083
911.4552,1106
911.571106,1097
911.687073,1101
911.802979,1110
911.918823,1112
912.034729,1106
912.150635,1115
912.266602,1077
912.382446,1116
912.498352,1116
912.614197,1066
912.730103,1112
912.846008,1099
792.44574,9183
792.56488,8533
792.68396,7964
792.80304,7363
792.92218,6846
793.041199,6416
793.160339,6028
793.279419,5708
793.398499,5362
793.517578,5001
793.636658,4749
793.755737,4433
793.874817,4203
793.993896,3979
794.112976,3870
794.232056,3687
794.351074,3492
794.470215,3364
794.589233,3232
794.708313,3130
794.827393,3043
794.946411,2953
795.065552,2893
795.18457,2839
795.303589,2829
795.422668,2701
795.541687,2769
795.660767,2702
795.779846,2686
795.898865,2670
796.017883,2636
796.136963,2637
796.255981,2616
796.375061,2561
796.49408,2553
796.613037,2512
796.732117,2502
796.851135,2467
796.970154,2430
797.089233,2342
797.208191,2374
797.327271,2315
797.446228,2274
797.565186,2235
797.684265,2312
797.803223,2255
797.922241,2230
798.04126,2205
798.160278,2211
798.279297,2183
798.398315,2249
798.517273,2230
798.636292,2282
798.75531,2334
798.874268,2288
798.993286,2358
799.112244,2370
799.231323,2323
799.350281,2456
799.469238,2466
799.588257,2495
799.707153,2445
799.826111,2494
799.945129,2437
800.064087,2314
800.183044,2244
800.302063,2221
800.421021,2053
800.539978,1970
800.658936,1928
800.777893,1834
800.896912,1694
801.015747,1612
801.134705,1537
801.253723,1477
801.37262,1421
801.491638,1466
801.610535,1383
801.729492,1352
801.84845,1353
801.967407,1323
802.086243,1328
802.205261,1359
802.324158,1296
802.443115,1298
802.562073,1278
802.680969,1303
802.799927,1277
802.918762,1269
803.037659,1289
803.156677,1303
803.275574,1252
803.39447,1261
803.513428,1247
803.632263,1289
803.751221,1224
803.870117,1267
803.989014,1219
804.107971,1209
804.226746,1191
804.345642,1220
804.4646,1191
804.583496,1200
804.702393,1185
804.821228,1145
804.940125,1180
805.059021,1175
805.177917,1166
805.296814,1158
805.415649,1143
805.534546,1147
805.653442,1160
805.772278,1189
805.891113,1164
806.01001,1186
806.128906,1178
806.247742,1178
806.366577,1190
806.485413,1152
806.604309,1189
806.723145,1163
806.84198,1164
806.960876,1182
807.079712,1188
807.198486,1200
807.317383,1156
807.436218,1148
807.554993,1178
807.673889,1156
807.792725,1151
807.91156,1168
808.030396,1154
808.14917,1139
808.268005,1119
808.386841,1132
808.505676,1153
808.624451,1102
808.743286,1147
808.862122,1144
808.980896,1112
809.099731,1164
809.218506,1128
809.337341,1140
809.456116,1198
809.57489,1186
809.693726,1165
809.8125,1218
809.931274,1193
810.050049,1191
810.168884,1230
810.287659,1192
810.406372,1214
810.525269,1241
810.643982,1242
810.762756,1247
810.881531,1243
811.000305,1290
811.11908,1235
811.237854,1255
811.356567,1280
811.475403,1305
811.594116,1282
811.71283,1304
811.831604,1307
811.950378,1285
812.069153,1318
812.187927,1278
812.30658,1246
812.425415,1242
812.544128,1213
812.662781,1179
812.781616,1185
812.900269,1163
813.019043,1139
813.137756,1130
813.256531,1139
813.375244,1132
813.493896,1116
813.612671,1175
813.731384,1158
813.850037,1122
813.96875,1114
814.087524,1120
814.206238,1104
814.324951,1082
814.443604,1104
814.562256,1099
814.68103,1085
814.799683,1068
814.918335,1093
815.037109,1092
815.155762,1039
815.274475,1055
815.393188,1064
815.511841,1014
815.630554,1075
815.749146,1053
815.867859,1030
815.986572,1062
816.105164,1042
816.223877,1054
816.342529,1054
816.461182,1042
816.579895,1051
816.698486,1062
816.817139,1045
816.935791,1033
817.054504,1060
817.173096,1049
817.291748,1035
817.4104,1058
817.529053,1033
817.647644,1058
817.766235,1033
817.884949,1041
818.00354,1014
818.122192,1047
818.240845,1048
818.359436,1074
818.478088,1077
818.59668,1062
818.715271,1072
818.833923,1073
818.952515,1046
819.071106,1025
819.189758,1011
819.30835,1054
819.426941,1046
819.545532,1049
819.664124,1065
819.782715,1084
819.901306,1092
820.019897,1099
820.138489,1091
820.25708,1099
820.375671,1095
820.494202,1087
820.612732,1111
820.731384,1076
820.849915,1087
820.968506,1111
821.087097,1107
821.205627,1075
821.324158,1074
821.442749,1085
821.561279,1107
821.679871,1050
821.798401,1076
821.916931,1070
822.035461,1046
822.154053,1087
822.272583,1085
822.391174,1053
822.509583,1090
822.628174,1073
822.746704,1038
822.865234,1024
822.983765,1048
823.102295,1073
823.220825,1042
823.339294,1040
823.457825,999
823.576355,1041
823.694824,1048
823.813354,1045
823.931885,1018
824.050354,1033
824.168884,1002
824.287354,1016
824.405823,1038
824.524353,1047
824.642822,1011
824.761353,1037
824.879822,1008
824.998291,1057
825.116699,1045
825.235291,1072
825.353699,1130
825.472168,1212
825.590637,1419
825.709106,1711
825.827576,1918
825.946045,2063
826.064453,1949
826.182983,1571
826.301392,1361
826.4198,1237
826.53833,1110
826.656738,1131
826.775208,1048
826.893677,1031
827.012024,1005
827.130493,1016
827.248962,1009
827.36731,1033
827.485779,993
827.604248,947
827.722595,976
827.841064,974
827.959412,987
828.077942,925
828.196289,933
828.314636,956
828.433105,919
828.551514,958
828.669861,939
828.78833,951
828.906677,932
829.025085,917
829.143433,925
829.261841,938
829.38031,961
829.498657,946
829.617004,926
829.735413,947
829.85376,923
829.972107,913
830.090515,939
830.208862,943
830.327209,933
830.445557,949
830.563904,944
830.682312,966
830.800659,923
830.919006,938
831.037354,981
831.155701,970
831.274048,957
831.392395,982
831.51062,985
831.629028,1003
831.747314,974
831.865662,940
831.984009,951
832.102356,911
832.220642,930
832.338928,935
832.457275,920
832.575623,947
832.693909,943
832.812134,961
832.930481,931
833.048828,946
833.167114,964
833.2854,990
833.403687,991
833.521973,994
833.640259,1027
833.758545,1038
833.876831,1041
833.995056,1123
834.113281,1111
834.231628,1129
834.349915,1130
834.468201,1155
834.586426,1166
834.704651,1167
834.822998,1176
834.941162,1211
835.059448,1237
835.177673,1235
835.295959,1254
835.414246,1244
835.53241,1261
835.650635,1258
835.768921,1225
835.887146,1236
836.005371,1248
836.123596,1215
836.241821,1230
836.360046,1216
836.478271,1157
836.596497,1198
836.714722,1189
836.832886,1214
836.95105,1234
837.069336,1279
837.1875,1278
837.305725,1378
837.423889,1417
837.542053,1433
837.660339,1553
837.778503,1580
837.896667,1564
838.014832,1648
838.132996,1602
838.25116,1554
838.369385,1444
838.487488,1427
838.605713,1283
838.723877,1301
838.84198,1278
838.960205,1194
839.078308,1152
839.196472,1126
839.314636,1104
839.4328,1125
839.550964,1088
839.669067,1047
839.787231,1031
839.905396,987
840.023499,968
840.141602,1006
840.259766,1027
840.377869,1040
840.495972,1054
840.614136,1036
840.732239,1037
840.850342,1092
840.968445,1110
841.086548,1089
841.204651,1080
841.322754,1084
841.440918,1094
841.55896,1104
841.677002,1042
841.795166,1015
841.913208,1044
842.031311,1047
842.149353,1051
842.267456,1018
842.385498,1035
842.503601,1031
842.621643,1010
842.739746,1069
842.857788,1021
842.97583,1047
843.093933,995
843.211975,1037
843.330017,1020
843.44812,1033
843.566101,1041
843.684204,998
843.802246,1005
843.920227,1016
844.038269,1044
844.156311,1037
844.274292,1011
844.392395,1035
844.510376,1064
844.628357,1028
844.74646,1038
844.864441,1043
844.982422,1022
845.100403,1061
845.218384,1087
845.336426,1057
845.454468,1122
845.572449,1107
845.69043,1096
845.808411,1112
845.926453,1080
846.044373,1091
846.162354,1023
846.280396,1041
846.398315,1026
846.516296,1011
846.634216,1031
846.752197,1010
846.870178,984
846.988098,1002
847.106079,930
847.22406,991
847.34198,1010
847.4599,1000
847.577881,977
847.695801,984
847.813782,960
847.931641,975
848.049561,984
848.167603,983
848.285461,1012
848.403381,993
848.521362,1001
848.639221,997
848.75708,1020
848.875,1000
848.99292,1030
849.110901,1029
849.22876,980
849.34668,1046
849.464539,1030
849.582458,1036
849.700317,1026
849.818176,1016
849.936096,1088
850.053955,1058
850.171875,1030
850.289673,1022
850.407593,1017
850.525452,1070
850.643311,1056
850.761169,1086
850.878967,1123
850.996887,1124
851.114746,1160
851.232544,1189
851.350403,1256
851.468262,1335
851.58606,1388
851.703979,1488
851.821777,1595
851.939636,1764
852.057434,2127
852.175232,2849
852.293091,3886
852.410889,5349
852.528687,6426
852.646545,6793
852.764343,6053
852.88208,4682
852.999939,3234
853.117676,2241
853.235535,1762
853.353271,1464
853.471069,1287
853.588928,1267
853.706604,1166
853.824402,1180
853.9422,1230
854.059998,1305
854.177734,1447
854.295532,1647
854.413269,1885
854.531006,2183
854.648804,2415
854.766541,2497
854.884277,2492
855.002014,2315
855.119751,2091
855.237549,1773
855.355225,1605
855.473022,1449
855.590698,1389
855.708435,1246
855.826172,1279
855.943848,1260
856.061646,1161
856.179321,1194
856.296997,1139
856.414795,1157
856.53241,1150
856.650085,1148
856.767822,1147
856.885559,1168
857.003174,1179
857.120911,1207
857.238586,1174
857.356201,1217
857.473938,1207
857.591614,1246
857.709351,1214
857.826965,1211
857.944641,1202
858.062317,1206
858.179993,1170
858.297668,1214
858.415283,1195
858.532959,1166
858.650574,1170
858.768188,1180
858.885803,1168
859.003479,1178
859.121094,1163
859.23877,1197
859.356384,1208
859.473999,1126
859.591675,1184
859.709229,1145
859.826843,1187
859.944458,1166
860.062012,1137
860.179626,1107
860.297302,1110
860.414856,1114
860.532471,1031
860.650024,1095
860.767639,1030
860.885193,1074
861.002808,1023
861.120361,1027
861.237976,1015
861.35553,1024
861.473022,1034
861.590698,1021
861.708191,990
861.825745,1020
861.943298,1043
862.060852,987
862.178406,1012
862.295959,998
862.413513,1031
862.531006,986
862.64856,1026
862.766113,1032
862.883667,1093
863.00116,1027
863.118713,1082
863.236206,1141
863.353699,1205
863.471252,1350
863.588745,1419
863.706177,1526
863.82373,1620
863.941162,1659
864.058716,1619
864.176208,1578
864.29364,1455
864.411194,1357
864.528687,1281
864.646118,1314
864.763611,1253
864.881042,1231
864.998535,1226
865.116028,1305
865.233459,1310
865.350891,1403
865.468384,1514
865.585754,1640
865.703308,1731
865.820679,1858
865.938171,1878
866.055542,1934
866.173035,1825
866.290466,1787
866.407837,1760
866.52533,1749
866.6427,1821
866.760071,1773
866.877563,1841
866.994934,1841
867.112305,1858
867.229736,1904
867.347107,1789
867.464539,1813
867.58197,1726
867.699341,1663
867.81665,1593
867.934082,1509
868.051453,1441
868.168823,1411
868.286194,1373
868.403564,1300
868.520935,1235
868.638306,1258
868.755676,1258
868.872986,1226
868.990295,1213
869.107727,1232
869.225037,1219
869.342346,1187
869.459717,1184
869.577026,1183
869.694336,1158
869.811707,1149
869.929016,1141
870.046326,1162
870.163635,1141
870.280945,1150
870.398254,1108
870.515564,1147
870.632812,1123
870.750183,1157
870.867432,1150
870.984741,1104
871.102051,1127
871.219299,1130
871.336609,1172
871.453918,1117
871.571106,1158
871.688416,1111
871.805664,1092
871.922852,1098
872.040222,1075
872.157471,1112
872.274719,1144
872.391968,1107
872.509155,1123
872.626465,1124
872.743652,1134
872.860962,1139
872.978149,1131
873.095337,1128
873.212646,1155
873.329834,1139
873.44696,1137
873.564209,1148
873.681396,1186
873.798645,1180
873.915894,1191
874.03302,1233
874.150208,1209
874.267456,1266
874.384583,1210
874.501831,1230
874.618958,1238
874.736145,1273
874.853333,1256
874.970459,1267
875.087646,1265
875.204834,1278
875.32196,1238
875.439148,1291
875.556274,1297
875.673401,1349
875.790527,1289
875.907715,1341
876.024841,1378
876.141968,1377
876.259094,1376
876.376282,1413
876.493347,1421
876.610474,1417
876.7276,1430
876.844727,1484
876.961853,1445
877.078918,1482
877.195984,1428
877.313171,1506
877.430237,1438
877.547302,1441
877.664368,1442
877.781433,1394
877.898499,1372
878.015625,1366
878.13269,1379
878.249695,1347
878.366821,1355
878.483887,1325
878.600952,1317
878.717957,1330
878.834961,1342
878.952087,1338
879.069092,1350
879.186157,1348
879.303162,1349
879.420227,1347
879.537231,1312
879.654236,1333
879.77124,1341
879.888306,1323
880.005249,1373
880.122314,1309
880.239319,1319
880.356323,1323
880.473328,1289
880.590271,1346
880.707275,1280
880.824341,1258
880.941284,1277
881.058228,1287
881.175232,1250
881.292236,1282
881.40918,1288
881.526123,1265
881.643066,1267
881.760071,1281
881.877014,1226
881.993958,1238
882.11084,1272
882.227783,1221
882.344727,1251
882.46167,1251
882.578613,1229
882.695618,1219
882.812439,1220
882.929382,1239
883.046326,1238
883.163208,1251
883.280151,1184
883.397034,1239
883.513916,1218
883.630798,1223
883.747742,1228
883.864563,1237
883.981506,1220
884.098389,1206
884.21521,1195
884.332153,1215
884.448975,1204
884.565796,1193
884.682678,1239
884.7995,1239
884.916443,1220
885.033264,1248
885.150085,1250
885.266968,1287
885.383789,1291
885.500671,1332
885.617493,1353
885.734314,1383
885.851196,1365
885.967896,1457
886.084717,1441
886.201599,1500
886.318359,1507
886.435181,1495
886.552002,1488
886.668762,1508
886.785645,1401
886.902344,1354
887.019165,1306
887.135925,1261
887.252747,1265
887.369446,1235
887.486267,1238
887.603027,1203
887.719788,1173
887.836548,1175
887.953247,1176
888.070068,1199
888.186829,1186
888.303528,1199
888.420288,1179
888.536987,1172
888.653687,1168
888.770447,1207
888.887146,1175
889.003967,1160
889.120667,1209
889.237305,1235
889.354065,1241
889.470703,1187
889.587463,1192
889.704163,1253
889.820862,1217
889.937561,1219
890.054199,1167
890.170837,1192
890.287598,1182
890.404236,1184
890.520874,1183
890.637634,1142
890.754211,1155
890.87085,1203
890.987549,1187
891.104187,1167
891.220886,1169
891.337463,1189
891.454102,1156
891.57074,1144
891.687378,1189
891.804077,1184
891.920654,1147
892.037231,1197
892.15387,1193
892.270447,1201
892.387085,1184
892.503723,1194
892.6203,1219
892.736877,1159
892.853516,1157
892.970032,1178
893.08667,1203
893.203186,1160
893.319763,1206
893.43634,1172
893.552917,1173
893.669556,1167
893.786011,1165
893.902588,1194
894.019165,1175
894.135681,1232
894.252197,1192
894.368835,1192
894.485291,1144
894.601868,1150
894.718384,1195
894.8349,1193
894.951355,1173
895.067932,1191
895.184448,1178
895.300964,1202
895.417419,1225
895.533936,1231
895.650452,1221
895.766907,1227
895.883423,1249
895.999878,1222
896.116333,1222
896.232849,1251
896.349304,1292
896.465759,1384
896.582214,1455
896.698669,1534
896.815125,1656
896.931641,1695
897.048035,1634
897.164551,1554
897.280884,1480
897.397339,1431
897.513794,1458
897.630249,1455
897.746582,1470
897.863098,1567
897.979431,1700
898.095886,1893
898.212341,2090
898.328674,2154
898.445129,2270
898.561462,2174
898.677795,2104
898.794312,1880
898.910645,1722
899.026978,1571
899.143433,1470
899.259766,1362
899.37616,1327
899.492493,1255
899.608765,1268
899.725159,1202
899.841553,1210
899.957947,1204
900.07428,1224
900.190552,1184
900.306946,1175
900.423157,1151
900.53949,1161
900.655884,1161
900.772156,1147
900.888489,1166
901.004822,1173
901.121033,1136
901.237366,1160
901.353699,1158
901.46991,1139
901.586304,1130
901.702515,1111
901.818787,1119
901.93512,1125
902.051331,1188
902.167603,1122
902.283875,1163
902.400085,1109
902.516418,1143
902.632629,1161
902.74884,1138
902.865112,1128
902.981384,1134
903.097595,1131
903.213867,1136
903.330017,1165
903.446289,1147
903.5625,1175
903.67865,1140
903.794922,1160
903.911072,1151
904.027344,1109
904.143494,1122
904.259705,1136
904.375916,1149
904.492065,1103
904.608215,1149
904.724426,1140
904.840576,1122
904.956726,1107
905.072876,1143
905.189087,1105
905.305176,1108
905.421387,1107
905.537537,1128
905.653687,1137
905.769775,1096
905.885925,1122
906.002014,1133
906.118164,1143
906.234314,1099
906.350403,1092
906.466492,1160
906.582642,1128
906.69873,1098
906.814758,1091
906.930908,1098
907.046936,1113
907.163086,1117
907.279175,1121
907.395264,1102
907.511353,1110
907.62738,1122
907.743408,1121
907.859497,1094
907.975525,1102
908.091553,1097
908.207703,1102
908.32373,1104
908.439758,1122
908.555786,1096
908.671814,1116
908.787842,1129
908.90387,1112
909.019775,1073
909.135864,1093
909.251892,1130
909.367859,1110
909.483826,1129
909.599854,1127
909.715881,1088
909.831848,1064
909.947815,1062
910.063782,1093
910.179749,1074
910.295776,1093
910.411743,1083
910.527649,1134
910.643616,1106
910.759583,1107
910.875488,1103
910.991455,1068
911.107361,1050
911.223267,1062
911.339294,1088
911.4552,1077
911.571106,1081
911.687073,1094
911.802979,1087
911.918823,1089
912.034729,1087
912.150635,1103
912.266602,1105
912.382446,1089
912.498352,1087
912.614197,1076
912.730103,1114
912.846008,1078
