792.44574,965
792.56488,977
792.68396,1010
792.80304,978
792.92218,967
793.041199,962
793.160339,929
793.279419,988
793.398499,969
793.517578,943
793.636658,953
793.755737,941
793.874817,960
793.993896,1007
794.112976,1009
794.232056,1048
794.351074,1037
794.470215,1046
794.589233,1074
794.708313,1209
794.827393,1455
794.946411,1498
795.065552,1515
795.18457,1317
795.303589,1091
795.422668,983
795.541687,967
795.660767,934
795.779846,925
795.898865,940
796.017883,953
796.136963,980
796.255981,955
796.375061,942
796.49408,935
796.613037,943
796.732117,945
796.851135,947
796.970154,933
797.089233,943
797.208191,944
797.327271,956
797.446228,928
797.565186,928
797.684265,929
797.803223,947
797.922241,956
798.04126,922
798.160278,930
798.279297,977
798.398315,952
798.517273,951
798.636292,930
798.75531,965
798.874268,933
798.993286,952
799.112244,929
799.231323,932
799.350281,923
799.469238,928
799.588257,921
799.707153,919
799.826111,934
799.945129,950
800.064087,968
800.183044,959
800.302063,933
800.421021,917
800.539978,944
800.658936,928
800.777893,943
800.896912,935
801.015747,917
801.134705,925
801.253723,942
801.37262,962
801.491638,958
801.610535,922
801.729492,946
801.84845,919
801.967407,943
802.086243,925
802.205261,958
802.324158,944
802.443115,948
802.562073,942
802.680969,923
802.799927,941
802.918762,949
803.037659,898
803.156677,954
803.275574,934
803.39447,910
803.513428,915
803.632263,939
803.751221,993
803.870117,906
803.989014,919
804.107971,958
804.226746,945
804.345642,922
804.4646,946
804.583496,963
804.702393,969
804.821228,942
804.940125,942
805.059021,934
805.177917,988
805.296814,944
805.415649,969
805.534546,911
805.653442,925
805.772278,936
805.891113,914
806.01001,900
806.128906,942
806.247742,945
806.366577,936
806.485413,929
806.604309,940
806.723145,963
806.84198,931
806.960876,949
807.079712,915
807.198486,943
807.317383,923
807.436218,963
807.554993,933
807.673889,924
807.792725,945
807.91156,934
808.030396,928
808.14917,929
808.268005,920
808.386841,957
808.505676,1223
808.624451,1927
808.743286,2236
808.862122,2278
808.980896,2045
809.099731,1505
809.218506,1132
809.337341,947
809.456116,971
809.57489,912
809.693726,915
809.8125,935
809.931274,901
810.050049,912
810.168884,932
810.287659,917
810.406372,900
810.525269,883
810.643982,918
810.762756,914
810.881531,902
811.000305,923
811.11908,927
811.237854,916
811.356567,899
811.475403,936
811.594116,906
811.71283,913
811.831604,920
811.950378,940
812.069153,988
812.187927,1048
812.30658,1165
812.425415,1139
812.544128,1142
812.662781,1005
812.781616,955
812.900269,914
813.019043,898
813.137756,931
813.256531,969
813.375244,973
813.493896,974
813.612671,960
813.731384,939
813.850037,1066
813.96875,1602
814.087524,1950
814.206238,2107
814.324951,1942
814.443604,1463
814.562256,1076
814.68103,949
814.799683,936
814.918335,899
815.037109,925
815.155762,891
815.274475,900
815.393188,903
815.511841,900
815.630554,899
815.749146,877
815.867859,878
815.986572,900
816.105164,913
816.223877,924
816.342529,920
816.461182,903
816.579895,881
816.698486,899
816.817139,921
816.935791,908
817.054504,902
817.173096,905
817.291748,930
817.4104,903
817.529053,888
817.647644,909
817.766235,891
817.884949,876
818.00354,904
818.122192,905
818.240845,869
818.359436,912
818.478088,904
818.59668,890
818.715271,898
818.833923,881
818.952515,905
819.071106,889
819.189758,888
819.30835,861
819.426941,882
819.545532,890
819.664124,885
819.782715,891
819.901306,892
820.019897,920
820.138489,898
820.25708,903
820.375671,921
820.494202,898
820.612732,876
820.731384,869
820.849915,922
820.968506,869
821.087097,888
821.205627,894
821.324158,880
821.442749,911
821.561279,882
821.679871,886
821.798401,888
821.916931,873
822.035461,895
822.154053,880
822.272583,878
822.391174,870
822.509583,880
822.628174,876
822.746704,877
822.865234,862
822.983765,900
823.102295,899
823.220825,906
823.339294,868
823.457825,880
823.576355,872
823.694824,885
823.813354,865
823.931885,877
824.050354,891
824.168884,878
824.287354,842
824.405823,873
824.524353,860
824.642822,877
824.761353,882
824.879822,872
824.998291,898
825.116699,851
825.235291,868
825.353699,892
825.472168,882
825.590637,903
825.709106,863
825.827576,853
825.946045,848
826.064453,924
826.182983,973
826.301392,1059
826.4198,1044
826.53833,1045
826.656738,991
826.775208,998
826.893677,1130
827.012024,1362
827.130493,1386
827.248962,1328
827.36731,1157
827.485779,996
827.604248,900
827.722595,876
827.841064,843
827.959412,877
828.077942,856
828.196289,861
828.314636,850
828.433105,843
828.551514,857
828.669861,848
828.78833,870
828.906677,864
829.025085,858
829.143433,887
829.261841,876
829.38031,875
829.498657,877
829.617004,876
829.735413,881
829.85376,865
829.972107,878
830.090515,948
830.208862,1782
830.327209,3613
830.445557,4690
830.563904,4856
830.682312,4184
830.800659,2613
830.919006,1407
831.037354,1034
831.155701,936
831.274048,867
831.392395,878
831.51062,898
831.629028,829
831.747314,901
831.865662,850
831.984009,855
832.102356,861
832.220642,855
832.338928,865
832.457275,842
832.575623,859
832.693909,881
832.812134,858
832.930481,869
833.048828,864
833.167114,850
833.2854,851
833.403687,865
833.521973,849
833.640259,854
833.758545,851
833.876831,850
833.995056,866
834.113281,853
834.231628,904
834.349915,850
834.468201,849
834.586426,863
834.704651,865
834.822998,898
834.941162,871
835.059448,855
835.177673,878
835.295959,846
835.414246,859
835.53241,859
835.650635,883
835.768921,845
835.887146,863
836.005371,855
836.123596,859
836.241821,843
836.360046,853
836.478271,872
836.596497,886
836.714722,977
836.832886,1252
836.95105,1404
837.069336,1393
837.1875,1374
837.305725,1139
837.423889,986
837.542053,934
837.660339,912
837.778503,1288
837.896667,5504
838.014832,15146
838.132996,21336
838.25116,22290
838.369385,18789
838.487488,10318
838.605713,4306
838.723877,1921
838.84198,1201
838.960205,986
839.078308,913
839.196472,890
839.314636,890
839.4328,871
839.550964,869
839.669067,842
839.787231,860
839.905396,865
840.023499,869
840.141602,831
840.259766,868
840.377869,815
840.495972,863
840.614136,835
840.732239,821
840.850342,877
840.968445,835
841.086548,868
841.204651,869
841.322754,857
841.440918,891
841.55896,849
841.677002,864
841.795166,871
841.913208,1235
842.031311,2561
842.149353,3766
842.267456,4232
842.385498,3920
842.503601,2808
842.621643,1680
842.739746,1128
842.857788,924
842.97583,874
843.093933,836
843.211975,851
843.330017,864
843.44812,838
843.566101,816
843.684204,828
843.802246,840
843.920227,851
844.038269,867
844.156311,873
844.274292,830
844.392395,839
844.510376,826
844.628357,836
844.74646,802
844.864441,823
844.982422,843
845.100403,864
845.218384,820
845.336426,846
845.454468,833
845.572449,823
845.69043,854
845.808411,814
845.926453,842
846.044373,821
846.162354,872
846.280396,834
846.398315,883
846.516296,1028
846.634216,1177
846.752197,1258
846.870178,1193
846.988098,1101
847.106079,931
847.22406,842
847.34198,864
847.4599,845
847.577881,828
847.695801,859
847.813782,838
847.931641,835
848.049561,828
848.167603,809
848.285461,850
848.403381,854
848.521362,860
848.639221,960
848.75708,980
848.875,1000
848.99292,1003
849.110901,944
849.22876,902
849.34668,828
849.464539,870
849.582458,1816
849.700317,6860
849.818176,11593
849.936096,13788
850.053955,12865
850.171875,9202
850.289673,4447
850.407593,2080
850.525452,1289
850.643311,1026
850.761169,901
850.878967,890
850.996887,846
851.114746,835
851.232544,840
851.350403,832
851.468262,836
851.58606,855
851.703979,837
851.821777,851
851.939636,857
852.057434,816
852.175232,824
852.293091,873
852.410889,831
852.528687,860
852.646545,830
852.764343,826
852.88208,844
852.999939,827
853.117676,873
853.235535,838
853.353271,832
853.471069,839
853.588928,828
853.706604,824
853.824402,871
853.9422,812
854.059998,861
854.177734,814
854.295532,840
854.413269,830
854.531006,862
854.648804,946
854.766541,997
854.884277,1056
855.002014,1021
855.119751,958
855.237549,861
855.355225,842
855.473022,853
855.590698,840
855.708435,842
855.826172,827
855.943848,838
856.061646,847
856.179321,836
856.296997,816
856.414795,817
856.53241,828
856.650085,836
856.767822,838
856.885559,841
857.003174,840
857.120911,829
857.238586,868
857.356201,1008
857.473938,974
857.591614,994
857.709351,992
857.826965,910
857.944641,857
858.062317,856
858.179993,856
858.297668,874
858.415283,863
858.532959,924
858.650574,935
858.768188,965
858.885803,895
859.003479,872
859.121094,965
859.23877,2114
859.356384,3385
859.473999,3893
859.591675,3801
859.709229,3040
859.826843,1886
859.944458,1229
860.062012,1001
860.179626,872
860.297302,843
860.414856,832
860.532471,858
860.650024,866
860.767639,857
860.885193,841
861.002808,834
861.120361,826
861.237976,852
861.35553,834
861.473022,866
861.590698,832
861.708191,822
861.825745,858
861.943298,853
862.060852,826
862.178406,853
862.295959,845
862.413513,828
862.531006,831
862.64856,859
862.766113,829
862.883667,847
863.00116,849
863.118713,853
863.236206,855
863.353699,869
863.471252,1283
863.588745,3197
863.706177,4782
863.82373,5272
863.941162,4916
864.058716,3829
864.176208,2184
864.29364,1365
864.411194,1052
864.528687,933
864.646118,911
864.763611,951
864.881042,1089
864.998535,1197
865.116028,1226
865.233459,1221
865.350891,1079
865.468384,1883
865.585754,4372
865.703308,6150
865.820679,6700
865.938171,6133
866.055542,4221
866.173035,2394
866.290466,1438
866.407837,1087
866.52533,934
866.6427,906
866.760071,841
866.877563,846
866.994934,842
867.112305,846
867.229736,882
867.347107,859
867.464539,834
867.58197,852
867.699341,853
867.81665,872
867.934082,940
868.051453,1254
868.168823,1591
868.286194,2427
868.403564,2909
868.520935,2981
868.638306,2666
868.755676,2060
868.872986,1400
868.990295,1109
869.107727,946
869.225037,854
869.342346,886
869.459717,868
869.577026,843
869.694336,856
869.811707,821
869.929016,841
870.046326,837
870.163635,848
870.280945,875
870.398254,898
870.515564,1006
870.632812,1140
870.750183,1190
870.867432,1150
870.984741,1057
871.102051,932
871.219299,878
871.336609,872
871.453918,885
871.571106,855
871.688416,865
871.805664,842
871.922852,853
872.040222,846
872.157471,873
872.274719,835
872.391968,860
872.509155,819
872.626465,843
872.743652,834
872.860962,831
872.978149,869
873.095337,864
873.212646,837
873.329834,869
873.44696,822
873.564209,849
873.681396,824
873.798645,873
873.915894,833
874.03302,839
874.150208,882
874.267456,841
874.384583,843
874.501831,830
874.618958,855
874.736145,850
874.853333,851
874.970459,854
875.087646,827
875.204834,822
875.32196,828
875.439148,841
875.556274,868
875.673401,831
875.790527,845
875.907715,865
876.024841,834
876.141968,858
876.259094,827
876.376282,859
876.493347,874
876.610474,871
876.7276,861
876.844727,879
876.961853,861
877.078918,869
877.195984,1049
877.313171,1315
877.430237,1454
877.547302,1428
877.664368,1324
877.781433,1164
877.898499,1090
878.015625,1918
878.13269,5025
878.249695,7722
878.366821,9376
878.483887,10057
878.600952,8789
878.717957,6321
878.834961,4558
878.952087,2966
879.069092,1868
879.186157,1321
879.303162,1072
879.420227,933
879.537231,917
879.654236,892
879.77124,868
879.888306,889
880.005249,868
880.122314,867
880.239319,866
880.356323,842
880.473328,855
880.590271,858
880.707275,863
880.824341,858
880.941284,829
881.058228,864
881.175232,863
881.292236,836
881.40918,872
881.526123,832
881.643066,843
881.760071,874
881.877014,889
881.993958,859
882.11084,858
882.227783,848
882.344727,854
882.46167,861
882.578613,854
882.695618,838
882.812439,860
882.929382,859
883.046326,866
883.163208,874
883.280151,895
883.397034,908
883.513916,923
883.630798,880
883.747742,855
883.864563,877
883.981506,865
884.098389,861
884.21521,873
884.332153,865
884.448975,837
884.565796,858
884.682678,865
884.7995,844
884.916443,873
885.033264,860
885.150085,865
885.266968,949
885.383789,1970
885.500671,3418
885.617493,4096
885.734314,4256
885.851196,3659
885.967896,2366
886.084717,1681
886.201599,1251
886.318359,1083
886.435181,955
886.552002,1485
886.668762,2305
886.785645,2795
886.902344,2808
887.019165,2622
887.135925,1818
887.252747,1358
887.369446,1101
887.486267,990
887.603027,921
887.719788,893
887.836548,863
887.953247,874
888.070068,891
888.186829,878
888.303528,867
888.420288,880
888.536987,862
888.653687,846
888.770447,867
888.887146,867
889.003967,876
889.120667,832
889.237305,885
889.354065,883
889.470703,868
889.587463,858
889.704163,878
889.820862,848
889.937561,849
890.054199,867
890.170837,880
890.287598,891
890.404236,868
890.520874,858
890.637634,842
890.754211,878
890.87085,884
890.987549,896
891.104187,850
891.220886,877
891.337463,884
891.454102,884
891.57074,869
891.687378,896
891.804077,923
891.920654,1159
892.037231,1473
892.15387,1727
892.270447,1715
892.387085,1560
892.503723,1278
892.6203,1072
892.736877,1017
892.853516,954
892.970032,883
893.08667,899
893.203186,881
893.319763,898
893.43634,875
893.552917,875
893.669556,895
893.786011,894
893.902588,901
894.019165,862
894.135681,880
894.252197,906
894.368835,881
894.485291,876
894.601868,871
894.718384,893
894.8349,858
894.951355,889
895.067932,871
895.184448,894
895.300964,867
895.417419,878
895.533936,869
895.650452,889
895.766907,876
895.883423,882
895.999878,859
896.116333,873
896.232849,864
896.349304,895
896.465759,872
896.582214,886
896.698669,886
896.815125,886
896.931641,853
897.048035,877
897.164551,892
897.280884,928
897.397339,873
897.513794,876
897.630249,906
897.746582,907
897.863098,903
897.979431,925
898.095886,904
898.212341,895
898.328674,897
898.445129,923
898.561462,894
898.677795,860
898.794312,973
898.910645,984
899.026978,1081
899.143433,1101
899.259766,1030
899.37616,992
899.492493,906
899.608765,915
899.725159,944
899.841553,914
899.957947,927
900.07428,899
900.190552,893
900.306946,911
900.423157,872
900.53949,908
900.655884,901
900.772156,918
900.888489,898
901.004822,920
901.121033,885
901.237366,879
901.353699,892
901.46991,887
901.586304,893
901.702515,865
901.818787,881
901.93512,923
902.051331,932
902.167603,928
902.283875,900
902.400085,878
902.516418,903
902.632629,897
902.74884,920
902.865112,906
902.981384,892
903.097595,922
903.213867,920
903.330017,932
903.446289,899
903.5625,912
903.67865,899
903.794922,896
903.911072,918
904.027344,899
904.143494,898
904.259705,904
904.375916,898
904.492065,902
904.608215,892
904.724426,916
904.840576,915
904.956726,908
905.072876,940
905.189087,909
905.305176,907
905.421387,914
905.537537,900
905.653687,903
905.769775,883
905.885925,901
906.002014,902
906.118164,895
906.234314,914
906.350403,907
906.466492,872
906.582642,929
906.69873,909
906.814758,917
906.930908,910
907.046936,907
907.163086,941
907.279175,921
907.395264,913
907.511353,915
907.62738,892
907.743408,915
907.859497,917
907.975525,921
908.091553,893
908.207703,931
908.32373,933
908.439758,926
908.555786,914
908.671814,947
908.787842,920
908.90387,928
909.019775,913
909.135864,923
909.251892,915
909.367859,889
909.483826,933
909.599854,918
909.715881,941
909.831848,918
909.947815,930
910.063782,928
910.179749,930
910.295776,940
910.411743,933
910.527649,921
910.643616,923
910.759583,980
910.875488,949
910.991455,908
911.107361,939
911.223267,928
911.339294,925
911.4552,920
911.571106,915
911.687073,919
911.802979,926
911.918823,946
912.034729,923
912.150635,942
912.266602,938
912.382446,958
912.498352,940
912.614197,956
912.730103,938
912.846008,915
792.44574,945
792.56488,956
792.68396,1014
792.80304,992
792.92218,932
793.041199,921
793.160339,927
793.279419,970
793.398499,1002
793.517578,945
793.636658,989
793.755737,966
793.874817,960
793.993896,942
794.112976,981
794.232056,1029
794.351074,1030
794.470215,1032
794.589233,1035
794.708313,1190
794.827393,1447
794.946411,1443
795.065552,1449
795.18457,1303
795.303589,1069
795.422668,962
795.541687,994
795.660767,948
795.779846,942
795.898865,942
796.017883,932
796.136963,936
796.255981,935
796.375061,950
796.49408,929
796.613037,955
796.732117,939
796.851135,948
796.970154,955
797.089233,947
797.208191,924
797.327271,939
797.446228,952
797.565186,919
797.684265,941
797.803223,915
797.922241,925
798.04126,943
798.160278,956
798.279297,930
798.398315,949
798.517273,917
798.636292,942
798.75531,975
798.874268,909
798.993286,928
799.112244,928
799.231323,923
799.350281,899
799.469238,947
799.588257,964
799.707153,930
799.826111,932
799.945129,958
800.064087,930
800.183044,936
800.302063,932
800.421021,941
800.539978,930
800.658936,930
800.777893,916
800.896912,906
801.015747,957
801.134705,928
801.253723,950
801.37262,938
801.491638,913
801.610535,944
801.729492,947
801.84845,924
801.967407,940
802.086243,954
802.205261,942
802.324158,938
802.443115,921
802.562073,923
802.680969,922
802.799927,925
802.918762,923
803.037659,939
803.156677,959
803.275574,918
803.39447,906
803.513428,942
803.632263,918
803.751221,918
803.870117,944
803.989014,950
804.107971,897
804.226746,952
804.345642,937
804.4646,954
804.583496,920
804.702393,909
804.821228,938
804.940125,899
805.059021,897
805.177917,926
805.296814,933
805.415649,920
805.534546,963
805.653442,934
805.772278,933
805.891113,939
806.01001,942
806.128906,927
806.247742,929
806.366577,971
806.485413,925
806.604309,932
806.723145,967
806.84198,907
806.960876,911
807.079712,906
807.198486,935
807.317383,910
807.436218,909
807.554993,902
807.673889,919
807.792725,928
807.91156,927
808.030396,930
808.14917,935
808.268005,916
808.386841,948
808.505676,1220
808.624451,1867
808.743286,2325
808.862122,2277
808.980896,2131
809.099731,1516
809.218506,1056
809.337341,965
809.456116,942
809.57489,941
809.693726,935
809.8125,911
809.931274,918
810.050049,916
810.168884,920
810.287659,952
810.406372,913
810.525269,901
810.643982,913
810.762756,917
810.881531,932
811.000305,927
811.11908,911
811.237854,932
811.356567,886
811.475403,919
811.594116,896
811.71283,910
811.831604,902
811.950378,934
812.069153,956
812.187927,1078
812.30658,1120
812.425415,1158
812.544128,1101
812.662781,1043
812.781616,931
812.900269,895
813.019043,908
813.137756,928
813.256531,939
813.375244,1004
813.493896,961
813.612671,943
813.731384,922
813.850037,1064
813.96875,1564
814.087524,2040
814.206238,2098
814.324951,1956
814.443604,1445
814.562256,1106
814.68103,950
814.799683,928
814.918335,916
815.037109,890
815.155762,878
815.274475,873
815.393188,909
815.511841,871
815.630554,915
815.749146,936
815.867859,846
815.986572,929
816.105164,928
816.223877,916
816.342529,883
816.461182,913
816.579895,881
816.698486,876
816.817139,915
816.935791,891
817.054504,893
817.173096,906
817.291748,872
817.4104,918
817.529053,864
817.647644,905
817.766235,862
817.884949,903
818.00354,883
818.122192,912
818.240845,900
818.359436,888
818.478088,900
818.59668,894
818.715271,868
818.833923,873
818.952515,898
819.071106,874
819.189758,835
819.30835,856
819.426941,892
819.545532,861
819.664124,872
819.782715,903
819.901306,908
820.019897,906
820.138489,881
820.25708,891
820.375671,891
820.494202,884
820.612732,888
820.731384,909
820.849915,849
820.968506,898
821.087097,893
821.205627,898
821.324158,881
821.442749,884
821.561279,899
821.679871,874
821.798401,852
821.916931,858
822.035461,843
822.154053,879
822.272583,891
822.391174,870
822.509583,864
822.628174,864
822.746704,893
822.865234,890
822.983765,877
823.102295,884
823.220825,877
823.339294,893
823.457825,900
823.576355,894
823.694824,869
823.813354,871
823.931885,889
824.050354,895
824.168884,888
824.287354,852
824.405823,867
824.524353,877
824.642822,856
824.761353,889
824.879822,900
824.998291,871
825.116699,886
825.235291,895
825.353699,912
825.472168,893
825.590637,894
825.709106,878
825.827576,854
825.946045,865
826.064453,869
826.182983,966
826.301392,1045
826.4198,1099
826.53833,1042
826.656738,988
826.775208,1001
826.893677,1202
827.012024,1321
827.130493,1387
827.248962,1307
827.36731,1126
827.485779,987
827.604248,887
827.722595,881
827.841064,869
827.959412,881
828.077942,862
828.196289,855
828.314636,858
828.433105,815
828.551514,877
828.669861,842
828.78833,869
828.906677,855
829.025085,845
829.143433,846
829.261841,867
829.38031,861
829.498657,836
829.617004,848
829.735413,891
829.85376,861
829.972107,861
830.090515,930
830.208862,1771
830.327209,3557
830.445557,4778
830.563904,4877
830.682312,4185
830.800659,2564
830.919006,1478
831.037354,1049
831.155701,910
831.274048,856
831.392395,863
831.51062,848
831.629028,888
831.747314,838
831.865662,859
831.984009,837
832.102356,846
832.220642,841
832.338928,871
832.457275,855
832.575623,865
832.693909,838
832.812134,863
832.930481,858
833.048828,865
833.167114,842
833.2854,837
833.403687,833
833.521973,835
833.640259,874
833.758545,853
833.876831,859
833.995056,797
834.113281,844
834.231628,829
834.349915,855
834.468201,868
834.586426,848
834.704651,828
834.822998,863
834.941162,857
835.059448,864
835.177673,882
835.295959,832
835.414246,883
835.53241,855
835.650635,861
835.768921,841
835.887146,844
836.005371,871
836.123596,851
836.241821,854
836.360046,853
836.478271,852
836.596497,866
836.714722,936
836.832886,1230
836.95105,1393
837.069336,1403
837.1875,1340
837.305725,1146
837.423889,978
837.542053,920
837.660339,970
837.778503,1284
837.896667,5526
838.014832,15176
838.132996,21417
838.25116,22238
838.369385,18954
838.487488,10325
838.605713,4280
838.723877,1944
838.84198,1228
838.960205,1014
839.078308,913
839.196472,893
839.314636,860
839.4328,849
839.550964,831
839.669067,834
839.787231,817
839.905396,867
840.023499,833
840.141602,840
840.259766,847
840.377869,828
840.495972,859
840.614136,839
840.732239,826
840.850342,835
840.968445,832
841.086548,855
841.204651,834
841.322754,836
841.440918,843
841.55896,874
841.677002,852
841.795166,878
841.913208,1210
842.031311,2523
842.149353,3783
842.267456,4227
842.385498,3922
842.503601,2819
842.621643,1651
842.739746,1135
842.857788,936
842.97583,856
843.093933,824
843.211975,864
843.330017,844
843.44812,804
843.566101,837
843.684204,806
843.802246,854
843.920227,840
844.038269,839
844.156311,833
844.274292,815
844.392395,798
844.510376,855
844.628357,827
844.74646,827
844.864441,876
844.982422,820
845.100403,821
845.218384,818
845.336426,849
845.454468,827
845.572449,803
845.69043,843
845.808411,832
845.926453,815
846.044373,820
846.162354,821
846.280396,809
846.398315,846
846.516296,1018
846.634216,1131
846.752197,1217
846.870178,1213
846.988098,1077
847.106079,946
847.22406,878
847.34198,884
847.4599,844
847.577881,811
847.695801,841
847.813782,784
847.931641,828
848.049561,863
848.167603,815
848.285461,840
848.403381,813
848.521362,856
848.639221,900
848.75708,992
848.875,987
848.99292,989
849.110901,954
849.22876,907
849.34668,856
849.464539,868
849.582458,1773
849.700317,6744
849.818176,11763
849.936096,13770
850.053955,12740
850.171875,9115
850.289673,4377
850.407593,2047
850.525452,1279
850.643311,1016
850.761169,894
850.878967,869
850.996887,851
851.114746,824
851.232544,844
851.350403,844
851.468262,821
851.58606,854
851.703979,844
851.821777,821
851.939636,816
852.057434,804
852.175232,869
852.293091,810
852.410889,817
852.528687,863
852.646545,816
852.764343,860
852.88208,843
852.999939,824
853.117676,839
853.235535,840
853.353271,823
853.471069,829
853.588928,844
853.706604,821
853.824402,838
853.9422,813
854.059998,844
854.177734,835
854.295532,819
854.413269,826
854.531006,874
854.648804,934
854.766541,1016
854.884277,1096
855.002014,1032
855.119751,985
855.237549,888
855.355225,840
855.473022,862
855.590698,836
855.708435,827
855.826172,821
855.943848,820
856.061646,838
856.179321,831
856.296997,853
856.414795,857
856.53241,823
856.650085,840
856.767822,811
856.885559,834
857.003174,813
857.120911,827
857.238586,885
857.356201,962
857.473938,1002
857.591614,997
857.709351,954
857.826965,931
857.944641,854
858.062317,848
858.179993,840
858.297668,819
858.415283,870
858.532959,935
858.650574,946
858.768188,948
858.885803,919
859.003479,864
859.121094,993
859.23877,2084
859.356384,3354
859.473999,3971
859.591675,3780
859.709229,3108
859.826843,1928
859.944458,1236
860.062012,999
860.179626,888
860.297302,843
860.414856,834
860.532471,804
860.650024,834
860.767639,828
860.885193,845
861.002808,844
861.120361,861
861.237976,851
861.35553,832
861.473022,827
861.590698,827
861.708191,834
861.825745,853
861.943298,839
862.060852,840
862.178406,829
862.295959,816
862.413513,851
862.531006,835
862.64856,841
862.766113,834
862.883667,835
863.00116,834
863.118713,842
863.236206,830
863.353699,863
863.471252,1283
863.588745,3228
863.706177,4754
863.82373,5355
863.941162,5038
864.058716,3767
864.176208,2206
864.29364,1355
864.411194,1042
864.528687,956
864.646118,907
864.763611,921
864.881042,1111
864.998535,1205
865.116028,1224
865.233459,1182
865.350891,1070
865.468384,1896
865.585754,4345
865.703308,6182
865.820679,6746
865.938171,6197
866.055542,4221
866.173035,2376
866.290466,1481
866.407837,1124
866.52533,966
866.6427,875
866.760071,872
866.877563,869
866.994934,849
867.112305,848
867.229736,841
867.347107,848
867.464539,895
867.58197,815
867.699341,846
867.81665,865
867.934082,894
868.051453,1241
868.168823,1632
868.286194,2381
868.403564,2860
868.520935,2991
868.638306,2693
868.755676,2089
868.872986,1447
868.990295,1060
869.107727,911
869.225037,881
869.342346,863
869.459717,853
869.577026,842
869.694336,841
869.811707,844
869.929016,845
870.046326,836
870.163635,835
870.280945,860
870.398254,891
870.515564,1054
870.632812,1141
870.750183,1169
870.867432,1137
870.984741,1043
871.102051,977
871.219299,872
871.336609,846
871.453918,835
871.571106,852
871.688416,844
871.805664,832
871.922852,843
872.040222,844
872.157471,843
872.274719,826
872.391968,848
872.509155,851
872.626465,842
872.743652,843
872.860962,883
872.978149,835
873.095337,853
873.212646,840
873.329834,847
873.44696,827
873.564209,855
873.681396,847
873.798645,846
873.915894,846
874.03302,876
874.150208,840
874.267456,856
874.384583,854
874.501831,841
874.618958,819
874.736145,827
874.853333,831
874.970459,834
875.087646,848
875.204834,844
875.32196,859
875.439148,842
875.556274,863
875.673401,840
875.790527,865
875.907715,838
876.024841,837
876.141968,840
876.259094,843
876.376282,844
876.493347,828
876.610474,876
876.7276,833
876.844727,840
876.961853,849
877.078918,901
877.195984,1064
877.313171,1288
877.430237,1428
877.547302,1435
877.664368,1338
877.781433,1144
877.898499,1122
878.015625,1846
878.13269,4963
878.249695,7713
878.366821,9263
878.483887,10048
878.600952,8875
878.717957,6334
878.834961,4492
878.952087,2920
879.069092,1839
879.186157,1257
879.303162,1061
879.420227,940
879.537231,917
879.654236,872
879.77124,865
879.888306,858
880.005249,861
880.122314,868
880.239319,856
880.356323,828
880.473328,850
880.590271,857
880.707275,848
880.824341,847
880.941284,856
881.058228,855
881.175232,833
881.292236,842
881.40918,832
881.526123,820
881.643066,864
881.760071,866
881.877014,832
881.993958,854
882.11084,843
882.227783,858
882.344727,860
882.46167,853
882.578613,834
882.695618,841
882.812439,862
882.929382,850
883.046326,872
883.163208,890
883.280151,891
883.397034,917
883.513916,880
883.630798,893
883.747742,895
883.864563,876
883.981506,847
884.098389,836
884.21521,872
884.332153,857
884.448975,841
884.565796,875
884.682678,857
884.7995,833
884.916443,865
885.033264,862
885.150085,880
885.266968,967
885.383789,1962
885.500671,3397
885.617493,4162
885.734314,4259
885.851196,3607
885.967896,2445
886.084717,1629
886.201599,1239
886.318359,1029
886.435181,952
886.552002,1440
886.668762,2342
886.785645,2804
886.902344,2834
887.019165,2575
887.135925,1860
887.252747,1320
887.369446,1095
887.486267,979
887.603027,876
887.719788,884
887.836548,838
887.953247,865
888.070068,879
888.186829,846
888.303528,879
888.420288,882
888.536987,886
888.653687,886
888.770447,859
888.887146,866
889.003967,859
889.120667,866
889.237305,851
889.354065,841
889.470703,858
889.587463,861
889.704163,872
889.820862,883
889.937561,879
890.054199,899
890.170837,871
890.287598,899
890.404236,883
890.520874,868
890.637634,871
890.754211,863
890.87085,840
890.987549,880
891.104187,888
891.220886,876
891.337463,854
891.454102,864
891.57074,861
891.687378,861
891.804077,924
891.920654,1134
892.037231,1514
892.15387,1750
892.270447,1709
892.387085,1566
892.503723,1291
892.6203,1069
892.736877,1022
892.853516,914
892.970032,912
893.08667,899
893.203186,879
893.319763,866
893.43634,875
893.552917,850
893.669556,893
893.786011,887
893.902588,874
894.019165,870
894.135681,878
894.252197,877
894.368835,888
894.485291,877
894.601868,862
894.718384,868
894.8349,871
894.951355,882
895.067932,886
895.184448,873
895.300964,891
895.417419,870
895.533936,857
895.650452,896
895.766907,868
895.883423,855
895.999878,879
896.116333,859
896.232849,896
896.349304,859
896.465759,879
896.582214,849
896.698669,899
896.815125,897
896.931641,881
897.048035,875
897.164551,890
897.280884,924
897.397339,886
897.513794,900
897.630249,900
897.746582,882
897.863098,866
897.979431,892
898.095886,882
898.212341,889
898.328674,898
898.445129,882
898.561462,883
898.677795,945
898.794312,967
898.910645,1001
899.026978,1080
899.143433,1056
899.259766,1005
899.37616,977
899.492493,918
899.608765,913
899.725159,902
899.841553,877
899.957947,893
900.07428,859
900.190552,916
900.306946,879
900.423157,890
900.53949,856
900.655884,863
900.772156,899
900.888489,888
901.004822,872
901.121033,887
901.237366,868
901.353699,898
901.46991,879
901.586304,927
901.702515,897
901.818787,897
901.93512,881
902.051331,920
902.167603,886
902.283875,914
902.400085,892
902.516418,853
902.632629,894
902.74884,901
902.865112,894
902.981384,905
903.097595,878
903.213867,924
903.330017,900
903.446289,911
903.5625,867
903.67865,901
903.794922,889
903.911072,867
904.027344,891
904.143494,919
904.259705,920
904.375916,885
904.492065,945
904.608215,923
904.724426,870
904.840576,926
904.956726,895
905.072876,909
905.189087,912
905.305176,882
905.421387,913
905.537537,906
905.653687,894
905.769775,882
905.885925,900
906.002014,897
906.118164,889
906.234314,893
906.350403,912
906.466492,916
906.582642,888
906.69873,916
906.814758,913
906.930908,889
907.046936,906
907.163086,922
907.279175,887
907.395264,910
907.511353,903
907.62738,925
907.743408,918
907.859497,917
907.975525,907
908.091553,878
908.207703,934
908.32373,916
908.439758,910
908.555786,906
908.671814,911
908.787842,895
908.90387,914
909.019775,929
909.135864,868
909.251892,925
909.367859,908
909.483826,932
909.599854,900
909.715881,928
909.831848,915
909.947815,912
910.063782,917
910.179749,919
910.295776,932
910.411743,922
910.527649,930
910.643616,948
910.759583,906
910.875488,938
910.991455,939
911.107361,905
911.223267,929
911.339294,961
911.4552,936
911.571106,928
911.687073,910
911.802979,901
911.918823,888
912.034729,927
912.150635,955
912.266602,946
912.382446,945
912.498352,921
912.614197,910
912.730103,957
912.846008,915
792.44574,949
792.56488,962
792.68396,1017
792.80304,974
792.92218,941
793.041199,938
793.160339,938
793.279419,969
793.398499,956
793.517578,934
793.636658,952
793.755737,920
793.874817,945
793.993896,985
794.112976,969
794.232056,1055
794.351074,968
794.470215,987
794.589233,1028
794.708313,1192
794.827393,1428
794.946411,1484
795.065552,1449
795.18457,1281
795.303589,1060
795.422668,970
795.541687,976
795.660767,940
795.779846,994
795.898865,955
796.017883,919
796.136963,948
796.255981,944
796.375061,932
796.49408,916
796.613037,951
796.732117,947
796.851135,949
796.970154,908
797.089233,957
797.208191,914
797.327271,945
797.446228,903
797.565186,947
797.684265,971
797.803223,932
797.922241,937
798.04126,946
798.160278,917
798.279297,936
798.398315,946
798.517273,946
798.636292,941
798.75531,950
798.874268,911
798.993286,932
799.112244,932
799.231323,929
799.350281,899
799.469238,930
799.588257,925
799.707153,917
799.826111,924
799.945129,946
800.064087,890
800.183044,900
800.302063,901
800.421021,950
800.539978,936
800.658936,919
800.777893,946
800.896912,927
801.015747,907
801.134705,909
801.253723,964
801.37262,950
801.491638,930
801.610535,928
801.729492,926
801.84845,919
801.967407,948
802.086243,890
802.205261,941
802.324158,939
802.443115,973
802.562073,944
802.680969,947
802.799927,900
802.918762,943
803.037659,893
803.156677,953
803.275574,927
803.39447,976
803.513428,953
803.632263,895
803.751221,930
803.870117,914
803.989014,929
804.107971,943
804.226746,925
804.345642,916
804.4646,936
804.583496,947
804.702393,929
804.821228,947
804.940125,925
805.059021,920
805.177917,932
805.296814,931
805.415649,893
805.534546,926
805.653442,930
805.772278,895
805.891113,935
806.01001,954
806.128906,945
806.247742,939
806.366577,919
806.485413,927
806.604309,909
806.723145,925
806.84198,921
806.960876,934
807.079712,939
807.198486,915
807.317383,918
807.436218,916
807.554993,902
807.673889,928
807.792725,924
807.91156,896
808.030396,932
808.14917,895
808.268005,918
808.386841,943
808.505676,1241
808.624451,1932
808.743286,2285
808.862122,2411
808.980896,2037
809.099731,1438
809.218506,1091
809.337341,932
809.456116,945
809.57489,919
809.693726,927
809.8125,920
809.931274,898
810.050049,938
810.168884,889
810.287659,890
810.406372,899
810.525269,899
810.643982,919
810.762756,892
810.881531,915
811.000305,905
811.11908,944
811.237854,924
811.356567,893
811.475403,893
811.594116,907
811.71283,939
811.831604,937
811.950378,939
812.069153,956
812.187927,1042
812.30658,1161
812.425415,1119
812.544128,1149
812.662781,1022
812.781616,927
812.900269,897
813.019043,937
813.137756,894
813.256531,970
813.375244,1020
813.493896,955
813.612671,956
813.731384,927
813.850037,1071
813.96875,1574
814.087524,2007
814.206238,2093
814.324951,1867
814.443604,1487
814.562256,1071
814.68103,938
814.799683,917
814.918335,889
815.037109,936
815.155762,886
815.274475,892
815.393188,870
815.511841,891
815.630554,865
815.749146,894
815.867859,887
815.986572,882
816.105164,901
816.223877,888
816.342529,912
816.461182,907
816.579895,913
816.698486,898
816.817139,900
816.935791,877
817.054504,887
817.173096,877
817.291748,888
817.4104,888
817.529053,864
817.647644,890
817.766235,868
817.884949,881
818.00354,885
818.122192,881
818.240845,879
818.359436,846
818.478088,880
818.59668,870
818.715271,902
818.833923,856
818.952515,871
819.071106,875
819.189758,883
819.30835,877
819.426941,902
819.545532,887
819.664124,855
819.782715,915
819.901306,900
820.019897,862
820.138489,892
820.25708,861
820.375671,912
820.494202,877
820.612732,893
820.731384,860
820.849915,891
820.968506,903
821.087097,864
821.205627,888
821.324158,891
821.442749,872
821.561279,882
821.679871,897
821.798401,852
821.916931,859
822.035461,924
822.154053,830
822.272583,844
822.391174,842
822.509583,845
822.628174,846
822.746704,895
822.865234,864
822.983765,858
823.102295,853
823.220825,888
823.339294,847
823.457825,859
823.576355,862
823.694824,866
823.813354,897
823.931885,891
824.050354,870
824.168884,903
824.287354,854
824.405823,862
824.524353,860
824.642822,884
824.761353,889
824.879822,860
824.998291,881
825.116699,862
825.235291,877
825.353699,938
825.472168,881
825.590637,893
825.709106,901
825.827576,874
825.946045,871
826.064453,874
826.182983,954
826.301392,1012
826.4198,1060
826.53833,1054
826.656738,946
826.775208,958
826.893677,1113
827.012024,1342
827.130493,1380
827.248962,1325
827.36731,1105
827.485779,960
827.604248,868
827.722595,886
827.841064,891
827.959412,840
828.077942,850
828.196289,843
828.314636,868
828.433105,872
828.551514,839
828.669861,854
828.78833,825
828.906677,845
829.025085,825
829.143433,880
829.261841,894
829.38031,829
829.498657,871
829.617004,871
829.735413,847
829.85376,867
829.972107,882
830.090515,907
830.208862,1789
830.327209,3595
830.445557,4764
830.563904,4913
830.682312,4204
830.800659,2549
830.919006,1489
831.037354,1020
831.155701,901
831.274048,873
831.392395,873
831.51062,851
831.629028,868
831.747314,875
831.865662,869
831.984009,829
832.102356,851
832.220642,835
832.338928,849
832.457275,864
832.575623,855
832.693909,890
832.812134,855
832.930481,853
833.048828,869
833.167114,869
833.2854,872
833.403687,824
833.521973,857
833.640259,853
833.758545,877
833.876831,865
833.995056,853
834.113281,845
834.231628,861
834.349915,848
834.468201,855
834.586426,855
834.704651,846
834.822998,869
834.941162,866
835.059448,810
835.177673,819
835.295959,814
835.414246,819
835.53241,845
835.650635,855
835.768921,854
835.887146,845
836.005371,843
836.123596,857
836.241821,805
836.360046,847
836.478271,838
836.596497,835
836.714722,954
836.832886,1192
836.95105,1394
837.069336,1421
837.1875,1321
837.305725,1126
837.423889,963
837.542053,921
837.660339,949
837.778503,1242
837.896667,5547
838.014832,15386
838.132996,21410
838.25116,22270
838.369385,18952
838.487488,10468
838.605713,4176
838.723877,1880
838.84198,1198
838.960205,986
839.078308,918
839.196472,868
839.314636,858
839.4328,848
839.550964,856
839.669067,832
839.787231,853
839.905396,858
840.023499,845
840.141602,841
840.259766,845
840.377869,856
840.495972,831
840.614136,824
840.732239,836
840.850342,848
840.968445,836
841.086548,839
841.204651,835
841.322754,870
841.440918,844
841.55896,850
841.677002,877
841.795166,877
841.913208,1195
842.031311,2552
842.149353,3849
842.267456,4277
842.385498,3888
842.503601,2881
842.621643,1680
842.739746,1118
842.857788,919
842.97583,804
843.093933,859
843.211975,850
843.330017,836
843.44812,849
843.566101,825
843.684204,822
843.802246,837
843.920227,843
844.038269,827
844.156311,840
844.274292,824
844.392395,828
844.510376,828
844.628357,844
844.74646,848
844.864441,797
844.982422,835
845.100403,818
845.218384,824
845.336426,837
845.454468,836
845.572449,829
845.69043,829
845.808411,815
845.926453,815
846.044373,839
846.162354,821
846.280396,806
846.398315,878
846.516296,1031
846.634216,1179
846.752197,1247
846.870178,1220
846.988098,1085
847.106079,916
847.22406,872
847.34198,845
847.4599,855
847.577881,819
847.695801,811
847.813782,854
847.931641,805
848.049561,842
848.167603,792
848.285461,852
848.403381,818
848.521362,865
848.639221,906
848.75708,966
848.875,1005
848.99292,1003
849.110901,924
849.22876,867
849.34668,868
849.464539,892
849.582458,1816
849.700317,6877
849.818176,11691
849.936096,13749
850.053955,12873
850.171875,9143
850.289673,4400
850.407593,2075
850.525452,1293
850.643311,1006
850.761169,877
850.878967,881
850.996887,807
851.114746,809
851.232544,870
851.350403,854
851.468262,852
851.58606,837
851.703979,835
851.821777,843
851.939636,821
852.057434,839
852.175232,841
852.293091,807
852.410889,839
852.528687,832
852.646545,817
852.764343,832
852.88208,845
852.999939,866
853.117676,829
853.235535,828
853.353271,818
853.471069,884
853.588928,816
853.706604,825
853.824402,823
853.9422,825
854.059998,828
854.177734,825
854.295532,814
854.413269,804
854.531006,859
854.648804,944
854.766541,1015
854.884277,1054
855.002014,1032
855.119751,942
855.237549,862
855.355225,829
855.473022,833
855.590698,819
855.708435,831
855.826172,827
855.943848,848
856.061646,819
856.179321,807
856.296997,825
856.414795,826
856.53241,808
856.650085,821
856.767822,856
856.885559,823
857.003174,849
857.120911,825
857.238586,893
857.356201,994
857.473938,1033
857.591614,999
857.709351,960
857.826965,906
857.944641,831
858.062317,840
858.179993,818
858.297668,852
858.415283,883
858.532959,904
858.650574,887
858.768188,922
858.885803,914
859.003479,852
859.121094,982
859.23877,2045
859.356384,3295
859.473999,3952
859.591675,3727
859.709229,3036
859.826843,1889
859.944458,1242
860.062012,987
860.179626,906
860.297302,849
860.414856,864
860.532471,852
860.650024,840
860.767639,848
860.885193,848
861.002808,820
861.120361,846
861.237976,829
861.35553,827
861.473022,842
861.590698,848
861.708191,824
861.825745,841
861.943298,854
862.060852,818
862.178406,832
862.295959,860
862.413513,820
862.531006,849
862.64856,822
862.766113,853
862.883667,829
863.00116,837
863.118713,829
863.236206,829
863.353699,855
863.471252,1304
863.588745,3278
863.706177,4825
863.82373,5327
863.941162,4978
864.058716,3811
864.176208,2185
864.29364,1398
864.411194,1059
864.528687,911
864.646118,882
864.763611,923
864.881042,1103
864.998535,1222
865.116028,1214
865.233459,1154
865.350891,1073
865.468384,1861
865.585754,4292
865.703308,6085
865.820679,6718
865.938171,6149
866.055542,4227
866.173035,2420
866.290466,1487
866.407837,1113
866.52533,977
866.6427,869
866.760071,883
866.877563,847
866.994934,824
867.112305,846
867.229736,793
867.347107,839
867.464539,858
867.58197,853
867.699341,860
867.81665,852
867.934082,875
868.051453,1252
868.168823,1643
868.286194,2422
868.403564,2889
868.520935,2974
868.638306,2693
868.755676,2127
868.872986,1446
868.990295,1077
869.107727,926
869.225037,844
869.342346,822
869.459717,880
869.577026,833
869.694336,846
869.811707,890
869.929016,842
870.046326,895
870.163635,843
870.280945,857
870.398254,875
870.515564,1014
870.632812,1128
870.750183,1157
870.867432,1167
870.984741,1070
871.102051,940
871.219299,854
871.336609,871
871.453918,832
871.571106,832
871.688416,843
871.805664,828
871.922852,837
872.040222,836
872.157471,861
872.274719,837
872.391968,818
872.509155,836
872.626465,813
872.743652,842
872.860962,839
872.978149,828
873.095337,815
873.212646,827
873.329834,813
873.44696,849
873.564209,831
873.681396,824
873.798645,846
873.915894,867
874.03302,828
874.150208,857
874.267456,845
874.384583,819
874.501831,837
874.618958,822
874.736145,841
874.853333,840
874.970459,851
875.087646,827
875.204834,850
875.32196,849
875.439148,863
875.556274,849
875.673401,843
875.790527,843
875.907715,827
876.024841,833
876.141968,821
876.259094,851
876.376282,834
876.493347,836
876.610474,838
876.7276,856
876.844727,826
876.961853,858
877.078918,876
877.195984,1083
877.313171,1335
877.430237,1464
877.547302,1425
877.664368,1365
877.781433,1142
877.898499,1105
878.015625,1843
878.13269,4955
878.249695,7815
878.366821,9226
878.483887,9937
878.600952,8826
878.717957,6285
878.834961,4531
878.952087,2896
879.069092,1821
879.186157,1271
879.303162,1051
879.420227,942
879.537231,891
879.654236,850
879.77124,856
879.888306,839
880.005249,833
880.122314,861
880.239319,856
880.356323,824
880.473328,871
880.590271,838
880.707275,829
880.824341,810
880.941284,851
881.058228,837
881.175232,856
881.292236,854
881.40918,863
881.526123,867
881.643066,875
881.760071,835
881.877014,868
881.993958,835
882.11084,823
882.227783,860
882.344727,850
882.46167,847
882.578613,867
882.695618,858
882.812439,848
882.929382,830
883.046326,867
883.163208,873
883.280151,919
883.397034,893
883.513916,903
883.630798,873
883.747742,871
883.864563,851
883.981506,857
884.098389,840
884.21521,839
884.332153,838
884.448975,850
884.565796,841
884.682678,833
884.7995,878
884.916443,837
885.033264,857
885.150085,870
885.266968,957
885.383789,1972
885.500671,3364
885.617493,4088
885.734314,4171
885.851196,3645
885.967896,2390
886.084717,1625
886.201599,1229
886.318359,1027
886.435181,983
886.552002,1482
886.668762,2315
886.785645,2835
886.902344,2805
887.019165,2508
887.135925,1826
887.252747,1356
887.369446,1087
887.486267,997
887.603027,879
887.719788,883
887.836548,871
887.953247,880
888.070068,880
888.186829,857
888.303528,870
888.420288,838
888.536987,837
888.653687,857
888.770447,838
888.887146,838
889.003967,875
889.120667,855
889.237305,855
889.354065,844
889.470703,907
889.587463,839
889.704163,881
889.820862,840
889.937561,879
890.054199,874
890.170837,889
890.287598,849
890.404236,854
890.520874,855
890.637634,847
890.754211,841
890.87085,844
890.987549,878
891.104187,884
891.220886,897
891.337463,825
891.454102,872
891.57074,889
891.687378,860
891.804077,918
891.920654,1132
892.037231,1487
892.15387,1688
892.270447,1658
892.387085,1598
892.503723,1247
892.6203,1057
892.736877,961
892.853516,904
892.970032,919
893.08667,866
893.203186,864
893.319763,890
893.43634,839
893.552917,856
893.669556,851
893.786011,889
893.902588,873
894.019165,856
894.135681,854
894.252197,888
894.368835,875
894.485291,906
894.601868,881
894.718384,873
894.8349,880
894.951355,882
895.067932,870
895.184448,860
895.300964,875
895.417419,869
895.533936,892
895.650452,883
895.766907,869
895.883423,861
895.999878,871
896.116333,858
896.232849,845
896.349304,864
896.465759,876
896.582214,875
896.698669,841
896.815125,888
896.931641,849
897.048035,864
897.164551,891
897.280884,872
897.397339,867
897.513794,891
897.630249,884
897.746582,867
897.863098,882
897.979431,889
898.095886,879
898.212341,902
898.328674,905
898.445129,900
898.561462,855
898.677795,891
898.794312,919
898.910645,1008
899.026978,1031
899.143433,1048
899.259766,1035
899.37616,955
899.492493,939
899.608765,936
899.725159,905
899.841553,854
899.957947,859
900.07428,892
900.190552,902
900.306946,894
900.423157,866
900.53949,913
900.655884,872
900.772156,899
900.888489,886
901.004822,886
901.121033,885
901.237366,865
901.353699,880
901.46991,887
901.586304,867
901.702515,904
901.818787,908
901.93512,883
902.051331,931
902.167603,898
902.283875,894
902.400085,899
902.516418,857
902.632629,869
902.74884,853
902.865112,871
902.981384,862
903.097595,923
903.213867,899
903.330017,882
903.446289,903
903.5625,878
903.67865,866
903.794922,903
903.911072,888
904.027344,874
904.143494,887
904.259705,906
904.375916,907
904.492065,877
904.608215,884
904.724426,903
904.840576,871
904.956726,915
905.072876,871
905.189087,875
905.305176,887
905.421387,882
905.537537,888
905.653687,890
905.769775,878
905.885925,902
906.002014,921
906.118164,882
906.234314,877
906.350403,889
906.466492,869
906.582642,889
906.69873,908
906.814758,880
906.930908,923
907.046936,905
907.163086,892
907.279175,916
907.395264,910
907.511353,922
907.62738,944
907.743408,905
907.859497,909
907.975525,903
908.091553,922
908.207703,900
908.32373,864
908.439758,910
908.555786,909
908.671814,916
908.787842,904
908.90387,896
909.019775,917
909.135864,902
909.251892,911
909.367859,932
909.483826,922
909.599854,944
909.715881,880
909.831848,909
909.947815,886
910.063782,911
910.179749,903
910.295776,934
910.411743,892
910.527649,931
910.643616,908
910.759583,864
910.875488,883
910.991455,872
911.107361,928
911.223267,904
911.339294,927
911.4552,914
911.571106,930
911.687073,918
911.802979,941
911.918823,929
912.034729,905
912.150635,919
912.266602,896
912.382446,879
912.498352,907
912.614197,916
912.730103,912
912.846008,933
792.44574,924
792.56488,943
792.68396,1025
792.80304,1001
792.92218,952
793.041199,964
793.160339,900
793.279419,972
793.398499,972
793.517578,955
793.636658,920
793.755737,989
793.874817,953
793.993896,978
794.112976,999
794.232056,983
794.351074,1027
794.470215,1001
794.589233,1014
794.708313,1192
794.827393,1457
794.946411,1500
795.065552,1433
795.18457,1277
795.303589,1069
795.422668,948
795.541687,949
795.660767,921
795.779846,939
795.898865,903
796.017883,928
796.136963,910
796.255981,936
796.375061,951
796.49408,944
796.613037,941
796.732117,928
796.851135,908
796.970154,948
797.089233,963
797.208191,938
797.327271,934
797.446228,902
797.565186,932
797.684265,923
797.803223,942
797.922241,953
798.04126,918
798.160278,903
798.279297,915
798.398315,930
798.517273,914
798.636292,922
798.75531,924
798.874268,920
798.993286,932
799.112244,906
799.231323,934
799.350281,926
799.469238,919
799.588257,920
799.707153,944
799.826111,916
799.945129,902
800.064087,919
800.183044,926
800.302063,931
800.421021,898
800.539978,938
800.658936,942
800.777893,945
800.896912,908
801.015747,900
801.134705,951
801.253723,924
801.37262,909
801.491638,910
801.610535,914
801.729492,929
801.84845,925
801.967407,896
802.086243,945
802.205261,936
802.324158,948
802.443115,940
802.562073,927
802.680969,911
802.799927,871
802.918762,914
803.037659,922
803.156677,937
803.275574,896
803.39447,954
803.513428,933
803.632263,926
803.751221,935
803.870117,923
803.989014,919
804.107971,924
804.226746,870
804.345642,937
804.4646,931
804.583496,922
804.702393,926
804.821228,946
804.940125,923
805.059021,918
805.177917,946
805.296814,868
805.415649,915
805.534546,920
805.653442,909
805.772278,918
805.891113,901
806.01001,946
806.128906,937
806.247742,938
806.366577,920
806.485413,936
806.604309,913
806.723145,932
806.84198,907
806.960876,904
807.079712,927
807.198486,902
807.317383,945
807.436218,905
807.554993,912
807.673889,910
807.792725,889
807.91156,917
808.030396,900
808.14917,920
808.268005,926
808.386841,930
808.505676,1260
808.624451,1918
808.743286,2279
808.862122,2326
808.980896,2084
809.099731,1491
809.218506,1104
809.337341,950
809.456116,921
809.57489,911
809.693726,885
809.8125,948
809.931274,917
810.050049,925
810.168884,911
810.287659,916
810.406372,895
810.525269,914
810.643982,923
810.762756,910
810.881531,914
811.000305,873
811.11908,886
811.237854,894
811.356567,870
811.475403,889
811.594116,888
811.71283,955
811.831604,918
811.950378,945
812.069153,925
812.187927,1033
812.30658,1140
812.425415,1121
812.544128,1099
812.662781,1003
812.781616,966
812.900269,854
813.019043,898
813.137756,923
813.256531,937
813.375244,933
813.493896,957
813.612671,958
813.731384,955
813.850037,1075
813.96875,1537
814.087524,1995
814.206238,2112
814.324951,1933
814.443604,1482
814.562256,1070
814.68103,946
814.799683,899
814.918335,922
815.037109,877
815.155762,876
815.274475,849
815.393188,886
815.511841,867
815.630554,883
815.749146,867
815.867859,875
815.986572,909
816.105164,861
816.223877,893
816.342529,877
816.461182,897
816.579895,862
816.698486,901
816.817139,870
816.935791,892
817.054504,862
817.173096,855
817.291748,871
817.4104,881
817.529053,912
817.647644,894
817.766235,884
817.884949,872
818.00354,887
818.122192,870
818.240845,861
818.359436,883
818.478088,879
818.59668,900
818.715271,887
818.833923,897
818.952515,869
819.071106,885
819.189758,825
819.30835,868
819.426941,864
819.545532,861
819.664124,873
819.782715,853
819.901306,895
820.019897,858
820.138489,867
820.25708,891
820.375671,864
820.494202,856
820.612732,875
820.731384,827
820.849915,847
820.968506,889
821.087097,872
821.205627,869
821.324158,910
821.442749,875
821.561279,863
821.679871,846
821.798401,860
821.916931,864
822.035461,869
822.154053,865
822.272583,863
822.391174,869
822.509583,862
822.628174,837
822.746704,861
822.865234,868
822.983765,876
823.102295,868
823.220825,864
823.339294,859
823.457825,858
823.576355,861
823.694824,846
823.813354,875
823.931885,860
824.050354,869
824.168884,848
824.287354,860
824.405823,866
824.524353,862
824.642822,860
824.761353,874
824.879822,847
824.998291,846
825.116699,860
825.235291,880
825.353699,880
825.472168,881
825.590637,898
825.709106,912
825.827576,841
825.946045,838
826.064453,856
826.182983,937
826.301392,1014
826.4198,1082
826.53833,1029
826.656738,1017
826.775208,976
826.893677,1144
827.012024,1352
827.130493,1355
827.248962,1252
827.36731,1138
827.485779,993
827.604248,867
827.722595,877
827.841064,855
827.959412,855
828.077942,841
828.196289,850
828.314636,855
828.433105,863
828.551514,838
828.669861,862
828.78833,849
828.906677,854
829.025085,847
829.143433,856
829.261841,845
829.38031,847
829.498657,837
829.617004,874
829.735413,851
829.85376,883
829.972107,858
830.090515,911
830.208862,1817
830.327209,3562
830.445557,4726
830.563904,4912
830.682312,4197
830.800659,2515
830.919006,1433
831.037354,1024
831.155701,882
831.274048,868
831.392395,866
831.51062,824
831.629028,844
831.747314,851
831.865662,876
831.984009,846
832.102356,835
832.220642,812
832.338928,878
832.457275,846
832.575623,857
832.693909,849
832.812134,833
832.930481,856
833.048828,855
833.167114,828
833.2854,835
833.403687,863
833.521973,871
833.640259,853
833.758545,829
833.876831,839
833.995056,851
834.113281,823
834.231628,854
834.349915,816
834.468201,859
834.586426,846
834.704651,835
834.822998,829
834.941162,863
835.059448,843
835.177673,846
835.295959,848
835.414246,851
835.53241,844
835.650635,855
835.768921,849
835.887146,855
836.005371,835
836.123596,841
836.241821,826
836.360046,847
836.478271,841
836.596497,823
836.714722,938
836.832886,1223
836.95105,1380
837.069336,1390
837.1875,1320
837.305725,1110
837.423889,978
837.542053,868
837.660339,938
837.778503,1259
837.896667,5542
838.014832,15342
838.132996,21233
838.25116,22227
838.369385,18792
838.487488,10335
838.605713,4295
838.723877,1872
838.84198,1205
838.960205,984
839.078308,896
839.196472,839
839.314636,837
839.4328,848
839.550964,869
839.669067,840
839.787231,816
839.905396,798
840.023499,823
840.141602,840
840.259766,855
840.377869,847
840.495972,813
840.614136,845
840.732239,829
840.850342,856
840.968445,831
841.086548,826
841.204651,831
841.322754,841
841.440918,815
841.55896,850
841.677002,819
841.795166,860
841.913208,1188
842.031311,2488
842.149353,3839
842.267456,4280
842.385498,3878
842.503601,2866
842.621643,1632
842.739746,1118
842.857788,952
842.97583,863
843.093933,853
843.211975,827
843.330017,839
843.44812,860
843.566101,854
843.684204,822
843.802246,851
843.920227,839
844.038269,851
844.156311,819
844.274292,844
844.392395,849
844.510376,821
844.628357,811
844.74646,801
844.864441,796
844.982422,801
845.100403,850
845.218384,812
845.336426,831
845.454468,850
845.572449,834
845.69043,818
845.808411,811
845.926453,835
846.044373,817
846.162354,830
846.280396,807
846.398315,866
846.516296,1061
846.634216,1182
846.752197,1282
846.870178,1185
846.988098,1071
847.106079,914
847.22406,848
847.34198,832
847.4599,821
847.577881,856
847.695801,827
847.813782,813
847.931641,850
848.049561,842
848.167603,821
848.285461,836
848.403381,842
848.521362,844
848.639221,922
848.75708,937
848.875,1017
848.99292,983
849.110901,927
849.22876,868
849.34668,877
849.464539,897
849.582458,1814
849.700317,6848
849.818176,11717
849.936096,13620
850.053955,12812
850.171875,9164
850.289673,4419
850.407593,2073
850.525452,1300
850.643311,977
850.761169,906
850.878967,837
850.996887,859
851.114746,821
851.232544,813
851.350403,812
851.468262,845
851.58606,821
851.703979,811
851.821777,807
851.939636,815
852.057434,785
852.175232,813
852.293091,837
852.410889,819
852.528687,836
852.646545,837
852.764343,812
852.88208,832
852.999939,824
853.117676,856
853.235535,786
853.353271,817
853.471069,826
853.588928,848
853.706604,830
853.824402,837
853.9422,807
854.059998,829
854.177734,821
854.295532,820
854.413269,837
854.531006,857
854.648804,934
854.766541,1027
854.884277,1026
855.002014,1010
855.119751,934
855.237549,873
855.355225,832
855.473022,816
855.590698,803
855.708435,840
855.826172,795
855.943848,821
856.061646,813
856.179321,841
856.296997,816
856.414795,844
856.53241,827
856.650085,826
856.767822,822
856.885559,820
857.003174,837
857.120911,824
857.238586,887
857.356201,973
857.473938,993
857.591614,994
857.709351,927
857.826965,894
857.944641,812
858.062317,857
858.179993,845
858.297668,832
858.415283,873
858.532959,922
858.650574,939
858.768188,924
858.885803,913
859.003479,891
859.121094,980
859.23877,2038
859.356384,3354
859.473999,3865
859.591675,3741
859.709229,3072
859.826843,1837
859.944458,1230
860.062012,995
860.179626,876
860.297302,852
860.414856,815
860.532471,831
860.650024,820
860.767639,807
860.885193,834
861.002808,823
861.120361,789
861.237976,817
861.35553,828
861.473022,831
861.590698,826
861.708191,820
861.825745,842
861.943298,826
862.060852,829
862.178406,845
862.295959,844
862.413513,856
862.531006,830
862.64856,836
862.766113,836
862.883667,811
863.00116,849
863.118713,839
863.236206,812
863.353699,818
863.471252,1292
863.588745,3303
863.706177,4718
863.82373,5349
863.941162,4933
864.058716,3843
864.176208,2171
864.29364,1335
864.411194,1042
864.528687,889
864.646118,892
864.763611,972
864.881042,1105
864.998535,1208
865.116028,1216
865.233459,1144
865.350891,1047
865.468384,1898
865.585754,4333
865.703308,6017
865.820679,6737
865.938171,6064
866.055542,4219
866.173035,2425
866.290466,1459
866.407837,1082
866.52533,930
866.6427,888
866.760071,859
866.877563,826
866.994934,829
867.112305,837
867.229736,823
867.347107,847
867.464539,836
867.58197,855
867.699341,855
867.81665,828
867.934082,908
868.051453,1222
868.168823,1651
868.286194,2336
868.403564,2967
868.520935,2957
868.638306,2680
868.755676,2072
868.872986,1435
868.990295,1042
869.107727,948
869.225037,863
869.342346,868
869.459717,874
869.577026,799
869.694336,822
869.811707,833
869.929016,831
870.046326,828
870.163635,802
870.280945,847
870.398254,885
870.515564,1003
870.632812,1130
870.750183,1136
870.867432,1179
870.984741,1052
871.102051,920
871.219299,868
871.336609,869
871.453918,836
871.571106,828
871.688416,826
871.805664,829
871.922852,820
872.040222,844
872.157471,815
872.274719,814
872.391968,818
872.509155,858
872.626465,822
872.743652,839
872.860962,834
872.978149,816
873.095337,821
873.212646,823
873.329834,868
873.44696,864
873.564209,834
873.681396,814
873.798645,839
873.915894,808
874.03302,857
874.150208,825
874.267456,841
874.384583,830
874.501831,829
874.618958,840
874.736145,825
874.853333,829
874.970459,837
875.087646,851
875.204834,830
875.32196,823
875.439148,822
875.556274,830
875.673401,884
875.790527,834
875.907715,825
876.024841,821
876.141968,820
876.259094,831
876.376282,824
876.493347,833
876.610474,811
876.7276,844
876.844727,833
876.961853,850
877.078918,869
877.195984,1066
877.313171,1294
877.430237,1429
877.547302,1468
877.664368,1315
877.781433,1186
877.898499,1045
878.015625,1809
878.13269,4970
878.249695,7690
878.366821,9357
878.483887,10039
878.600952,8697
878.717957,6305
878.834961,4591
878.952087,2953
879.069092,1798
879.186157,1286
879.303162,1031
879.420227,912
879.537231,915
879.654236,909
879.77124,886
879.888306,861
880.005249,868
880.122314,831
880.239319,827
880.356323,832
880.473328,819
880.590271,877
880.707275,830
880.824341,854
880.941284,807
881.058228,830
881.175232,859
881.292236,838
881.40918,876
881.526123,849
881.643066,844
881.760071,853
881.877014,811
881.993958,855
882.11084,827
882.227783,850
882.344727,826
882.46167,841
882.578613,862
882.695618,825
882.812439,839
882.929382,855
883.046326,866
883.163208,889
883.280151,879
883.397034,909
883.513916,916
883.630798,890
883.747742,846
883.864563,870
883.981506,810
884.098389,865
884.21521,824
884.332153,857
884.448975,831
884.565796,815
884.682678,855
884.7995,879
884.916443,836
885.033264,880
885.150085,868
885.266968,976
885.383789,1922
885.500671,3427
885.617493,4150
885.734314,4186
885.851196,3641
885.967896,2439
886.084717,1605
886.201599,1221
886.318359,1025
886.435181,958
886.552002,1471
886.668762,2247
886.785645,2808
886.902344,2762
887.019165,2535
887.135925,1831
887.252747,1361
887.369446,1092
887.486267,962
887.603027,875
887.719788,886
887.836548,862
887.953247,853
888.070068,853
888.186829,859
888.303528,827
888.420288,852
888.536987,818
888.653687,871
888.770447,862
888.887146,849
889.003967,852
889.120667,853
889.237305,862
889.354065,871
889.470703,849
889.587463,872
889.704163,829
889.820862,856
889.937561,876
890.054199,855
890.170837,858
890.287598,855
890.404236,839
890.520874,860
890.637634,866
890.754211,863
890.87085,872
890.987549,832
891.104187,873
891.220886,845
891.337463,858
891.454102,878
891.57074,871
891.687378,851
891.804077,849
891.920654,1113
892.037231,1475
892.15387,1682
892.270447,1749
892.387085,1596
892.503723,1249
892.6203,1092
892.736877,960
892.853516,928
892.970032,917
893.08667,866
893.203186,861
893.319763,889
893.43634,884
893.552917,847
893.669556,871
893.786011,870
893.902588,839
894.019165,838
894.135681,864
894.252197,842
894.368835,895
894.485291,881
894.601868,867
894.718384,864
894.8349,871
894.951355,864
895.067932,855
895.184448,807
895.300964,885
895.417419,857
895.533936,850
895.650452,868
895.766907,872
895.883423,862
895.999878,875
896.116333,884
896.232849,870
896.349304,857
896.465759,865
896.582214,889
896.698669,886
896.815125,888
896.931641,845
897.048035,877
897.164551,859
897.280884,854
897.397339,874
897.513794,845
897.630249,863
897.746582,858
897.863098,895
897.979431,863
898.095886,881
898.212341,852
898.328674,859
898.445129,857
898.561462,884
898.677795,871
898.794312,937
898.910645,986
899.026978,1026
899.143433,1098
899.259766,1037
899.37616,957
899.492493,891
899.608765,880
899.725159,889
899.841553,887
899.957947,922
900.07428,862
900.190552,875
900.306946,894
900.423157,874
900.53949,838
900.655884,912
900.772156,855
900.888489,890
901.004822,895
901.121033,897
901.237366,880
901.353699,882
901.46991,893
901.586304,879
901.702515,862
901.818787,910
901.93512,903
902.051331,870
902.167603,868
902.283875,923
902.400085,887
902.516418,879
902.632629,875
902.74884,852
902.865112,886
902.981384,882
903.097595,898
903.213867,875
903.330017,913
903.446289,889
903.5625,864
903.67865,880
903.794922,873
903.911072,874
904.027344,883
904.143494,910
904.259705,893
904.375916,897
904.492065,867
904.608215,894
904.724426,890
904.840576,886
904.956726,893
905.072876,914
905.189087,875
905.305176,882
905.421387,881
905.537537,903
905.653687,870
905.769775,870
905.885925,887
906.002014,888
906.118164,853
906.234314,891
906.350403,886
906.466492,916
906.582642,893
906.69873,914
906.814758,872
906.930908,924
907.046936,877
907.163086,916
907.279175,926
907.395264,931
907.511353,880
907.62738,885
907.743408,882
907.859497,897
907.975525,908
908.091553,899
908.207703,925
908.32373,886
908.439758,924
908.555786,895
908.671814,893
908.787842,902
908.90387,871
909.019775,900
909.135864,906
909.251892,908
909.367859,926
909.483826,898
909.599854,914
909.715881,927
909.831848,896
909.947815,896
910.063782,899
910.179749,900
910.295776,896
910.411743,901
910.527649,893
910.643616,909
910.759583,905
910.875488,897
910.991455,927
911.107361,929
911.223267,914
911.339294,924
911.4552,906
911.571106,935
911.687073,888
911.802979,913
911.918823,904
912.034729,890
912.150635,894
912.266602,900
912.382446,920
912.498352,941
912.614197,916
912.730103,923
912.846008,890
792.44574,936
792.56488,932
792.68396,1014
792.80304,978
792.92218,933
793.041199,931
793.160339,950
793.279419,971
793.398499,942
793.517578,918
793.636658,932
793.755737,937
793.874817,957
793.993896,956
794.112976,1004
794.232056,1007
794.351074,1003
794.470215,992
794.589233,1017
794.708313,1176
794.827393,1407
794.946411,1461
795.065552,1424
795.18457,1255
795.303589,1027
795.422668,976
795.541687,944
795.660767,910
795.779846,944
795.898865,945
796.017883,919
796.136963,910
796.255981,925
796.375061,970
796.49408,889
796.613037,929
796.732117,941
796.851135,919
796.970154,924
797.089233,927
797.208191,940
797.327271,932
797.446228,930
797.565186,934
797.684265,933
797.803223,937
797.922241,924
798.04126,925
798.160278,937
798.279297,923
798.398315,909
798.517273,931
798.636292,913
798.75531,916
798.874268,907
798.993286,925
799.112244,889
799.231323,962
799.350281,939
799.469238,916
799.588257,927
799.707153,927
799.826111,947
799.945129,909
800.064087,938
800.183044,914
800.302063,892
800.421021,949
800.539978,909
800.658936,919
800.777893,899
800.896912,911
801.015747,948
801.134705,915
801.253723,906
801.37262,909
801.491638,942
801.610535,960
801.729492,951
801.84845,919
801.967407,942
802.086243,930
802.205261,914
802.324158,912
802.443115,934
802.562073,890
802.680969,951
802.799927,916
802.918762,917
803.037659,909
803.156677,932
803.275574,890
803.39447,912
803.513428,915
803.632263,926
803.751221,915
803.870117,903
803.989014,912
804.107971,923
804.226746,903
804.345642,906
804.4646,906
804.583496,901
804.702393,920
804.821228,967
804.940125,895
805.059021,939
805.177917,902
805.296814,934
805.415649,929
805.534546,922
805.653442,916
805.772278,895
805.891113,928
806.01001,943
806.128906,929
806.247742,905
806.366577,884
806.485413,931
806.604309,903
806.723145,902
806.84198,889
806.960876,919
807.079712,951
807.198486,900
807.317383,938
807.436218,904
807.554993,896
807.673889,918
807.792725,892
807.91156,906
808.030396,912
808.14917,901
808.268005,912
808.386841,923
808.505676,1227
808.624451,1829
808.743286,2298
808.862122,2360
808.980896,2079
809.099731,1441
809.218506,1103
809.337341,939
809.456116,916
809.57489,936
809.693726,898
809.8125,921
809.931274,880
810.050049,914
810.168884,912
810.287659,899
810.406372,896
810.525269,904
810.643982,915
810.762756,922
810.881531,890
811.000305,909
811.11908,884
811.237854,894
811.356567,898
811.475403,902
811.594116,875
811.71283,892
811.831604,897
811.950378,928
812.069153,944
812.187927,1005
812.30658,1134
812.425415,1107
812.544128,1097
812.662781,991
812.781616,912
812.900269,907
813.019043,848
813.137756,903
813.256531,957
813.375244,970
813.493896,950
813.612671,968
813.731384,940
813.850037,1030
813.96875,1589
814.087524,1978
814.206238,2082
814.324951,1921
814.443604,1465
814.562256,1099
814.68103,961
814.799683,893
814.918335,912
815.037109,881
815.155762,877
815.274475,864
815.393188,909
815.511841,864
815.630554,855
815.749146,862
815.867859,898
815.986572,890
816.105164,886
816.223877,867
816.342529,884
816.461182,841
816.579895,928
816.698486,880
816.817139,880
816.935791,872
817.054504,883
817.173096,860
817.291748,869
817.4104,842
817.529053,852
817.647644,883
817.766235,862
817.884949,870
818.00354,870
818.122192,878
818.240845,899
818.359436,858
818.478088,854
818.59668,851
818.715271,917
818.833923,880
818.952515,882
819.071106,882
819.189758,883
819.30835,858
819.426941,866
819.545532,916
819.664124,870
819.782715,882
819.901306,830
820.019897,849
820.138489,885
820.25708,884
820.375671,884
820.494202,880
820.612732,864
820.731384,876
820.849915,865
820.968506,866
821.087097,849
821.205627,910
821.324158,902
821.442749,886
821.561279,868
821.679871,875
821.798401,862
821.916931,861
822.035461,849
822.154053,882
822.272583,868
822.391174,879
822.509583,833
822.628174,866
822.746704,848
822.865234,862
822.983765,850
823.102295,858
823.220825,863
823.339294,868
823.457825,862
823.576355,852
823.694824,856
823.813354,842
823.931885,860
824.050354,857
824.168884,837
824.287354,849
824.405823,848
824.524353,853
824.642822,874
824.761353,875
824.879822,843
824.998291,849
825.116699,849
825.235291,887
825.353699,876
825.472168,858
825.590637,892
825.709106,875
825.827576,831
825.946045,829
826.064453,881
826.182983,926
826.301392,1036
826.4198,1058
826.53833,1063
826.656738,983
826.775208,1006
826.893677,1172
827.012024,1372
827.130493,1345
827.248962,1316
827.36731,1165
827.485779,944
827.604248,881
827.722595,870
827.841064,853
827.959412,868
828.077942,848
828.196289,877
828.314636,839
828.433105,868
828.551514,824
828.669861,849
828.78833,862
828.906677,845
829.025085,850
829.143433,881
829.261841,846
829.38031,829
829.498657,877
829.617004,844
829.735413,848
829.85376,832
829.972107,887
830.090515,930
830.208862,1800
830.327209,3515
830.445557,4806
830.563904,4885
830.682312,4171
830.800659,2569
830.919006,1454
831.037354,1023
831.155701,936
831.274048,890
831.392395,838
831.51062,826
831.629028,850
831.747314,862
831.865662,841
831.984009,836
832.102356,840
832.220642,872
832.338928,838
832.457275,823
832.575623,820
832.693909,824
832.812134,853
832.930481,830
833.048828,837
833.167114,844
833.2854,834
833.403687,822
833.521973,844
833.640259,837
833.758545,843
833.876831,832
833.995056,813
834.113281,849
834.231628,826
834.349915,856
834.468201,857
834.586426,833
834.704651,823
834.822998,817
834.941162,846
835.059448,837
835.177673,830
835.295959,852
835.414246,853
835.53241,837
835.650635,819
835.768921,831
835.887146,843
836.005371,864
836.123596,830
836.241821,810
836.360046,828
836.478271,857
836.596497,843
836.714722,966
836.832886,1232
836.95105,1395
837.069336,1390
837.1875,1332
837.305725,1126
837.423889,942
837.542053,923
837.660339,899
837.778503,1247
837.896667,5563
838.014832,15118
838.132996,21492
838.25116,22245
838.369385,18809
838.487488,10289
838.605713,4193
838.723877,1851
838.84198,1231
838.960205,977
839.078308,897
839.196472,830
839.314636,822
839.4328,827
839.550964,833
839.669067,798
839.787231,848
839.905396,840
840.023499,831
840.141602,844
840.259766,835
840.377869,850
840.495972,847
840.614136,814
840.732239,831
840.850342,828
840.968445,834
841.086548,819
841.204651,855
841.322754,788
841.440918,838
841.55896,836
841.677002,814
841.795166,848
841.913208,1182
842.031311,2512
842.149353,3801
842.267456,4246
842.385498,3911
842.503601,2838
842.621643,1689
842.739746,1082
842.857788,920
842.97583,843
843.093933,827
843.211975,842
843.330017,826
843.44812,812
843.566101,842
843.684204,835
843.802246,804
843.920227,818
844.038269,831
844.156311,797
844.274292,806
844.392395,816
844.510376,826
844.628357,761
844.74646,824
844.864441,835
844.982422,814
845.100403,803
845.218384,812
845.336426,788
845.454468,838
845.572449,793
845.69043,841
845.808411,808
845.926453,823
846.044373,819
846.162354,801
846.280396,810
846.398315,844
846.516296,1017
846.634216,1150
846.752197,1213
846.870178,1220
846.988098,1072
847.106079,914
847.22406,846
847.34198,853
847.4599,835
847.577881,812
847.695801,811
847.813782,808
847.931641,829
848.049561,843
848.167603,816
848.285461,820
848.403381,817
848.521362,829
848.639221,924
848.75708,960
848.875,966
848.99292,974
849.110901,936
849.22876,874
849.34668,850
849.464539,887
849.582458,1829
849.700317,6783
849.818176,11605
849.936096,13669
850.053955,12816
850.171875,9305
850.289673,4368
850.407593,2080
850.525452,1236
850.643311,1026
850.761169,890
850.878967,863
850.996887,839
851.114746,833
851.232544,829
851.350403,790
851.468262,821
851.58606,801
851.703979,818
851.821777,843
851.939636,811
852.057434,824
852.175232,799
852.293091,834
852.410889,826
852.528687,845
852.646545,819
852.764343,817
852.88208,840
852.999939,820
853.117676,840
853.235535,834
853.353271,806
853.471069,834
853.588928,818
853.706604,799
853.824402,843
853.9422,819
854.059998,832
854.177734,828
854.295532,835
854.413269,815
854.531006,829
854.648804,900
854.766541,1014
854.884277,1020
855.002014,993
855.119751,942
855.237549,896
855.355225,846
855.473022,836
855.590698,839
855.708435,843
855.826172,836
855.943848,823
856.061646,794
856.179321,799
856.296997,791
856.414795,809
856.53241,808
856.650085,808
856.767822,804
856.885559,813
857.003174,814
857.120911,810
857.238586,907
857.356201,969
857.473938,997
857.591614,965
857.709351,968
857.826965,882
857.944641,829
858.062317,825
858.179993,840
858.297668,848
858.415283,867
858.532959,898
858.650574,915
858.768188,932
858.885803,878
859.003479,868
859.121094,985
859.23877,2057
859.356384,3282
859.473999,3962
859.591675,3742
859.709229,3007
859.826843,1864
859.944458,1245
860.062012,1035
860.179626,869
860.297302,844
860.414856,834
860.532471,791
860.650024,831
860.767639,834
860.885193,844
861.002808,831
861.120361,805
861.237976,843
861.35553,813
861.473022,821
861.590698,829
861.708191,829
861.825745,809
861.943298,844
862.060852,837
862.178406,823
862.295959,822
862.413513,834
862.531006,811
862.64856,824
862.766113,801
862.883667,833
863.00116,839
863.118713,833
863.236206,822
863.353699,863
863.471252,1263
863.588745,3248
863.706177,4777
863.82373,5313
863.941162,5094
864.058716,3796
864.176208,2222
864.29364,1408
864.411194,1044
864.528687,914
864.646118,879
864.763611,943
864.881042,1097
864.998535,1196
865.116028,1206
865.233459,1136
865.350891,1042
865.468384,1893
865.585754,4430
865.703308,6047
865.820679,6698
865.938171,6072
866.055542,4160
866.173035,2418
866.290466,1444
866.407837,1063
866.52533,950
866.6427,863
866.760071,832
866.877563,850
866.994934,876
867.112305,828
867.229736,836
867.347107,838
867.464539,829
867.58197,827
867.699341,845
867.81665,836
867.934082,885
868.051453,1229
868.168823,1629
868.286194,2332
868.403564,2934
868.520935,3012
868.638306,2617
868.755676,2035
868.872986,1435
868.990295,1091
869.107727,966
869.225037,847
869.342346,843
869.459717,827
869.577026,821
869.694336,825
869.811707,849
869.929016,810
870.046326,795
870.163635,842
870.280945,842
870.398254,863
870.515564,1010
870.632812,1122
870.750183,1213
870.867432,1181
870.984741,1053
871.102051,935
871.219299,891
871.336609,847
871.453918,819
871.571106,826
871.688416,826
871.805664,827
871.922852,844
872.040222,823
872.157471,800
872.274719,847
872.391968,809
872.509155,810
872.626465,829
872.743652,797
872.860962,821
872.978149,832
873.095337,804
873.212646,829
873.329834,826
873.44696,833
873.564209,815
873.681396,831
873.798645,840
873.915894,827
874.03302,823
874.150208,819
874.267456,855
874.384583,809
874.501831,819
874.618958,829
874.736145,860
874.853333,824
874.970459,828
875.087646,800
875.204834,815
875.32196,835
875.439148,826
875.556274,839
875.673401,840
875.790527,826
875.907715,816
876.024841,836
876.141968,844
876.259094,811
876.376282,829
876.493347,825
876.610474,834
876.7276,853
876.844727,871
876.961853,855
877.078918,883
877.195984,1092
877.313171,1286
877.430237,1437
877.547302,1444
877.664368,1290
877.781433,1124
877.898499,1096
878.015625,1870
878.13269,4932
878.249695,7737
878.366821,9311
878.483887,10008
878.600952,8800
878.717957,6412
878.834961,4573
878.952087,2929
879.069092,1822
879.186157,1246
879.303162,1038
879.420227,932
879.537231,875
879.654236,861
879.77124,853
879.888306,860
880.005249,828
880.122314,826
880.239319,847
880.356323,824
880.473328,843
880.590271,816
880.707275,836
880.824341,843
880.941284,881
881.058228,826
881.175232,824
881.292236,872
881.40918,836
881.526123,834
881.643066,827
881.760071,860
881.877014,807
881.993958,828
882.11084,863
882.227783,841
882.344727,847
882.46167,837
882.578613,822
882.695618,817
882.812439,825
882.929382,837
883.046326,854
883.163208,877
883.280151,868
883.397034,892
883.513916,915
883.630798,873
883.747742,872
883.864563,865
883.981506,868
884.098389,838
884.21521,856
884.332153,819
884.448975,893
884.565796,827
884.682678,855
884.7995,866
884.916443,849
885.033264,869
885.150085,850
885.266968,927
885.383789,1923
885.500671,3354
885.617493,4113
885.734314,4256
885.851196,3659
885.967896,2407
886.084717,1627
886.201599,1193
886.318359,1017
886.435181,975
886.552002,1507
886.668762,2295
886.785645,2755
886.902344,2775
887.019165,2577
887.135925,1808
887.252747,1358
887.369446,1048
887.486267,935
887.603027,889
887.719788,852
887.836548,849
887.953247,831
888.070068,859
888.186829,834
888.303528,867
888.420288,876
888.536987,839
888.653687,857
888.770447,857
888.887146,839
889.003967,835
889.120667,869
889.237305,848
889.354065,863
889.470703,858
889.587463,857
889.704163,866
889.820862,827
889.937561,857
890.054199,859
890.170837,862
890.287598,824
890.404236,839
890.520874,848
890.637634,848
890.754211,846
890.87085,867
890.987549,889
891.104187,840
891.220886,824
891.337463,890
891.454102,881
891.57074,877
891.687378,831
891.804077,898
891.920654,1153
892.037231,1486
892.15387,1663
892.270447,1717
892.387085,1540
892.503723,1239
892.6203,1054
892.736877,949
892.853516,927
892.970032,872
893.08667,881
893.203186,841
893.319763,824
893.43634,859
893.552917,866
893.669556,889
893.786011,860
893.902588,884
894.019165,865
894.135681,875
894.252197,829
894.368835,877
894.485291,852
894.601868,889
894.718384,852
894.8349,870
894.951355,841
895.067932,849
895.184448,862
895.300964,863
895.417419,829
895.533936,847
895.650452,873
895.766907,862
895.883423,862
895.999878,872
896.116333,894
896.232849,849
896.349304,843
896.465759,856
896.582214,871
896.698669,868
896.815125,845
896.931641,819
897.048035,873
897.164551,868
897.280884,850
897.397339,879
897.513794,862
897.630249,864
897.746582,910
897.863098,859
897.979431,859
898.095886,868
898.212341,857
898.328674,893
898.445129,885
898.561462,869
898.677795,863
898.794312,912
898.910645,988
899.026978,1065
899.143433,1069
899.259766,1028
899.37616,984
899.492493,923
899.608765,899
899.725159,883
899.841553,856
899.957947,873
900.07428,893
900.190552,863
900.306946,863
900.423157,863
900.53949,890
900.655884,882
900.772156,867
900.888489,894
901.004822,876
901.121033,871
901.237366,876
901.353699,871
901.46991,894
901.586304,890
901.702515,857
901.818787,889
901.93512,870
902.051331,890
902.167603,848
902.283875,898
902.400085,843
902.516418,867
902.632629,880
902.74884,888
902.865112,891
902.981384,893
903.097595,866
903.213867,891
903.330017,869
903.446289,852
903.5625,889
903.67865,868
903.794922,855
903.911072,903
904.027344,878
904.143494,897
904.259705,907
904.375916,904
904.492065,902
904.608215,900
904.724426,870
904.840576,894
904.956726,907
905.072876,885
905.189087,854
905.305176,867
905.421387,886
905.537537,929
905.653687,900
905.769775,903
905.885925,918
906.002014,854
906.118164,895
906.234314,883
906.350403,919
906.466492,886
906.582642,919
906.69873,870
906.814758,889
906.930908,893
907.046936,887
907.163086,915
907.279175,876
907.395264,927
907.511353,885
907.62738,875
907.743408,891
907.859497,876
907.975525,878
908.091553,896
908.207703,898
908.32373,904
908.439758,882
908.555786,872
908.671814,900
908.787842,900
908.90387,903
909.019775,877
909.135864,916
909.251892,886
909.367859,917
909.483826,905
909.599854,899
909.715881,934
909.831848,892
909.947815,888
910.063782,894
910.179749,881
910.295776,911
910.411743,908
910.527649,901
910.643616,886
910.759583,926
910.875488,906
910.991455,915
911.107361,906
911.223267,894
911.339294,930
911.4552,922
911.571106,866
911.687073,893
911.802979,908
911.918823,882
912.034729,901
912.150635,902
912.266602,923
912.382446,915
912.498352,912
912.614197,895
912.730103,871
912.846008,915
