792.44574,11998
792.56488,12024
792.68396,12152
792.80304,11963
792.92218,11965
793.041199,11941
793.160339,11852
793.279419,11929
793.398499,11961
793.517578,12108
793.636658,12194
793.755737,12368
793.874817,12325
793.993896,12487
794.112976,12531
794.232056,12434
794.351074,12313
794.470215,11957
794.589233,11633
794.708313,11804
794.827393,11876
794.946411,11881
795.065552,11724
795.18457,12116
795.303589,12074
795.422668,12084
795.541687,12117
795.660767,12004
795.779846,11994
795.898865,11934
796.017883,11954
796.136963,11980
796.255981,11822
796.375061,11834
796.49408,11857
796.613037,11856
796.732117,11838
796.851135,11745
796.970154,11679
797.089233,11766
797.208191,11539
797.327271,11526
797.446228,11609
797.565186,11595
797.684265,11595
797.803223,11558
797.922241,11623
798.04126,11666
798.160278,11684
798.279297,11650
798.398315,11672
798.517273,11473
798.636292,11697
798.75531,11446
798.874268,11696
798.993286,11376
799.112244,11518
799.231323,11653
799.350281,11620
799.469238,11460
799.588257,11324
799.707153,11372
799.826111,11741
799.945129,11701
800.064087,11584
800.183044,11657
800.302063,11636
800.421021,11725
800.539978,11778
800.658936,11803
800.777893,11793
800.896912,11826
801.015747,11632
801.134705,11786
801.253723,11562
801.37262,11707
801.491638,11565
801.610535,11558
801.729492,11650
801.84845,11329
801.967407,11493
802.086243,11632
802.205261,11578
802.324158,11710
802.443115,11607
802.562073,11785
802.680969,11759
802.799927,11633
802.918762,11602
803.037659,11407
803.156677,11429
803.275574,11506
803.39447,11602
803.513428,11326
803.632263,11246
803.751221,11474
803.870117,11502
803.989014,11495
804.107971,11641
804.226746,11661
804.345642,11821
804.4646,12043
804.583496,11959
804.702393,12248
804.821228,12274
804.940125,12264
805.059021,12301
805.177917,12211
805.296814,12226
805.415649,12529
805.534546,12238
805.653442,12370
805.772278,12430
805.891113,12435
806.01001,12623
806.128906,12635
806.247742,12506
806.366577,12584
806.485413,12552
806.604309,12583
806.723145,12897
806.84198,12575
806.960876,12693
807.079712,12530
807.198486,12525
807.317383,12367
807.436218,12313
807.554993,12094
807.673889,12262
807.792725,12028
807.91156,12268
808.030396,12275
808.14917,12392
808.268005,12387
808.386841,12154
808.505676,12502
808.624451,12705
808.743286,12590
808.862122,12402
808.980896,12193
809.099731,12142
809.218506,12216
809.337341,12251
809.456116,12313
809.57489,12273
809.693726,12161
809.8125,12161
809.931274,12333
810.050049,12097
810.168884,12204
810.287659,12039
810.406372,12053
810.525269,11740
810.643982,11876
810.762756,11535
810.881531,11564
811.000305,11629
811.11908,11835
811.237854,11706
811.356567,11548
811.475403,11567
811.594116,11647
811.71283,11411
811.831604,11568
811.950378,11749
812.069153,11716
812.187927,11837
812.30658,11997
812.425415,11860
812.544128,11676
812.662781,11775
812.781616,11685
812.900269,11679
813.019043,11776
813.137756,11622
813.256531,11693
813.375244,11731
813.493896,11763
813.612671,11641
813.731384,11805
813.850037,11830
813.96875,11549
814.087524,11722
814.206238,11536
814.324951,11281
814.443604,11544
814.562256,11756
814.68103,11507
814.799683,11920
814.918335,11910
815.037109,12007
815.155762,12089
815.274475,12351
815.393188,12201
815.511841,11989
815.630554,11986
815.749146,12116
815.867859,12200
815.986572,12217
816.105164,12338
816.223877,12131
816.342529,12353
816.461182,12560
816.579895,12761
816.698486,12451
816.817139,12522
816.935791,12459
817.054504,12597
817.173096,12553
817.291748,12487
817.4104,12521
817.529053,12574
817.647644,12563
817.766235,12308
817.884949,12405
818.00354,12533
818.122192,12677
818.240845,12509
818.359436,12607
818.478088,12712
818.59668,12644
818.715271,12564
818.833923,12640
818.952515,12414
819.071106,12495
819.189758,12451
819.30835,12604
819.426941,12331
819.545532,12396
819.664124,12555
819.782715,12194
819.901306,12393
820.019897,12650
820.138489,12387
820.25708,12377
820.375671,12539
820.494202,12381
820.612732,12343
820.731384,12255
820.849915,12350
820.968506,12166
821.087097,12383
821.205627,12463
821.324158,12612
821.442749,12386
821.561279,12521
821.679871,12542
821.798401,12582
821.916931,12467
822.035461,12503
822.154053,12150
822.272583,12200
822.391174,12055
822.509583,11931
822.628174,12138
822.746704,11978
822.865234,12191
822.983765,12266
823.102295,12103
823.220825,12260
823.339294,12002
823.457825,11737
823.576355,11865
823.694824,12096
823.813354,12302
823.931885,12356
824.050354,12013
824.168884,12268
824.287354,12386
824.405823,12482
824.524353,12322
824.642822,11981
824.761353,12093
824.879822,12181
824.998291,12539
825.116699,12538
825.235291,12657
825.353699,12906
825.472168,12710
825.590637,12601
825.709106,12774
825.827576,12861
825.946045,12661
826.064453,12591
826.182983,12576
826.301392,12543
826.4198,12324
826.53833,12360
826.656738,12342
826.775208,12497
826.893677,12553
827.012024,12434
827.130493,12200
827.248962,12136
827.36731,12301
827.485779,11944
827.604248,12009
827.722595,11914
827.841064,11658
827.959412,11667
828.077942,11898
828.196289,12082
828.314636,12209
828.433105,12178
828.551514,12022
828.669861,12262
828.78833,11915
828.906677,11991
829.025085,12277
829.143433,12154
829.261841,12205
829.38031,12239
829.498657,11738
829.617004,12008
829.735413,12118
829.85376,11952
829.972107,11824
830.090515,12228
830.208862,12233
830.327209,11896
830.445557,11999
830.563904,11573
830.682312,11812
830.800659,11856
830.919006,11736
831.037354,11578
831.155701,11334
831.274048,11531
831.392395,11669
831.51062,11446
831.629028,11173
831.747314,11366
831.865662,11440
831.984009,11577
832.102356,11688
832.220642,11393
832.338928,11423
832.457275,11647
832.575623,11619
832.693909,11767
832.812134,11921
832.930481,11895
833.048828,11780
833.167114,11953
833.2854,12367
833.403687,12189
833.521973,12211
833.640259,12443
833.758545,12600
833.876831,12442
833.995056,12459
834.113281,12326
834.231628,12259
834.349915,12604
834.468201,12550
834.586426,12335
834.704651,12337
834.822998,12301
834.941162,12602
835.059448,12379
835.177673,12607
835.295959,12514
835.414246,12503
835.53241,12455
835.650635,12358
835.768921,12396
835.887146,12316
836.005371,12198
836.123596,12171
836.241821,12252
836.360046,12067
836.478271,12259
836.596497,12319
836.714722,12457
836.832886,12310
836.95105,12499
837.069336,12229
837.1875,12139
837.305725,12090
837.423889,12169
837.542053,12132
837.660339,12308
837.778503,12275
837.896667,12326
838.014832,12583
838.132996,12732
838.25116,12169
838.369385,12089
838.487488,12147
838.605713,12060
838.723877,12169
838.84198,12110
838.960205,12075
839.078308,11984
839.196472,11883
839.314636,11842
839.4328,11768
839.550964,11757
839.669067,11696
839.787231,11925
839.905396,11892
840.023499,12005
840.141602,11941
840.259766,12132
840.377869,12198
840.495972,12064
840.614136,11969
840.732239,11957
840.850342,12199
840.968445,12106
841.086548,12099
841.204651,12319
841.322754,12093
841.440918,12259
841.55896,12153
841.677002,11834
841.795166,12165
841.913208,12117
842.031311,12067
842.149353,12055
842.267456,12022
842.385498,12245
842.503601,12390
842.621643,12498
842.739746,12751
842.857788,12719
842.97583,12659
843.093933,12574
843.211975,12744
843.330017,12413
843.44812,12553
843.566101,12789
843.684204,12600
843.802246,12881
843.920227,12773
844.038269,12912
844.156311,12996
844.274292,13024
844.392395,13072
844.510376,13081
844.628357,13377
844.74646,13225
844.864441,13008
844.982422,13259
845.100403,13271
845.218384,13369
845.336426,13147
845.454468,13224
845.572449,13222
845.69043,13481
845.808411,13342
845.926453,13534
846.044373,13350
846.162354,13281
846.280396,13050
846.398315,13088
846.516296,13322
846.634216,13371
846.752197,13300
846.870178,13076
846.988098,12938
847.106079,12941
847.22406,12823
847.34198,12958
847.4599,12826
847.577881,13042
847.695801,13032
847.813782,12878
847.931641,12740
848.049561,12732
848.167603,12661
848.285461,13003
848.403381,12861
848.521362,13096
848.639221,13009
848.75708,13100
848.875,13088
848.99292,13296
849.110901,13281
849.22876,13458
849.34668,12973
849.464539,13254
849.582458,13180
849.700317,13047
849.818176,12913
849.936096,12841
850.053955,12839
850.171875,12465
850.289673,12803
850.407593,12832
850.525452,12713
850.643311,12538
850.761169,12754
850.878967,12687
850.996887,12722
851.114746,12637
851.232544,12961
851.350403,12587
851.468262,12531
851.58606,12797
851.703979,12736
851.821777,12500
851.939636,12651
852.057434,12984
852.175232,13058
852.293091,12827
852.410889,12849
852.528687,12863
852.646545,12838
852.764343,12925
852.88208,12743
852.999939,12941
853.117676,12819
853.235535,12914
853.353271,12952
853.471069,13129
853.588928,12766
853.706604,12960
853.824402,12865
853.9422,13110
854.059998,13216
854.177734,13198
854.295532,13437
854.413269,13663
854.531006,13643
854.648804,13674
854.766541,13315
854.884277,13181
855.002014,13346
855.119751,13630
855.237549,13589
855.355225,13688
855.473022,13609
855.590698,13295
855.708435,13528
855.826172,13351
855.943848,13305
856.061646,13420
856.179321,13362
856.296997,13446
856.414795,13190
856.53241,13350
856.650085,13095
856.767822,13106
856.885559,13197
857.003174,13242
857.120911,13426
857.238586,13357
857.356201,13350
857.473938,13424
857.591614,13384
857.709351,13238
857.826965,13507
857.944641,13469
858.062317,13777
858.179993,13909
858.297668,13412
858.415283,13586
858.532959,13197
858.650574,13274
858.768188,13298
858.885803,13446
859.003479,13355
859.121094,13256
859.23877,13440
859.356384,13374
859.473999,13338
859.591675,13210
859.709229,13251
859.826843,13754
859.944458,13327
860.062012,13236
860.179626,13296
860.297302,13044
860.414856,13513
860.532471,12954
860.650024,13000
860.767639,13179
860.885193,12966
861.002808,13094
861.120361,13187
861.237976,13086
861.35553,13357
861.473022,13378
861.590698,13302
861.708191,13186
861.825745,13163
861.943298,13327
862.060852,12890
862.178406,12775
862.295959,12764
862.413513,13290
862.531006,12829
862.64856,12769
862.766113,12808
862.883667,12715
863.00116,12515
863.118713,12484
863.236206,12605
863.353699,12757
863.471252,12761
863.588745,12430
863.706177,12774
863.82373,12761
863.941162,12622
864.058716,12574
864.176208,12906
864.29364,12757
864.411194,12837
864.528687,12791
864.646118,12838
864.763611,12985
864.881042,12877
864.998535,13114
865.116028,13060
865.233459,12834
865.350891,12927
865.468384,13072
865.585754,13125
865.703308,13246
865.820679,13212
865.938171,13175
866.055542,13304
866.173035,13311
866.290466,13077
866.407837,13523
866.52533,13516
866.6427,13770
866.760071,13787
866.877563,14036
866.994934,13914
867.112305,13543
867.229736,13700
867.347107,13827
867.464539,13725
867.58197,13881
867.699341,14192
867.81665,14253
867.934082,14181
868.051453,14044
868.168823,14168
868.286194,14314
868.403564,14408
868.520935,14243
868.638306,14474
868.755676,14278
868.872986,14134
868.990295,14096
869.107727,13993
869.225037,14019
869.342346,13781
869.459717,13698
869.577026,14026
869.694336,13893
869.811707,13640
869.929016,13671
870.046326,13889
870.163635,14106
870.280945,13998
870.398254,14026
870.515564,14081
870.632812,13782
870.750183,13941
870.867432,14364
870.984741,14148
871.102051,13847
871.219299,14272
871.336609,14442
871.453918,14267
871.571106,14144
871.688416,13919
871.805664,14035
871.922852,13672
872.040222,14013
872.157471,14150
872.274719,13956
872.391968,13653
872.509155,13614
872.626465,13562
872.743652,13797
872.860962,13916
872.978149,13759
873.095337,13720
873.212646,13969
873.329834,13773
873.44696,13661
873.564209,13946
873.681396,13619
873.798645,13141
873.915894,13195
874.03302,13080
874.150208,13259
874.267456,12992
874.384583,12849
874.501831,12849
874.618958,12922
874.736145,12739
874.853333,13054
874.970459,13061
875.087646,13052
875.204834,12961
875.32196,13052
875.439148,12903
875.556274,13004
875.673401,13093
875.790527,13103
875.907715,13081
876.024841,12936
876.141968,13130
876.259094,13323
876.376282,13108
876.493347,13523
876.610474,13486
876.7276,13453
876.844727,13914
876.961853,13736
877.078918,13582
877.195984,13863
877.313171,14056
877.430237,14193
877.547302,14111
877.664368,14036
877.781433,14255
877.898499,14355
878.015625,14063
878.13269,13952
878.249695,14281
878.366821,14071
878.483887,14164
878.600952,14140
878.717957,13997
878.834961,14070
878.952087,13928
879.069092,14388
879.186157,14287
879.303162,14190
879.420227,14031
879.537231,13956
879.654236,14192
879.77124,14123
879.888306,13840
880.005249,13664
880.122314,13994
880.239319,13820
880.356323,13579
880.473328,13699
880.590271,13748
880.707275,13500
880.824341,13413
880.941284,13529
881.058228,13436
881.175232,13367
881.292236,13249
881.40918,13459
881.526123,13697
881.643066,13470
881.760071,13053
881.877014,13234
881.993958,13323
882.11084,13486
882.227783,13394
882.344727,13465
882.46167,13297
882.578613,12933
882.695618,12912
882.812439,12835
882.929382,13427
883.046326,12963
883.163208,12877
883.280151,13120
883.397034,13277
883.513916,12799
883.630798,12979
883.747742,13259
883.864563,13124
883.981506,13188
884.098389,13020
884.21521,12884
884.332153,13153
884.448975,13007
884.565796,12858
884.682678,12867
884.7995,12748
884.916443,12834
885.033264,12514
885.150085,12797
885.266968,12596
885.383789,12538
885.500671,12542
885.617493,12529
885.734314,12728
885.851196,12606
885.967896,12496
886.084717,12940
886.201599,12795
886.318359,12588
886.435181,12429
886.552002,12763
886.668762,13198
886.785645,12759
886.902344,12699
887.019165,12642
887.135925,12854
887.252747,12663
887.369446,12630
887.486267,12543
887.603027,12364
887.719788,12174
887.836548,12344
887.953247,12834
888.070068,12931
888.186829,12573
888.303528,12591
888.420288,12851
888.536987,12756
888.653687,12810
888.770447,12877
888.887146,13065
889.003967,13043
889.120667,13130
889.237305,12757
889.354065,12792
889.470703,12789
889.587463,12779
889.704163,12782
889.820862,12720
889.937561,12890
890.054199,12497
890.170837,12726
890.287598,13183
890.404236,13125
890.520874,12813
890.637634,12953
890.754211,13006
890.87085,13029
890.987549,12974
891.104187,13309
891.220886,13307
891.337463,13214
891.454102,13305
891.57074,13050
891.687378,13062
891.804077,13106
891.920654,12872
892.037231,12904
892.15387,13207
892.270447,12969
892.387085,12778
892.503723,12941
892.6203,13014
892.736877,13042
892.853516,13073
892.970032,12899
893.08667,13137
893.203186,13235
893.319763,13057
893.43634,13084
893.552917,13301
893.669556,13236
893.786011,13058
893.902588,12733
894.019165,12841
894.135681,13049
894.252197,13089
894.368835,12616
894.485291,12582
894.601868,12491
894.718384,12630
894.8349,12585
894.951355,12726
895.067932,12636
895.184448,12433
895.300964,12694
895.417419,13061
895.533936,13298
895.650452,13162
895.766907,12879
895.883423,13168
895.999878,13039
896.116333,13152
896.232849,12910
896.349304,12578
896.465759,12923
896.582214,12908
896.698669,12657
896.815125,12706
896.931641,12972
897.048035,12770
897.164551,12900
897.280884,13154
897.397339,13018
897.513794,13096
897.630249,13084
897.746582,13239
897.863098,13354
897.979431,13073
898.095886,12993
898.212341,13161
898.328674,13167
898.445129,13114
898.561462,12770
898.677795,12832
898.794312,12814
898.910645,12660
899.026978,12602
899.143433,12588
899.259766,12548
899.37616,12764
899.492493,12655
899.608765,12707
899.725159,12903
899.841553,12775
899.957947,12870
900.07428,12846
900.190552,12891
900.306946,12723
900.423157,12496
900.53949,12685
900.655884,13017
900.772156,12733
900.888489,12384
901.004822,12398
901.121033,12329
901.237366,12225
901.353699,11987
901.46991,12213
901.586304,12212
901.702515,12351
901.818787,11951
901.93512,12050
902.051331,12275
902.167603,12337
902.283875,12212
902.400085,12389
902.516418,12657
902.632629,12935
902.74884,13148
902.865112,13070
902.981384,13373
903.097595,13279
903.213867,13469
903.330017,13290
903.446289,13318
903.5625,13399
903.67865,13272
903.794922,13404
903.911072,13371
904.027344,13465
904.143494,13278
904.259705,13460
904.375916,13118
904.492065,13052
904.608215,12968
904.724426,13136
904.840576,12820
904.956726,13058
905.072876,12839
905.189087,13166
905.305176,12672
905.421387,12973
905.537537,13229
905.653687,13315
905.769775,13053
905.885925,12866
906.002014,12962
906.118164,12596
906.234314,12285
906.350403,12392
906.466492,12499
906.582642,12634
906.69873,12142
906.814758,12282
906.930908,12493
907.046936,12075
907.163086,12198
907.279175,12271
907.395264,12220
907.511353,12481
907.62738,12684
907.743408,12640
907.859497,12771
907.975525,12801
908.091553,12867
908.207703,12635
908.32373,12704
908.439758,12430
908.555786,12463
908.671814,12357
908.787842,12292
908.90387,12059
909.019775,12242
909.135864,11949
909.251892,12135
909.367859,12176
909.483826,12491
909.599854,12325
909.715881,12378
909.831848,12510
909.947815,12508
910.063782,12479
910.179749,12502
910.295776,12617
910.411743,12554
910.527649,12447
910.643616,12421
910.759583,12405
910.875488,12439
910.991455,11978
911.107361,12047
911.223267,12178
911.339294,12264
911.4552,12191
911.571106,11929
911.687073,12109
911.802979,12353
911.918823,11997
912.034729,11851
912.150635,11875
912.266602,12228
912.382446,12167
912.498352,11993
912.614197,12013
912.730103,12317
912.846008,12349
792.44574,11992
792.56488,12044
792.68396,12032
792.80304,11963
792.92218,11865
793.041199,12002
793.160339,11996
793.279419,11982
793.398499,11900
793.517578,11992
793.636658,12222
793.755737,12402
793.874817,12358
793.993896,12441
794.112976,12642
794.232056,12505
794.351074,12293
794.470215,12027
794.589233,11598
794.708313,11851
794.827393,11893
794.946411,11842
795.065552,11783
795.18457,12059
795.303589,12181
795.422668,12021
795.541687,12114
795.660767,12013
795.779846,11949
795.898865,11804
796.017883,12031
796.136963,12023
796.255981,11844
796.375061,11780
796.49408,11881
796.613037,11828
796.732117,11931
796.851135,11807
796.970154,11799
797.089233,11644
797.208191,11458
797.327271,11489
797.446228,11731
797.565186,11498
797.684265,11646
797.803223,11566
797.922241,11622
798.04126,11743
798.160278,11737
798.279297,11661
798.398315,11688
798.517273,11634
798.636292,11735
798.75531,11549
798.874268,11674
798.993286,11524
799.112244,11517
799.231323,11495
799.350281,11540
799.469238,11531
799.588257,11468
799.707153,11496
799.826111,11551
799.945129,11701
800.064087,11747
800.183044,11730
800.302063,11546
800.421021,11703
800.539978,11960
800.658936,11673
800.777893,11794
800.896912,11864
801.015747,11505
801.134705,11988
801.253723,11579
801.37262,11639
801.491638,11591
801.610535,11565
801.729492,11656
801.84845,11506
801.967407,11352
802.086243,11557
802.205261,11590
802.324158,11791
802.443115,11645
802.562073,11740
802.680969,11892
802.799927,11556
802.918762,11702
803.037659,11260
803.156677,11502
803.275574,11522
803.39447,11594
803.513428,11455
803.632263,11352
803.751221,11523
803.870117,11707
803.989014,11537
804.107971,11738
804.226746,11662
804.345642,11839
804.4646,11884
804.583496,12032
804.702393,12207
804.821228,12057
804.940125,12225
805.059021,12404
805.177917,12332
805.296814,12249
805.415649,12492
805.534546,12466
805.653442,12448
805.772278,12375
805.891113,12580
806.01001,12641
806.128906,12565
806.247742,12497
806.366577,12422
806.485413,12551
806.604309,12739
806.723145,12722
806.84198,12640
806.960876,12684
807.079712,12663
807.198486,12489
807.317383,12549
807.436218,12380
807.554993,12215
807.673889,12371
807.792725,12208
807.91156,12316
808.030396,12286
808.14917,12378
808.268005,12309
808.386841,12105
808.505676,12610
808.624451,12658
808.743286,12403
808.862122,12375
808.980896,12337
809.099731,11959
809.218506,12318
809.337341,12347
809.456116,12541
809.57489,12212
809.693726,12031
809.8125,12218
809.931274,12392
810.050049,12207
810.168884,12383
810.287659,12117
810.406372,12085
810.525269,11783
810.643982,11796
810.762756,11642
810.881531,11727
811.000305,11576
811.11908,11807
811.237854,11754
811.356567,11483
811.475403,11748
811.594116,11566
811.71283,11421
811.831604,11639
811.950378,11654
812.069153,11611
812.187927,11658
812.30658,11755
812.425415,11891
812.544128,11649
812.662781,11820
812.781616,11617
812.900269,11791
813.019043,11866
813.137756,11695
813.256531,11748
813.375244,11738
813.493896,11768
813.612671,11586
813.731384,11748
813.850037,11788
813.96875,11708
814.087524,11651
814.206238,11468
814.324951,11375
814.443604,11617
814.562256,11737
814.68103,11555
814.799683,11823
814.918335,11850
815.037109,11953
815.155762,12290
815.274475,12225
815.393188,12283
815.511841,11975
815.630554,12003
815.749146,12054
815.867859,12215
815.986572,12357
816.105164,12380
816.223877,12134
816.342529,12331
816.461182,12622
816.579895,12692
816.698486,12587
816.817139,12602
816.935791,12534
817.054504,12520
817.173096,12688
817.291748,12662
817.4104,12295
817.529053,12504
817.647644,12720
817.766235,12437
817.884949,12322
818.00354,12469
818.122192,12538
818.240845,12501
818.359436,12615
818.478088,12698
818.59668,12621
818.715271,12628
818.833923,12697
818.952515,12443
819.071106,12615
819.189758,12596
819.30835,12668
819.426941,12371
819.545532,12232
819.664124,12505
819.782715,12271
819.901306,12345
820.019897,12663
820.138489,12405
820.25708,12509
820.375671,12523
820.494202,12330
820.612732,12301
820.731384,12085
820.849915,12403
820.968506,12247
821.087097,12294
821.205627,12498
821.324158,12480
821.442749,12435
821.561279,12524
821.679871,12439
821.798401,12691
821.916931,12434
822.035461,12362
822.154053,12213
822.272583,12040
822.391174,12094
822.509583,12025
822.628174,11971
822.746704,12000
822.865234,12086
822.983765,12288
823.102295,12296
823.220825,12200
823.339294,12137
823.457825,11804
823.576355,11882
823.694824,12150
823.813354,12417
823.931885,12214
824.050354,12134
824.168884,12348
824.287354,12309
824.405823,12335
824.524353,12312
824.642822,12105
824.761353,12098
824.879822,12180
824.998291,12578
825.116699,12571
825.235291,12588
825.353699,12834
825.472168,12805
825.590637,12726
825.709106,12862
825.827576,12871
825.946045,12831
826.064453,12637
826.182983,12629
826.301392,12538
826.4198,12382
826.53833,12348
826.656738,12383
826.775208,12445
826.893677,12647
827.012024,12444
827.130493,12263
827.248962,12191
827.36731,12356
827.485779,11973
827.604248,11889
827.722595,11897
827.841064,11846
827.959412,11723
828.077942,11886
828.196289,11966
828.314636,12107
828.433105,12076
828.551514,12123
828.669861,12211
828.78833,11959
828.906677,12039
829.025085,12211
829.143433,12338
829.261841,12366
829.38031,12232
829.498657,11899
829.617004,11970
829.735413,12109
829.85376,11952
829.972107,12002
830.090515,12219
830.208862,12253
830.327209,11952
830.445557,11845
830.563904,11671
830.682312,11776
830.800659,11835
830.919006,11660
831.037354,11599
831.155701,11400
831.274048,11452
831.392395,11702
831.51062,11458
831.629028,11267
831.747314,11423
831.865662,11459
831.984009,11470
832.102356,11626
832.220642,11587
832.338928,11459
832.457275,11708
832.575623,11591
832.693909,11890
832.812134,12119
832.930481,11923
833.048828,11849
833.167114,11967
833.2854,12352
833.403687,12365
833.521973,12224
833.640259,12325
833.758545,12673
833.876831,12464
833.995056,12364
834.113281,12413
834.231628,12395
834.349915,12526
834.468201,12587
834.586426,12436
834.704651,12510
834.822998,12297
834.941162,12530
835.059448,12426
835.177673,12672
835.295959,12446
835.414246,12424
835.53241,12636
835.650635,12268
835.768921,12280
835.887146,12273
836.005371,12054
836.123596,12077
836.241821,12148
836.360046,12152
836.478271,12318
836.596497,12298
836.714722,12383
836.832886,12366
836.95105,12407
837.069336,12108
837.1875,12186
837.305725,12150
837.423889,12155
837.542053,12355
837.660339,12216
837.778503,12378
837.896667,12286
838.014832,12354
838.132996,12512
838.25116,12242
838.369385,12180
838.487488,12008
838.605713,12148
838.723877,12096
838.84198,12038
838.960205,12122
839.078308,11876
839.196472,11784
839.314636,11803
839.4328,11789
839.550964,11879
839.669067,11730
839.787231,11964
839.905396,12020
840.023499,12005
840.141602,12037
840.259766,12202
840.377869,12213
840.495972,12123
840.614136,11849
840.732239,11957
840.850342,12125
840.968445,12115
841.086548,12249
841.204651,12293
841.322754,12105
841.440918,12238
841.55896,12167
841.677002,11969
841.795166,12092
841.913208,12123
842.031311,12008
842.149353,12059
842.267456,12076
842.385498,12102
842.503601,12508
842.621643,12543
842.739746,12742
842.857788,12878
842.97583,12667
843.093933,12682
843.211975,12743
843.330017,12527
843.44812,12688
843.566101,12713
843.684204,12635
843.802246,12739
843.920227,12918
844.038269,13126
844.156311,12949
844.274292,13105
844.392395,13017
844.510376,13228
844.628357,13277
844.74646,13318
844.864441,13033
844.982422,13046
845.100403,13224
845.218384,13372
845.336426,13210
845.454468,13196
845.572449,13124
845.69043,13441
845.808411,13142
845.926453,13404
846.044373,13413
846.162354,13321
846.280396,13248
846.398315,13135
846.516296,13189
846.634216,13301
846.752197,13256
846.870178,13074
846.988098,13080
847.106079,12890
847.22406,12924
847.34198,12919
847.4599,12814
847.577881,12897
847.695801,13059
847.813782,12919
847.931641,12757
848.049561,12827
848.167603,12644
848.285461,12893
848.403381,12889
848.521362,13086
848.639221,12950
848.75708,13053
848.875,13065
848.99292,13156
849.110901,13141
849.22876,13477
849.34668,13077
849.464539,13085
849.582458,12940
849.700317,12927
849.818176,12845
849.936096,12748
850.053955,12943
850.171875,12512
850.289673,12827
850.407593,12843
850.525452,12581
850.643311,12584
850.761169,12680
850.878967,12753
850.996887,12772
851.114746,12901
851.232544,12945
851.350403,12643
851.468262,12529
851.58606,12619
851.703979,12750
851.821777,12571
851.939636,12610
852.057434,12975
852.175232,13103
852.293091,12840
852.410889,12821
852.528687,12910
852.646545,12884
852.764343,12836
852.88208,12956
852.999939,12866
853.117676,12755
853.235535,12839
853.353271,13054
853.471069,13051
853.588928,12730
853.706604,13006
853.824402,12990
853.9422,12981
854.059998,13340
854.177734,13241
854.295532,13384
854.413269,13575
854.531006,13540
854.648804,13751
854.766541,13475
854.884277,13272
855.002014,13417
855.119751,13549
855.237549,13629
855.355225,13766
855.473022,13620
855.590698,13205
855.708435,13506
855.826172,13482
855.943848,13401
856.061646,13480
856.179321,13360
856.296997,13427
856.414795,13198
856.53241,13298
856.650085,13204
856.767822,13147
856.885559,13139
857.003174,13207
857.120911,13384
857.238586,13369
857.356201,13261
857.473938,13369
857.591614,13483
857.709351,13121
857.826965,13395
857.944641,13283
858.062317,13815
858.179993,13674
858.297668,13371
858.415283,13425
858.532959,13434
858.650574,13264
858.768188,13225
858.885803,13552
859.003479,13221
859.121094,13127
859.23877,13337
859.356384,13453
859.473999,13334
859.591675,13143
859.709229,13264
859.826843,13609
859.944458,13141
860.062012,13140
860.179626,13309
860.297302,13176
860.414856,13282
860.532471,13022
860.650024,13067
860.767639,13157
860.885193,13245
861.002808,13081
861.120361,13161
861.237976,13051
861.35553,13359
861.473022,13507
861.590698,13129
861.708191,13164
861.825745,13096
861.943298,13262
862.060852,13003
862.178406,12690
862.295959,12931
862.413513,13250
862.531006,12737
862.64856,12635
862.766113,12921
862.883667,12671
863.00116,12729
863.118713,12494
863.236206,12602
863.353699,12666
863.471252,12719
863.588745,12431
863.706177,12613
863.82373,12772
863.941162,12656
864.058716,12630
864.176208,12963
864.29364,12736
864.411194,12896
864.528687,12910
864.646118,12598
864.763611,12947
864.881042,12857
864.998535,13027
865.116028,13112
865.233459,12888
865.350891,12857
865.468384,13138
865.585754,13152
865.703308,13329
865.820679,13385
865.938171,13276
866.055542,13342
866.173035,13303
866.290466,13252
866.407837,13550
866.52533,13412
866.6427,13630
866.760071,13782
866.877563,13986
866.994934,13989
867.112305,13577
867.229736,13781
867.347107,13943
867.464539,13747
867.58197,13868
867.699341,13911
867.81665,14220
867.934082,14106
868.051453,13979
868.168823,14245
868.286194,14347
868.403564,14327
868.520935,14188
868.638306,14357
868.755676,14369
868.872986,14162
868.990295,14089
869.107727,14176
869.225037,13988
869.342346,13911
869.459717,13842
869.577026,13905
869.694336,13763
869.811707,13762
869.929016,13624
870.046326,13984
870.163635,14084
870.280945,13990
870.398254,13943
870.515564,14065
870.632812,13900
870.750183,13811
870.867432,14219
870.984741,13954
871.102051,14091
871.219299,14196
871.336609,14509
871.453918,14069
871.571106,14014
871.688416,13883
871.805664,13960
871.922852,13721
872.040222,14011
872.157471,14121
872.274719,13898
872.391968,13761
872.509155,13397
872.626465,13734
872.743652,13948
872.860962,13892
872.978149,13777
873.095337,13855
873.212646,14018
873.329834,13854
873.44696,13736
873.564209,13903
873.681396,13486
873.798645,12934
873.915894,13199
874.03302,13229
874.150208,13352
874.267456,12929
874.384583,12934
874.501831,12790
874.618958,12903
874.736145,12732
874.853333,13060
874.970459,12984
875.087646,13124
875.204834,13019
875.32196,13109
875.439148,13026
875.556274,12844
875.673401,13035
875.790527,13189
875.907715,13013
876.024841,13089
876.141968,13268
876.259094,13265
876.376282,13051
876.493347,13313
876.610474,13596
876.7276,13495
876.844727,13713
876.961853,13823
877.078918,13791
877.195984,13837
877.313171,14090
877.430237,14279
877.547302,14193
877.664368,14174
877.781433,14040
877.898499,14143
878.015625,14187
878.13269,13907
878.249695,14144
878.366821,14122
878.483887,14316
878.600952,14213
878.717957,14068
878.834961,14061
878.952087,14013
879.069092,14257
879.186157,14374
879.303162,14185
879.420227,14111
879.537231,13885
879.654236,14214
879.77124,13948
879.888306,13819
880.005249,13568
880.122314,13997
880.239319,13794
880.356323,13439
880.473328,13806
880.590271,13817
880.707275,13488
880.824341,13551
880.941284,13365
881.058228,13409
881.175232,13553
881.292236,13332
881.40918,13301
881.526123,13722
881.643066,13200
881.760071,13094
881.877014,13227
881.993958,13237
882.11084,13334
882.227783,13112
882.344727,13363
882.46167,13283
882.578613,13009
882.695618,13047
882.812439,12966
882.929382,13358
883.046326,12986
883.163208,12829
883.280151,12968
883.397034,13326
883.513916,12819
883.630798,13087
883.747742,13191
883.864563,13234
883.981506,12969
884.098389,13037
884.21521,12853
884.332153,13220
884.448975,13026
884.565796,12751
884.682678,12967
884.7995,12684
884.916443,12869
885.033264,12660
885.150085,12719
885.266968,12548
885.383789,12643
885.500671,12574
885.617493,12651
885.734314,12724
885.851196,12724
885.967896,12647
886.084717,12932
886.201599,12728
886.318359,12603
886.435181,12517
886.552002,12881
886.668762,13145
886.785645,12774
886.902344,12492
887.019165,12720
887.135925,12807
887.252747,12383
887.369446,12691
887.486267,12702
887.603027,12319
887.719788,12397
887.836548,12313
887.953247,12732
888.070068,12901
888.186829,12525
888.303528,12577
888.420288,12805
888.536987,12736
888.653687,12729
888.770447,12839
888.887146,13068
889.003967,13176
889.120667,12988
889.237305,12731
889.354065,12804
889.470703,12663
889.587463,12685
889.704163,12762
889.820862,12838
889.937561,12901
890.054199,12606
890.170837,12917
890.287598,13240
890.404236,13287
890.520874,12824
890.637634,13049
890.754211,13016
890.87085,13043
890.987549,13065
891.104187,13328
891.220886,13332
891.337463,13253
891.454102,13149
891.57074,13180
891.687378,13055
891.804077,12986
891.920654,13010
892.037231,12788
892.15387,12978
892.270447,13191
892.387085,12840
892.503723,12941
892.6203,13165
892.736877,13094
892.853516,13201
892.970032,12815
893.08667,13203
893.203186,13132
893.319763,13014
893.43634,12961
893.552917,13473
893.669556,13315
893.786011,12884
893.902588,12774
894.019165,12837
894.135681,13092
894.252197,12912
894.368835,12678
894.485291,12639
894.601868,12602
894.718384,12402
894.8349,12403
894.951355,12637
895.067932,12596
895.184448,12446
895.300964,12923
895.417419,12990
895.533936,13235
895.650452,13175
895.766907,13053
895.883423,13406
895.999878,12950
896.116333,13098
896.232849,12945
896.349304,12662
896.465759,12759
896.582214,13034
896.698669,12658
896.815125,12655
896.931641,12943
897.048035,12980
897.164551,12930
897.280884,13186
897.397339,13207
897.513794,13216
897.630249,13003
897.746582,13341
897.863098,13294
897.979431,12933
898.095886,13148
898.212341,13082
898.328674,13136
898.445129,13012
898.561462,12809
898.677795,12829
898.794312,12789
898.910645,12780
899.026978,12519
899.143433,12628
899.259766,12482
899.37616,12590
899.492493,12645
899.608765,12767
899.725159,12889
899.841553,12821
899.957947,12886
900.07428,12840
900.190552,12981
900.306946,12597
900.423157,12418
900.53949,12831
900.655884,12818
900.772156,12815
900.888489,12536
901.004822,12378
901.121033,12613
901.237366,12394
901.353699,12110
901.46991,12320
901.586304,12333
901.702515,12272
901.818787,12127
901.93512,12076
902.051331,12219
902.167603,12547
902.283875,12268
902.400085,12710
902.516418,12561
902.632629,13062
902.74884,13009
902.865112,13166
902.981384,13350
903.097595,13312
903.213867,13433
903.330017,13384
903.446289,13353
903.5625,13460
903.67865,13360
903.794922,13338
903.911072,13324
904.027344,13637
904.143494,13308
904.259705,13558
904.375916,13016
904.492065,13020
904.608215,12962
904.724426,13214
904.840576,12833
904.956726,13050
905.072876,12949
905.189087,13040
905.305176,12614
905.421387,13080
905.537537,13428
905.653687,13202
905.769775,13140
905.885925,12921
906.002014,12789
906.118164,12561
906.234314,12190
906.350403,12338
906.466492,12400
906.582642,12517
906.69873,12270
906.814758,12392
906.930908,12581
907.046936,12192
907.163086,12306
907.279175,12088
907.395264,12463
907.511353,12426
907.62738,12615
907.743408,12572
907.859497,12693
907.975525,12814
908.091553,12907
908.207703,12587
908.32373,12704
908.439758,12300
908.555786,12474
908.671814,12312
908.787842,12244
908.90387,12096
909.019775,12359
909.135864,12067
909.251892,12197
909.367859,12185
909.483826,12612
909.599854,12333
909.715881,12330
909.831848,12432
909.947815,12513
910.063782,12492
910.179749,12397
910.295776,12738
910.411743,12697
910.527649,12638
910.643616,12486
910.759583,12425
910.875488,12275
910.991455,12028
911.107361,12183
911.223267,12369
911.339294,12167
911.4552,12132
911.571106,11886
911.687073,12172
911.802979,12325
911.918823,12107
912.034729,11936
912.150635,11925
912.266602,12108
912.382446,12078
912.498352,12054
912.614197,11980
912.730103,12228
912.846008,12341
792.44574,11915
792.56488,12041
792.68396,12063
792.80304,12034
792.92218,11803
793.041199,12010
793.160339,12092
793.279419,11917
793.398499,12014
793.517578,11993
793.636658,12440
793.755737,12313
793.874817,12223
793.993896,12430
794.112976,12492
794.232056,12525
794.351074,12305
794.470215,12046
794.589233,11850
794.708313,11748
794.827393,11944
794.946411,11806
795.065552,11754
795.18457,11942
795.303589,11952
795.422668,11942
795.541687,12193
795.660767,12064
795.779846,11961
795.898865,11990
796.017883,11899
796.136963,11922
796.255981,11803
796.375061,11866
796.49408,11750
796.613037,11794
796.732117,11870
796.851135,11823
796.970154,11844
797.089233,11680
797.208191,11544
797.327271,11431
797.446228,11708
797.565186,11767
797.684265,11615
797.803223,11635
797.922241,11475
798.04126,11788
798.160278,11905
798.279297,11639
798.398315,11726
798.517273,11527
798.636292,11642
798.75531,11496
798.874268,11596
798.993286,11463
799.112244,11575
799.231323,11560
799.350281,11669
799.469238,11454
799.588257,11336
799.707153,11359
799.826111,11572
799.945129,11663
800.064087,11633
800.183044,11703
800.302063,11665
800.421021,11846
800.539978,11857
800.658936,11706
800.777893,11761
800.896912,11854
801.015747,11580
801.134705,11997
801.253723,11592
801.37262,11693
801.491638,11443
801.610535,11593
801.729492,11669
801.84845,11382
801.967407,11575
802.086243,11560
802.205261,11515
802.324158,11736
802.443115,11694
802.562073,11703
802.680969,11779
802.799927,11652
802.918762,11629
803.037659,11504
803.156677,11335
803.275574,11440
803.39447,11443
803.513428,11493
803.632263,11359
803.751221,11375
803.870117,11575
803.989014,11522
804.107971,11624
804.226746,11664
804.345642,11803
804.4646,12018
804.583496,12076
804.702393,12157
804.821228,12233
804.940125,12375
805.059021,12524
805.177917,12225
805.296814,12158
805.415649,12383
805.534546,12453
805.653442,12382
805.772278,12370
805.891113,12503
806.01001,12718
806.128906,12595
806.247742,12464
806.366577,12482
806.485413,12510
806.604309,12785
806.723145,12836
806.84198,12449
806.960876,12680
807.079712,12636
807.198486,12546
807.317383,12422
807.436218,12401
807.554993,12302
807.673889,12212
807.792725,12066
807.91156,12305
808.030396,12203
808.14917,12491
808.268005,12353
808.386841,12137
808.505676,12486
808.624451,12646
808.743286,12505
808.862122,12346
808.980896,12301
809.099731,12036
809.218506,12271
809.337341,12321
809.456116,12465
809.57489,12183
809.693726,12129
809.8125,12218
809.931274,12288
810.050049,12165
810.168884,12178
810.287659,12032
810.406372,11914
810.525269,11841
810.643982,11962
810.762756,11589
810.881531,11678
811.000305,11497
811.11908,11893
811.237854,11760
811.356567,11482
811.475403,11666
811.594116,11481
811.71283,11410
811.831604,11621
811.950378,11814
812.069153,11514
812.187927,11722
812.30658,11730
812.425415,11873
812.544128,11656
812.662781,11756
812.781616,11586
812.900269,11616
813.019043,11789
813.137756,11601
813.256531,11733
813.375244,11846
813.493896,11890
813.612671,11624
813.731384,11823
813.850037,11847
813.96875,11680
814.087524,11651
814.206238,11570
814.324951,11382
814.443604,11400
814.562256,11734
814.68103,11580
814.799683,11869
814.918335,11913
815.037109,12086
815.155762,12406
815.274475,12278
815.393188,12166
815.511841,12003
815.630554,12145
815.749146,12130
815.867859,12275
815.986572,12165
816.105164,12377
816.223877,12262
816.342529,12233
816.461182,12793
816.579895,12735
816.698486,12592
816.817139,12644
816.935791,12570
817.054504,12505
817.173096,12422
817.291748,12534
817.4104,12375
817.529053,12349
817.647644,12673
817.766235,12378
817.884949,12342
818.00354,12484
818.122192,12475
818.240845,12581
818.359436,12656
818.478088,12705
818.59668,12588
818.715271,12532
818.833923,12517
818.952515,12554
819.071106,12432
819.189758,12442
819.30835,12748
819.426941,12392
819.545532,12297
819.664124,12402
819.782715,12360
819.901306,12503
820.019897,12594
820.138489,12505
820.25708,12416
820.375671,12499
820.494202,12350
820.612732,12236
820.731384,12168
820.849915,12347
820.968506,12262
821.087097,12475
821.205627,12494
821.324158,12677
821.442749,12427
821.561279,12499
821.679871,12557
821.798401,12620
821.916931,12430
822.035461,12334
822.154053,12242
822.272583,12141
822.391174,12000
822.509583,11909
822.628174,12034
822.746704,12009
822.865234,12115
822.983765,12130
823.102295,12297
823.220825,12398
823.339294,12151
823.457825,11716
823.576355,11977
823.694824,12158
823.813354,12209
823.931885,12320
824.050354,12193
824.168884,12258
824.287354,12241
824.405823,12336
824.524353,12278
824.642822,12138
824.761353,12002
824.879822,12127
824.998291,12396
825.116699,12615
825.235291,12558
825.353699,12792
825.472168,12727
825.590637,12653
825.709106,12825
825.827576,12816
825.946045,12803
826.064453,12796
826.182983,12544
826.301392,12493
826.4198,12340
826.53833,12397
826.656738,12316
826.775208,12504
826.893677,12552
827.012024,12454
827.130493,12285
827.248962,12302
827.36731,12426
827.485779,12060
827.604248,11926
827.722595,11999
827.841064,11706
827.959412,11773
828.077942,11979
828.196289,12221
828.314636,12180
828.433105,12056
828.551514,12168
828.669861,12077
828.78833,11927
828.906677,12074
829.025085,12180
829.143433,12098
829.261841,12351
829.38031,12204
829.498657,11946
829.617004,11981
829.735413,12138
829.85376,12083
829.972107,12123
830.090515,12148
830.208862,12247
830.327209,11891
830.445557,11814
830.563904,11591
830.682312,11779
830.800659,11773
830.919006,11574
831.037354,11691
831.155701,11415
831.274048,11558
831.392395,11602
831.51062,11533
831.629028,11149
831.747314,11539
831.865662,11501
831.984009,11572
832.102356,11432
832.220642,11645
832.338928,11573
832.457275,11897
832.575623,11701
832.693909,11831
832.812134,12100
832.930481,11820
833.048828,11937
833.167114,11965
833.2854,12134
833.403687,12352
833.521973,12361
833.640259,12398
833.758545,12596
833.876831,12463
833.995056,12345
834.113281,12403
834.231628,12216
834.349915,12408
834.468201,12422
834.586426,12381
834.704651,12359
834.822998,12222
834.941162,12606
835.059448,12430
835.177673,12514
835.295959,12505
835.414246,12441
835.53241,12469
835.650635,12359
835.768921,12285
835.887146,12207
836.005371,12037
836.123596,12236
836.241821,12230
836.360046,12377
836.478271,12430
836.596497,12305
836.714722,12489
836.832886,12442
836.95105,12488
837.069336,12255
837.1875,12041
837.305725,12088
837.423889,12176
837.542053,12195
837.660339,12154
837.778503,12391
837.896667,12203
838.014832,12448
838.132996,12680
838.25116,12329
838.369385,12052
838.487488,11951
838.605713,11984
838.723877,12143
838.84198,12082
838.960205,12063
839.078308,11922
839.196472,11807
839.314636,11853
839.4328,11745
839.550964,11700
839.669067,11626
839.787231,11902
839.905396,12096
840.023499,12070
840.141602,12008
840.259766,12225
840.377869,12123
840.495972,12048
840.614136,11833
840.732239,11956
840.850342,12181
840.968445,12078
841.086548,12273
841.204651,12405
841.322754,12038
841.440918,12273
841.55896,12048
841.677002,11970
841.795166,12032
841.913208,12325
842.031311,12025
842.149353,12098
842.267456,12216
842.385498,12088
842.503601,12543
842.621643,12618
842.739746,12718
842.857788,12721
842.97583,12679
843.093933,12570
843.211975,12743
843.330017,12360
843.44812,12799
843.566101,12662
843.684204,12738
843.802246,12923
843.920227,12787
844.038269,13005
844.156311,12933
844.274292,13091
844.392395,12863
844.510376,13213
844.628357,13228
844.74646,13282
844.864441,13046
844.982422,13138
845.100403,13200
845.218384,13374
845.336426,13206
845.454468,13157
845.572449,13134
845.69043,13318
845.808411,13124
845.926453,13595
846.044373,13488
846.162354,13263
846.280396,13135
846.398315,13200
846.516296,13298
846.634216,13223
846.752197,13162
846.870178,13170
846.988098,12870
847.106079,13002
847.22406,12868
847.34198,12955
847.4599,12948
847.577881,13019
847.695801,12914
847.813782,12749
847.931641,12755
848.049561,12822
848.167603,12537
848.285461,12955
848.403381,12954
848.521362,13165
848.639221,13021
848.75708,12991
848.875,13107
848.99292,13142
849.110901,13211
849.22876,13588
849.34668,13143
849.464539,13221
849.582458,13040
849.700317,13017
849.818176,12978
849.936096,12733
850.053955,12753
850.171875,12630
850.289673,12712
850.407593,12840
850.525452,12711
850.643311,12462
850.761169,12854
850.878967,12777
850.996887,12630
851.114746,12758
851.232544,13059
851.350403,12761
851.468262,12434
851.58606,12648
851.703979,12842
851.821777,12509
851.939636,12652
852.057434,13019
852.175232,13168
852.293091,12799
852.410889,12767
852.528687,12803
852.646545,12937
852.764343,12804
852.88208,12957
852.999939,12876
853.117676,12778
853.235535,12953
853.353271,13028
853.471069,12978
853.588928,12707
853.706604,12987
853.824402,13109
853.9422,13121
854.059998,13228
854.177734,13235
854.295532,13302
854.413269,13448
854.531006,13729
854.648804,13767
854.766541,13423
854.884277,13140
855.002014,13302
855.119751,13648
855.237549,13564
855.355225,13710
855.473022,13587
855.590698,13397
855.708435,13560
855.826172,13322
855.943848,13280
856.061646,13338
856.179321,13344
856.296997,13408
856.414795,13153
856.53241,13066
856.650085,12966
856.767822,13259
856.885559,13164
857.003174,13390
857.120911,13498
857.238586,13373
857.356201,13285
857.473938,13367
857.591614,13374
857.709351,13207
857.826965,13354
857.944641,13390
858.062317,13785
858.179993,13775
858.297668,13408
858.415283,13464
858.532959,13291
858.650574,13339
858.768188,13386
858.885803,13564
859.003479,13260
859.121094,13106
859.23877,13270
859.356384,13275
859.473999,13364
859.591675,13206
859.709229,13236
859.826843,13720
859.944458,13244
860.062012,13165
860.179626,13359
860.297302,13078
860.414856,13258
860.532471,13111
860.650024,13239
860.767639,13170
860.885193,13128
861.002808,13042
861.120361,13249
861.237976,13119
861.35553,13299
861.473022,13503
861.590698,13249
861.708191,13051
861.825745,13127
861.943298,13162
862.060852,13026
862.178406,12756
862.295959,12987
862.413513,13241
862.531006,12832
862.64856,12735
862.766113,12832
862.883667,12785
863.00116,12659
863.118713,12728
863.236206,12579
863.353699,12707
863.471252,12695
863.588745,12555
863.706177,12828
863.82373,12721
863.941162,12653
864.058716,12635
864.176208,13032
864.29364,12680
864.411194,12697
864.528687,12793
864.646118,12681
864.763611,12970
864.881042,12798
864.998535,13067
865.116028,13223
865.233459,12826
865.350891,12923
865.468384,13052
865.585754,13145
865.703308,13398
865.820679,13358
865.938171,13336
866.055542,13380
866.173035,13155
866.290466,13202
866.407837,13636
866.52533,13485
866.6427,13714
866.760071,14047
866.877563,14022
866.994934,13836
867.112305,13464
867.229736,13828
867.347107,13924
867.464539,13611
867.58197,13905
867.699341,14134
867.81665,14113
867.934082,14177
868.051453,14004
868.168823,14190
868.286194,14471
868.403564,14299
868.520935,14286
868.638306,14352
868.755676,14258
868.872986,14160
868.990295,14302
869.107727,14109
869.225037,14121
869.342346,13787
869.459717,13815
869.577026,14055
869.694336,13808
869.811707,13627
869.929016,13841
870.046326,13977
870.163635,14103
870.280945,13936
870.398254,14074
870.515564,13965
870.632812,13997
870.750183,14095
870.867432,14158
870.984741,14168
871.102051,13870
871.219299,14238
871.336609,14700
871.453918,13995
871.571106,14101
871.688416,13989
871.805664,13829
871.922852,13755
872.040222,14177
872.157471,14208
872.274719,13864
872.391968,13628
872.509155,13459
872.626465,13488
872.743652,13840
872.860962,13884
872.978149,13935
873.095337,13942
873.212646,14056
873.329834,13739
873.44696,13730
873.564209,13905
873.681396,13503
873.798645,13191
873.915894,13245
874.03302,13096
874.150208,13342
874.267456,12912
874.384583,12910
874.501831,12762
874.618958,12912
874.736145,12800
874.853333,12919
874.970459,12990
875.087646,13136
875.204834,13263
875.32196,13136
875.439148,12884
875.556274,12843
875.673401,12985
875.790527,13272
875.907715,13074
876.024841,13097
876.141968,13364
876.259094,13338
876.376282,13051
876.493347,13319
876.610474,13395
876.7276,13545
876.844727,13854
876.961853,13769
877.078918,13667
877.195984,13843
877.313171,14173
877.430237,14088
877.547302,14190
877.664368,13975
877.781433,14122
877.898499,14291
878.015625,14212
878.13269,14095
878.249695,14200
878.366821,13942
878.483887,14271
878.600952,14206
878.717957,13919
878.834961,14131
878.952087,13845
879.069092,14362
879.186157,14454
879.303162,14159
879.420227,14128
879.537231,13968
879.654236,14185
879.77124,13946
879.888306,13842
880.005249,13601
880.122314,13813
880.239319,13670
880.356323,13656
880.473328,13796
880.590271,13675
880.707275,13511
880.824341,13452
880.941284,13391
881.058228,13404
881.175232,13440
881.292236,13199
881.40918,13401
881.526123,13735
881.643066,13438
881.760071,13123
881.877014,13295
881.993958,13275
882.11084,13286
882.227783,13277
882.344727,13432
882.46167,13103
882.578613,13068
882.695618,12983
882.812439,12937
882.929382,13238
883.046326,12967
883.163208,12897
883.280151,13043
883.397034,13239
883.513916,12784
883.630798,13050
883.747742,13161
883.864563,13197
883.981506,12977
884.098389,12998
884.21521,12917
884.332153,13059
884.448975,12985
884.565796,12838
884.682678,12848
884.7995,12867
884.916443,12784
885.033264,12788
885.150085,12733
885.266968,12561
885.383789,12771
885.500671,12454
885.617493,12651
885.734314,12650
885.851196,12756
885.967896,12628
886.084717,12848
886.201599,12963
886.318359,12681
886.435181,12442
886.552002,12872
886.668762,13111
886.785645,12832
886.902344,12676
887.019165,12603
887.135925,12774
887.252747,12576
887.369446,12385
887.486267,12620
887.603027,12381
887.719788,12280
887.836548,12428
887.953247,12836
888.070068,12907
888.186829,12653
888.303528,12435
888.420288,12802
888.536987,12893
888.653687,12862
888.770447,12812
888.887146,13205
889.003967,13085
889.120667,13027
889.237305,12713
889.354065,12738
889.470703,12819
889.587463,12793
889.704163,12770
889.820862,12734
889.937561,12774
890.054199,12621
890.170837,12909
890.287598,13142
890.404236,13101
890.520874,12749
890.637634,13057
890.754211,13109
890.87085,13013
890.987549,13106
891.104187,13333
891.220886,13300
891.337463,13264
891.454102,13100
891.57074,13172
891.687378,13122
891.804077,13116
891.920654,12952
892.037231,12868
892.15387,13239
892.270447,13187
892.387085,12853
892.503723,13015
892.6203,13102
892.736877,13088
892.853516,12999
892.970032,12963
893.08667,13319
893.203186,13155
893.319763,12957
893.43634,13112
893.552917,13335
893.669556,13159
893.786011,13081
893.902588,12714
894.019165,12910
894.135681,13068
894.252197,12931
894.368835,12542
894.485291,12637
894.601868,12631
894.718384,12267
894.8349,12515
894.951355,12665
895.067932,12830
895.184448,12472
895.300964,12851
895.417419,12899
895.533936,13217
895.650452,13258
895.766907,12878
895.883423,13257
895.999878,13050
896.116333,13105
896.232849,12923
896.349304,12685
896.465759,12880
896.582214,12862
896.698669,12792
896.815125,12735
896.931641,13157
897.048035,12932
897.164551,12843
897.280884,13058
897.397339,13186
897.513794,13171
897.630249,13203
897.746582,13280
897.863098,13450
897.979431,12972
898.095886,12835
898.212341,13172
898.328674,13171
898.445129,13101
898.561462,12825
898.677795,12924
898.794312,12621
898.910645,12662
899.026978,12516
899.143433,12645
899.259766,12437
899.37616,12672
899.492493,12640
899.608765,12902
899.725159,12943
899.841553,12809
899.957947,12893
900.07428,12881
900.190552,12931
900.306946,12637
900.423157,12557
900.53949,12818
900.655884,12983
900.772156,12790
900.888489,12612
901.004822,12353
901.121033,12603
901.237366,12297
901.353699,12119
901.46991,12337
901.586304,12343
901.702515,12465
901.818787,12108
901.93512,12203
902.051331,12369
902.167603,12423
902.283875,12209
902.400085,12406
902.516418,12489
902.632629,12955
902.74884,13027
902.865112,13079
902.981384,13269
903.097595,13257
903.213867,13546
903.330017,13399
903.446289,13345
903.5625,13377
903.67865,13244
903.794922,13402
903.911072,13431
904.027344,13439
904.143494,13312
904.259705,13348
904.375916,13060
904.492065,13037
904.608215,12977
904.724426,13295
904.840576,12924
904.956726,12948
905.072876,12925
905.189087,13183
905.305176,12808
905.421387,13085
905.537537,13247
905.653687,13266
905.769775,13108
905.885925,12869
906.002014,12855
906.118164,12705
906.234314,12312
906.350403,12380
906.466492,12528
906.582642,12624
906.69873,12129
906.814758,12256
906.930908,12430
907.046936,12349
907.163086,12287
907.279175,12172
907.395264,12343
907.511353,12595
907.62738,12714
907.743408,12681
907.859497,12751
907.975525,12667
908.091553,12904
908.207703,12661
908.32373,12628
908.439758,12259
908.555786,12440
908.671814,12241
908.787842,12219
908.90387,12147
909.019775,12311
909.135864,12105
909.251892,11962
909.367859,12161
909.483826,12571
909.599854,12130
909.715881,12330
909.831848,12690
909.947815,12510
910.063782,12521
910.179749,12477
910.295776,12683
910.411743,12692
910.527649,12469
910.643616,12470
910.759583,12392
910.875488,12264
910.991455,12072
911.107361,12154
911.223267,12224
911.339294,12308
911.4552,12009
911.571106,12004
911.687073,11993
911.802979,12171
911.918823,11955
912.034729,11835
912.150635,12070
912.266602,12098
912.382446,12074
912.498352,12199
912.614197,12076
912.730103,12263
912.846008,12514
792.44574,12039
792.56488,12127
792.68396,12058
792.80304,11942
792.92218,11811
793.041199,12022
793.160339,11851
793.279419,12004
793.398499,12090
793.517578,12077
793.636658,12318
793.755737,12345
793.874817,12280
793.993896,12419
794.112976,12560
794.232056,12331
794.351074,12309
794.470215,12023
794.589233,11595
794.708313,11687
794.827393,11856
794.946411,11812
795.065552,11863
795.18457,11864
795.303589,12110
795.422668,11938
795.541687,12034
795.660767,12047
795.779846,11971
795.898865,11908
796.017883,11842
796.136963,12013
796.255981,11919
796.375061,11683
796.49408,11853
796.613037,11745
796.732117,11821
796.851135,11833
796.970154,11771
797.089233,11739
797.208191,11531
797.327271,11377
797.446228,11761
797.565186,11509
797.684265,11558
797.803223,11488
797.922241,11666
798.04126,11735
798.160278,11738
798.279297,11635
798.398315,11715
798.517273,11480
798.636292,11665
798.75531,11532
798.874268,11633
798.993286,11501
799.112244,11621
799.231323,11617
799.350281,11705
799.469238,11565
799.588257,11300
799.707153,11487
799.826111,11531
799.945129,11657
800.064087,11553
800.183044,11713
800.302063,11586
800.421021,11792
800.539978,11791
800.658936,11850
800.777893,11733
800.896912,11875
801.015747,11584
801.134705,11847
801.253723,11690
801.37262,11568
801.491638,11545
801.610535,11633
801.729492,11500
801.84845,11266
801.967407,11478
802.086243,11546
802.205261,11732
802.324158,11730
802.443115,11499
802.562073,11827
802.680969,11739
802.799927,11670
802.918762,11728
803.037659,11492
803.156677,11396
803.275574,11495
803.39447,11612
803.513428,11250
803.632263,11475
803.751221,11496
803.870117,11550
803.989014,11589
804.107971,11665
804.226746,11703
804.345642,11918
804.4646,11972
804.583496,11988
804.702393,12181
804.821228,12208
804.940125,12347
805.059021,12419
805.177917,12233
805.296814,12204
805.415649,12515
805.534546,12421
805.653442,12246
805.772278,12423
805.891113,12565
806.01001,12759
806.128906,12647
806.247742,12625
806.366577,12408
806.485413,12634
806.604309,12635
806.723145,12788
806.84198,12509
806.960876,12661
807.079712,12501
807.198486,12539
807.317383,12452
807.436218,12285
807.554993,12201
807.673889,12364
807.792725,12136
807.91156,12327
808.030396,12170
808.14917,12377
808.268005,12263
808.386841,12177
808.505676,12658
808.624451,12705
808.743286,12547
808.862122,12350
808.980896,12234
809.099731,12092
809.218506,12276
809.337341,12302
809.456116,12388
809.57489,12208
809.693726,12247
809.8125,12223
809.931274,12222
810.050049,12183
810.168884,12129
810.287659,12272
810.406372,11942
810.525269,11845
810.643982,11955
810.762756,11595
810.881531,11519
811.000305,11474
811.11908,11745
811.237854,11722
811.356567,11593
811.475403,11759
811.594116,11470
811.71283,11379
811.831604,11713
811.950378,11816
812.069153,11682
812.187927,11712
812.30658,11809
812.425415,11787
812.544128,11608
812.662781,11768
812.781616,11753
812.900269,11597
813.019043,11686
813.137756,11661
813.256531,11599
813.375244,11882
813.493896,11848
813.612671,11742
813.731384,11908
813.850037,11866
813.96875,11780
814.087524,11613
814.206238,11571
814.324951,11256
814.443604,11507
814.562256,11685
814.68103,11679
814.799683,11890
814.918335,11911
815.037109,12032
815.155762,12334
815.274475,12361
815.393188,12115
815.511841,11961
815.630554,12056
815.749146,12061
815.867859,12291
815.986572,12270
816.105164,12433
816.223877,12068
816.342529,12351
816.461182,12641
816.579895,12685
816.698486,12571
816.817139,12590
816.935791,12539
817.054504,12461
817.173096,12557
817.291748,12474
817.4104,12530
817.529053,12340
817.647644,12553
817.766235,12331
817.884949,12346
818.00354,12496
818.122192,12534
818.240845,12454
818.359436,12728
818.478088,12741
818.59668,12817
818.715271,12714
818.833923,12615
818.952515,12430
819.071106,12518
819.189758,12491
819.30835,12712
819.426941,12185
819.545532,12324
819.664124,12400
819.782715,12313
819.901306,12338
820.019897,12568
820.138489,12457
820.25708,12311
820.375671,12496
820.494202,12306
820.612732,12301
820.731384,12237
820.849915,12362
820.968506,12231
821.087097,12446
821.205627,12553
821.324158,12686
821.442749,12398
821.561279,12487
821.679871,12486
821.798401,12592
821.916931,12537
822.035461,12301
822.154053,12203
822.272583,12015
822.391174,12065
822.509583,12038
822.628174,12008
822.746704,11993
822.865234,12125
822.983765,12235
823.102295,12245
823.220825,12367
823.339294,12188
823.457825,11784
823.576355,11924
823.694824,12031
823.813354,12318
823.931885,12277
824.050354,12023
824.168884,12397
824.287354,12252
824.405823,12329
824.524353,12382
824.642822,12138
824.761353,12170
824.879822,12177
824.998291,12530
825.116699,12576
825.235291,12736
825.353699,12746
825.472168,12729
825.590637,12635
825.709106,12775
825.827576,12807
825.946045,12819
826.064453,12776
826.182983,12661
826.301392,12439
826.4198,12402
826.53833,12315
826.656738,12323
826.775208,12495
826.893677,12573
827.012024,12389
827.130493,12296
827.248962,12246
827.36731,12376
827.485779,11958
827.604248,11917
827.722595,11825
827.841064,11739
827.959412,11736
828.077942,11956
828.196289,12084
828.314636,12113
828.433105,12089
828.551514,12125
828.669861,12174
828.78833,11934
828.906677,12087
829.025085,12224
829.143433,12182
829.261841,12435
829.38031,12135
829.498657,11831
829.617004,11951
829.735413,12114
829.85376,12075
829.972107,12054
830.090515,12230
830.208862,12048
830.327209,11840
830.445557,11885
830.563904,11555
830.682312,11843
830.800659,11826
830.919006,11614
831.037354,11563
831.155701,11356
831.274048,11715
831.392395,11616
831.51062,11476
831.629028,11229
831.747314,11429
831.865662,11490
831.984009,11464
832.102356,11575
832.220642,11567
832.338928,11559
832.457275,11713
832.575623,11703
832.693909,11823
832.812134,12047
832.930481,12000
833.048828,11973
833.167114,11951
833.2854,12321
833.403687,12207
833.521973,12272
833.640259,12390
833.758545,12521
833.876831,12535
833.995056,12409
834.113281,12432
834.231628,12411
834.349915,12454
834.468201,12575
834.586426,12475
834.704651,12291
834.822998,12345
834.941162,12643
835.059448,12428
835.177673,12681
835.295959,12567
835.414246,12361
835.53241,12537
835.650635,12408
835.768921,12377
835.887146,12350
836.005371,12255
836.123596,12156
836.241821,12231
836.360046,12321
836.478271,12303
836.596497,12336
836.714722,12405
836.832886,12320
836.95105,12391
837.069336,12150
837.1875,12216
837.305725,12141
837.423889,12198
837.542053,12240
837.660339,12233
837.778503,12322
837.896667,12324
838.014832,12593
838.132996,12573
838.25116,12430
838.369385,12226
838.487488,12050
838.605713,12058
838.723877,12121
838.84198,12138
838.960205,12100
839.078308,11974
839.196472,11986
839.314636,11789
839.4328,11868
839.550964,11820
839.669067,11641
839.787231,11998
839.905396,12026
840.023499,12001
840.141602,12026
840.259766,12091
840.377869,12192
840.495972,12039
840.614136,11949
840.732239,12003
840.850342,12335
840.968445,12321
841.086548,12202
841.204651,12301
841.322754,12152
841.440918,12157
841.55896,12122
841.677002,11941
841.795166,12008
841.913208,12175
842.031311,12077
842.149353,11972
842.267456,12133
842.385498,12204
842.503601,12476
842.621643,12559
842.739746,12871
842.857788,12723
842.97583,12785
843.093933,12681
843.211975,12849
843.330017,12555
843.44812,12603
843.566101,12746
843.684204,12663
843.802246,12778
843.920227,12652
844.038269,13058
844.156311,13029
844.274292,12987
844.392395,13164
844.510376,13059
844.628357,13351
844.74646,13234
844.864441,13119
844.982422,13129
845.100403,13285
845.218384,13326
845.336426,13150
845.454468,13134
845.572449,13188
845.69043,13399
845.808411,13351
845.926453,13446
846.044373,13538
846.162354,13267
846.280396,13078
846.398315,13053
846.516296,13177
846.634216,13315
846.752197,13259
846.870178,13064
846.988098,13083
847.106079,12936
847.22406,12823
847.34198,13023
847.4599,12858
847.577881,13030
847.695801,12993
847.813782,12825
847.931641,12904
848.049561,12736
848.167603,12586
848.285461,12830
848.403381,12905
848.521362,13081
848.639221,12956
848.75708,13171
848.875,12943
848.99292,13094
849.110901,13342
849.22876,13306
849.34668,12964
849.464539,13232
849.582458,13023
849.700317,12880
849.818176,12875
849.936096,12823
850.053955,12804
850.171875,12588
850.289673,12785
850.407593,12829
850.525452,12709
850.643311,12443
850.761169,12768
850.878967,12768
850.996887,12679
851.114746,12703
851.232544,12946
851.350403,12700
851.468262,12614
851.58606,12813
851.703979,12912
851.821777,12464
851.939636,12583
852.057434,12988
852.175232,12995
852.293091,12916
852.410889,12797
852.528687,12766
852.646545,12840
852.764343,12741
852.88208,12916
852.999939,12851
853.117676,12873
853.235535,12737
853.353271,13035
853.471069,13115
853.588928,12895
853.706604,12968
853.824402,13073
853.9422,13177
854.059998,13235
854.177734,13141
854.295532,13402
854.413269,13528
854.531006,13762
854.648804,13855
854.766541,13453
854.884277,13321
855.002014,13293
855.119751,13640
855.237549,13595
855.355225,13657
855.473022,13571
855.590698,13173
855.708435,13586
855.826172,13354
855.943848,13258
856.061646,13423
856.179321,13459
856.296997,13370
856.414795,13180
856.53241,13149
856.650085,13159
856.767822,13230
856.885559,13244
857.003174,13366
857.120911,13522
857.238586,13399
857.356201,13274
857.473938,13312
857.591614,13497
857.709351,13178
857.826965,13424
857.944641,13507
858.062317,13888
858.179993,13708
858.297668,13343
858.415283,13387
858.532959,13291
858.650574,13277
858.768188,13402
858.885803,13614
859.003479,13202
859.121094,13283
859.23877,13411
859.356384,13389
859.473999,13332
859.591675,13319
859.709229,13224
859.826843,13711
859.944458,13285
860.062012,13246
860.179626,13311
860.297302,13013
860.414856,13280
860.532471,13117
860.650024,12986
860.767639,13185
860.885193,13110
861.002808,13249
861.120361,13140
861.237976,13048
861.35553,13445
861.473022,13453
861.590698,13317
861.708191,13170
861.825745,13234
861.943298,13260
862.060852,13195
862.178406,12716
862.295959,12907
862.413513,13278
862.531006,12787
862.64856,12750
862.766113,12748
862.883667,12796
863.00116,12698
863.118713,12571
863.236206,12661
863.353699,12730
863.471252,12772
863.588745,12574
863.706177,12828
863.82373,12715
863.941162,12659
864.058716,12609
864.176208,12920
864.29364,12884
864.411194,12774
864.528687,12896
864.646118,12619
864.763611,12932
864.881042,12931
864.998535,13069
865.116028,13100
865.233459,12888
865.350891,12905
865.468384,13024
865.585754,13377
865.703308,13350
865.820679,13298
865.938171,13186
866.055542,13195
866.173035,13216
866.290466,13246
866.407837,13565
866.52533,13578
866.6427,13763
866.760071,13942
866.877563,13938
866.994934,13838
867.112305,13591
867.229736,13613
867.347107,13914
867.464539,13732
867.58197,13762
867.699341,14047
867.81665,14203
867.934082,14102
868.051453,13938
868.168823,14129
868.286194,14345
868.403564,14224
868.520935,14271
868.638306,14410
868.755676,14263
868.872986,14284
868.990295,13988
869.107727,14209
869.225037,14115
869.342346,13970
869.459717,13882
869.577026,14061
869.694336,13763
869.811707,13719
869.929016,13634
870.046326,13914
870.163635,14166
870.280945,14015
870.398254,14221
870.515564,14113
870.632812,14043
870.750183,14025
870.867432,14247
870.984741,14069
871.102051,13898
871.219299,14251
871.336609,14420
871.453918,14082
871.571106,14099
871.688416,13907
871.805664,14017
871.922852,13798
872.040222,14020
872.157471,14023
872.274719,13808
872.391968,13473
872.509155,13436
872.626465,13655
872.743652,13893
872.860962,13989
872.978149,13709
873.095337,13844
873.212646,13926
873.329834,13694
873.44696,13716
873.564209,13918
873.681396,13497
873.798645,13123
873.915894,13255
874.03302,13077
874.150208,13316
874.267456,13001
874.384583,12886
874.501831,12726
874.618958,12809
874.736145,12764
874.853333,13004
874.970459,13002
875.087646,13096
875.204834,13074
875.32196,13039
875.439148,13060
875.556274,12884
875.673401,13211
875.790527,13152
875.907715,13232
876.024841,13182
876.141968,13358
876.259094,13138
876.376282,13154
876.493347,13455
876.610474,13564
876.7276,13470
876.844727,13549
876.961853,13598
877.078918,13657
877.195984,13802
877.313171,14080
877.430237,14191
877.547302,14172
877.664368,14007
877.781433,14080
877.898499,14332
878.015625,14102
878.13269,13927
878.249695,14055
878.366821,14087
878.483887,14170
878.600952,14290
878.717957,14069
878.834961,14045
878.952087,13921
879.069092,14410
879.186157,14372
879.303162,14250
879.420227,14017
879.537231,13865
879.654236,14149
879.77124,14033
879.888306,13692
880.005249,13691
880.122314,13923
880.239319,13773
880.356323,13654
880.473328,13753
880.590271,13727
880.707275,13573
880.824341,13404
880.941284,13425
881.058228,13366
881.175232,13460
881.292236,13405
881.40918,13369
881.526123,13753
881.643066,13311
881.760071,13182
881.877014,13176
881.993958,13302
882.11084,13558
882.227783,13295
882.344727,13448
882.46167,13201
882.578613,13107
882.695618,13010
882.812439,13045
882.929382,13291
883.046326,12853
883.163208,12903
883.280151,13100
883.397034,13232
883.513916,12892
883.630798,13111
883.747742,13044
883.864563,13241
883.981506,12983
884.098389,13090
884.21521,12939
884.332153,13227
884.448975,13081
884.565796,12783
884.682678,12823
884.7995,12881
884.916443,12980
885.033264,12839
885.150085,12682
885.266968,12480
885.383789,12654
885.500671,12437
885.617493,12685
885.734314,12625
885.851196,12796
885.967896,12405
886.084717,12964
886.201599,12798
886.318359,12633
886.435181,12682
886.552002,12714
886.668762,13049
886.785645,12804
886.902344,12623
887.019165,12735
887.135925,12901
887.252747,12554
887.369446,12510
887.486267,12725
887.603027,12283
887.719788,12124
887.836548,12393
887.953247,12765
888.070068,12855
888.186829,12510
888.303528,12613
888.420288,12738
888.536987,12940
888.653687,12687
888.770447,12818
888.887146,13021
889.003967,13091
889.120667,12966
889.237305,12890
889.354065,12756
889.470703,12768
889.587463,12766
889.704163,12774
889.820862,12839
889.937561,12774
890.054199,12670
890.170837,12861
890.287598,13209
890.404236,13153
890.520874,12835
890.637634,13094
890.754211,13160
890.87085,12993
890.987549,13096
891.104187,13278
891.220886,13296
891.337463,13271
891.454102,13304
891.57074,13310
891.687378,13129
891.804077,13096
891.920654,12997
892.037231,12852
892.15387,13251
892.270447,13087
892.387085,12777
892.503723,12978
892.6203,13115
892.736877,13200
892.853516,13199
892.970032,12953
893.08667,13242
893.203186,13155
893.319763,12977
893.43634,13010
893.552917,13364
893.669556,13185
893.786011,13001
893.902588,12744
894.019165,12846
894.135681,13164
894.252197,12952
894.368835,12636
894.485291,12497
894.601868,12434
894.718384,12401
894.8349,12495
894.951355,12658
895.067932,12602
895.184448,12570
895.300964,12924
895.417419,13106
895.533936,13196
895.650452,13114
895.766907,12976
895.883423,13442
895.999878,13138
896.116333,13230
896.232849,12866
896.349304,12716
896.465759,12885
896.582214,13010
896.698669,12789
896.815125,12755
896.931641,12979
897.048035,12993
897.164551,13015
897.280884,13067
897.397339,13123
897.513794,13170
897.630249,13199
897.746582,13264
897.863098,13314
897.979431,13118
898.095886,12991
898.212341,13103
898.328674,12985
898.445129,13084
898.561462,12762
898.677795,12910
898.794312,12648
898.910645,12741
899.026978,12585
899.143433,12564
899.259766,12589
899.37616,12716
899.492493,12566
899.608765,12731
899.725159,12899
899.841553,12813
899.957947,13123
900.07428,12792
900.190552,12748
900.306946,12569
900.423157,12493
900.53949,12818
900.655884,12952
900.772156,12711
900.888489,12520
901.004822,12447
901.121033,12349
901.237366,12398
901.353699,11980
901.46991,12239
901.586304,12170
901.702515,12261
901.818787,12087
901.93512,12048
902.051331,12369
902.167603,12347
902.283875,12187
902.400085,12519
902.516418,12521
902.632629,12878
902.74884,13131
902.865112,13101
902.981384,13373
903.097595,13239
903.213867,13623
903.330017,13367
903.446289,13437
903.5625,13450
903.67865,13350
903.794922,13487
903.911072,13422
904.027344,13365
904.143494,13385
904.259705,13445
904.375916,12934
904.492065,13034
904.608215,13177
904.724426,13226
904.840576,12883
904.956726,13069
905.072876,12918
905.189087,13310
905.305176,12708
905.421387,13086
905.537537,13419
905.653687,13449
905.769775,13249
905.885925,12886
906.002014,12985
906.118164,12606
906.234314,12317
906.350403,12291
906.466492,12330
906.582642,12580
906.69873,12285
906.814758,12309
906.930908,12470
907.046936,12253
907.163086,12260
907.279175,12114
907.395264,12442
907.511353,12540
907.62738,12676
907.743408,12634
907.859497,12760
907.975525,12794
908.091553,13086
908.207703,12538
908.32373,12636
908.439758,12509
908.555786,12441
908.671814,12248
908.787842,12117
908.90387,12051
909.019775,12107
909.135864,12142
909.251892,12016
909.367859,12133
909.483826,12651
909.599854,12272
909.715881,12371
909.831848,12439
909.947815,12407
910.063782,12543
910.179749,12467
910.295776,12600
910.411743,12637
910.527649,12524
910.643616,12375
910.759583,12328
910.875488,12337
910.991455,12034
911.107361,12123
911.223267,12245
911.339294,12278
911.4552,12166
911.571106,11934
911.687073,12123
911.802979,12322
911.918823,12071
912.034729,11824
912.150635,11910
912.266602,12170
912.382446,12085
912.498352,12069
912.614197,11911
912.730103,12381
912.846008,12264
792.44574,11979
792.56488,12029
792.68396,12101
792.80304,11906
792.92218,11907
793.041199,11833
793.160339,11991
793.279419,11879
793.398499,12002
793.517578,12147
793.636658,12337
793.755737,12228
793.874817,12295
793.993896,12477
794.112976,12419
794.232056,12444
794.351074,12373
794.470215,12050
794.589233,11744
794.708313,11721
794.827393,12048
794.946411,11786
795.065552,11773
795.18457,12189
795.303589,12140
795.422668,12063
795.541687,12156
795.660767,11993
795.779846,11925
795.898865,12032
796.017883,11911
796.136963,11963
796.255981,11745
796.375061,11852
796.49408,11827
796.613037,11718
796.732117,11988
796.851135,11818
796.970154,11756
797.089233,11658
797.208191,11495
797.327271,11507
797.446228,11691
797.565186,11583
797.684265,11665
797.803223,11566
797.922241,11620
798.04126,11714
798.160278,11723
798.279297,11686
798.398315,11690
798.517273,11670
798.636292,11723
798.75531,11502
798.874268,11566
798.993286,11605
799.112244,11598
799.231323,11532
799.350281,11739
799.469238,11601
799.588257,11518
799.707153,11450
799.826111,11677
799.945129,11757
800.064087,11700
800.183044,11708
800.302063,11630
800.421021,11717
800.539978,11795
800.658936,11833
800.777893,11774
800.896912,11732
801.015747,11609
801.134705,11808
801.253723,11697
801.37262,11660
801.491638,11492
801.610535,11600
801.729492,11424
801.84845,11491
801.967407,11629
802.086243,11623
802.205261,11578
802.324158,11758
802.443115,11535
802.562073,11843
802.680969,11812
802.799927,11579
802.918762,11625
803.037659,11346
803.156677,11494
803.275574,11476
803.39447,11533
803.513428,11396
803.632263,11436
803.751221,11419
803.870117,11691
803.989014,11597
804.107971,11885
804.226746,11636
804.345642,11983
804.4646,12001
804.583496,12007
804.702393,12185
804.821228,12134
804.940125,12446
805.059021,12356
805.177917,12352
805.296814,12242
805.415649,12389
805.534546,12471
805.653442,12622
805.772278,12414
805.891113,12520
806.01001,12796
806.128906,12759
806.247742,12613
806.366577,12633
806.485413,12771
806.604309,12711
806.723145,12698
806.84198,12645
806.960876,12480
807.079712,12662
807.198486,12487
807.317383,12324
807.436218,12325
807.554993,12185
807.673889,12249
807.792725,12186
807.91156,12198
808.030396,12262
808.14917,12425
808.268005,12357
808.386841,12123
808.505676,12601
808.624451,12701
808.743286,12564
808.862122,12393
808.980896,12294
809.099731,12010
809.218506,12283
809.337341,12189
809.456116,12487
809.57489,12228
809.693726,12268
809.8125,12333
809.931274,12338
810.050049,12118
810.168884,12346
810.287659,12145
810.406372,11841
810.525269,11836
810.643982,11817
810.762756,11687
810.881531,11535
811.000305,11576
811.11908,11710
811.237854,11648
811.356567,11580
811.475403,11813
811.594116,11555
811.71283,11438
811.831604,11665
811.950378,11829
812.069153,11604
812.187927,11696
812.30658,11854
812.425415,11866
812.544128,11768
812.662781,11710
812.781616,11833
812.900269,11630
813.019043,11718
813.137756,11736
813.256531,11581
813.375244,11778
813.493896,11831
813.612671,11607
813.731384,11835
813.850037,11795
813.96875,11682
814.087524,11807
814.206238,11613
814.324951,11356
814.443604,11520
814.562256,11668
814.68103,11649
814.799683,11881
814.918335,11991
815.037109,12153
815.155762,12377
815.274475,12267
815.393188,12093
815.511841,11963
815.630554,12042
815.749146,12099
815.867859,12193
815.986572,12256
816.105164,12204
816.223877,12195
816.342529,12262
816.461182,12734
816.579895,12754
816.698486,12520
816.817139,12540
816.935791,12493
817.054504,12459
817.173096,12480
817.291748,12618
817.4104,12504
817.529053,12453
817.647644,12567
817.766235,12502
817.884949,12437
818.00354,12343
818.122192,12530
818.240845,12413
818.359436,12669
818.478088,12722
818.59668,12720
818.715271,12660
818.833923,12593
818.952515,12599
819.071106,12565
819.189758,12585
819.30835,12718
819.426941,12390
819.545532,12356
819.664124,12471
819.782715,12263
819.901306,12380
820.019897,12571
820.138489,12232
820.25708,12396
820.375671,12473
820.494202,12357
820.612732,12271
820.731384,12253
820.849915,12255
820.968506,12369
821.087097,12357
821.205627,12615
821.324158,12751
821.442749,12501
821.561279,12358
821.679871,12542
821.798401,12508
821.916931,12600
822.035461,12319
822.154053,12064
822.272583,12198
822.391174,12066
822.509583,12043
822.628174,12050
822.746704,12076
822.865234,12197
822.983765,12284
823.102295,12314
823.220825,12273
823.339294,12177
823.457825,11828
823.576355,11849
823.694824,12148
823.813354,12378
823.931885,12235
824.050354,12212
824.168884,12170
824.287354,12281
824.405823,12449
824.524353,12324
824.642822,12072
824.761353,12112
824.879822,12211
824.998291,12561
825.116699,12499
825.235291,12698
825.353699,12735
825.472168,12741
825.590637,12727
825.709106,12909
825.827576,12938
825.946045,12793
826.064453,12642
826.182983,12755
826.301392,12448
826.4198,12469
826.53833,12363
826.656738,12213
826.775208,12545
826.893677,12621
827.012024,12498
827.130493,12183
827.248962,12224
827.36731,12404
827.485779,11906
827.604248,12138
827.722595,11813
827.841064,11734
827.959412,11657
828.077942,11940
828.196289,12003
828.314636,12269
828.433105,12128
828.551514,12073
828.669861,12245
828.78833,11928
828.906677,12030
829.025085,12336
829.143433,12178
829.261841,12366
829.38031,12149
829.498657,11827
829.617004,12062
829.735413,12018
829.85376,12142
829.972107,11986
830.090515,12259
830.208862,12247
830.327209,11950
830.445557,11834
830.563904,11590
830.682312,11797
830.800659,11887
830.919006,11456
831.037354,11504
831.155701,11257
831.274048,11523
831.392395,11641
831.51062,11372
831.629028,11317
831.747314,11480
831.865662,11601
831.984009,11590
832.102356,11679
832.220642,11486
832.338928,11435
832.457275,11715
832.575623,11696
832.693909,11721
832.812134,11962
832.930481,11904
833.048828,11718
833.167114,11959
833.2854,12328
833.403687,12224
833.521973,12331
833.640259,12396
833.758545,12517
833.876831,12637
833.995056,12366
834.113281,12439
834.231628,12399
834.349915,12474
834.468201,12541
834.586426,12500
834.704651,12349
834.822998,12294
834.941162,12593
835.059448,12448
835.177673,12600
835.295959,12511
835.414246,12443
835.53241,12521
835.650635,12438
835.768921,12259
835.887146,12295
836.005371,12107
836.123596,12137
836.241821,12206
836.360046,12166
836.478271,12269
836.596497,12350
836.714722,12407
836.832886,12258
836.95105,12410
837.069336,12326
837.1875,12247
837.305725,12147
837.423889,12248
837.542053,12295
837.660339,12319
837.778503,12166
837.896667,12433
838.014832,12505
838.132996,12713
838.25116,12422
838.369385,12064
838.487488,12136
838.605713,12071
838.723877,12174
838.84198,12182
838.960205,11983
839.078308,12070
839.196472,11953
839.314636,11869
839.4328,11769
839.550964,11887
839.669067,11655
839.787231,11983
839.905396,12059
840.023499,12002
840.141602,11979
840.259766,12211
840.377869,12241
840.495972,11907
840.614136,11844
840.732239,11976
840.850342,12198
840.968445,12204
841.086548,12114
841.204651,12334
841.322754,12114
841.440918,12170
841.55896,12032
841.677002,11906
841.795166,12078
841.913208,12300
842.031311,12125
842.149353,11986
842.267456,12110
842.385498,12281
842.503601,12496
842.621643,12590
842.739746,12852
842.857788,12738
842.97583,12680
843.093933,12671
843.211975,12738
843.330017,12483
843.44812,12731
843.566101,12738
843.684204,12737
843.802246,12842
843.920227,12696
844.038269,12975
844.156311,13017
844.274292,13104
844.392395,12906
844.510376,13167
844.628357,13396
844.74646,13309
844.864441,13170
844.982422,13243
845.100403,13061
845.218384,13375
845.336426,13244
845.454468,13307
845.572449,13137
845.69043,13621
845.808411,13309
845.926453,13694
846.044373,13502
846.162354,13316
846.280396,13137
846.398315,13086
846.516296,13215
846.634216,13342
846.752197,13267
846.870178,12983
846.988098,13049
847.106079,12902
847.22406,12834
847.34198,12886
847.4599,12758
847.577881,12898
847.695801,12999
847.813782,12875
847.931641,12728
848.049561,12679
848.167603,12681
848.285461,12997
848.403381,12828
848.521362,12978
848.639221,12975
848.75708,13012
848.875,13030
848.99292,13175
849.110901,13266
849.22876,13379
849.34668,13065
849.464539,13164
849.582458,13035
849.700317,13035
849.818176,12933
849.936096,12718
850.053955,12877
850.171875,12652
850.289673,12785
850.407593,12764
850.525452,12681
850.643311,12624
850.761169,12767
850.878967,12831
850.996887,12634
851.114746,12809
851.232544,12968
851.350403,12781
851.468262,12492
851.58606,12726
851.703979,12823
851.821777,12556
851.939636,12732
852.057434,12863
852.175232,13112
852.293091,12912
852.410889,12797
852.528687,12908
852.646545,12916
852.764343,12852
852.88208,12926
852.999939,12915
853.117676,12903
853.235535,12837
853.353271,12963
853.471069,12917
853.588928,12854
853.706604,12909
853.824402,12944
853.9422,13111
854.059998,13284
854.177734,13290
854.295532,13353
854.413269,13614
854.531006,13811
854.648804,13824
854.766541,13476
854.884277,13300
855.002014,13406
855.119751,13621
855.237549,13570
855.355225,13641
855.473022,13791
855.590698,13346
855.708435,13474
855.826172,13372
855.943848,13292
856.061646,13428
856.179321,13344
856.296997,13414
856.414795,13238
856.53241,13222
856.650085,13061
856.767822,13146
856.885559,13280
857.003174,13249
857.120911,13493
857.238586,13266
857.356201,13249
857.473938,13518
857.591614,13440
857.709351,13158
857.826965,13341
857.944641,13425
858.062317,13784
858.179993,13704
858.297668,13304
858.415283,13570
858.532959,13315
858.650574,13231
858.768188,13326
858.885803,13563
859.003479,13131
859.121094,13139
859.23877,13324
859.356384,13386
859.473999,13330
859.591675,13173
859.709229,13338
859.826843,13823
859.944458,13241
860.062012,13177
860.179626,13314
860.297302,13238
860.414856,13274
860.532471,13011
860.650024,13029
860.767639,13222
860.885193,13187
861.002808,13157
861.120361,13222
861.237976,13017
861.35553,13456
861.473022,13647
861.590698,13302
861.708191,13182
861.825745,13147
861.943298,13283
862.060852,13133
862.178406,12678
862.295959,12835
862.413513,13215
862.531006,12766
862.64856,12758
862.766113,12744
862.883667,12719
863.00116,12653
863.118713,12418
863.236206,12709
863.353699,12743
863.471252,12667
863.588745,12479
863.706177,12798
863.82373,12669
863.941162,12587
864.058716,12648
864.176208,13020
864.29364,12722
864.411194,12898
864.528687,12818
864.646118,12753
864.763611,12841
864.881042,12906
864.998535,12988
865.116028,13198
865.233459,12807
865.350891,12956
865.468384,12959
865.585754,13287
865.703308,13414
865.820679,13281
865.938171,13285
866.055542,13319
866.173035,13049
866.290466,13119
866.407837,13547
866.52533,13480
866.6427,13724
866.760071,13940
866.877563,13899
866.994934,13906
867.112305,13509
867.229736,13588
867.347107,13731
867.464539,13764
867.58197,13892
867.699341,14166
867.81665,14042
867.934082,14216
868.051453,14087
868.168823,14222
868.286194,14485
868.403564,14412
868.520935,14271
868.638306,14326
868.755676,14325
868.872986,14294
868.990295,14113
869.107727,14090
869.225037,14219
869.342346,13723
869.459717,13913
869.577026,14103
869.694336,13808
869.811707,13729
869.929016,13739
870.046326,13955
870.163635,14090
870.280945,13999
870.398254,14027
870.515564,14107
870.632812,13905
870.750183,13894
870.867432,14277
870.984741,14008
871.102051,13954
871.219299,14320
871.336609,14592
871.453918,14091
871.571106,13866
871.688416,13991
871.805664,13901
871.922852,13818
872.040222,13776
872.157471,14101
872.274719,13800
872.391968,13688
872.509155,13463
872.626465,13579
872.743652,13881
872.860962,13997
872.978149,13768
873.095337,13890
873.212646,13975
873.329834,13666
873.44696,13837
873.564209,13992
873.681396,13414
873.798645,13092
873.915894,13221
874.03302,13123
874.150208,13312
874.267456,12929
874.384583,12874
874.501831,12732
874.618958,12862
874.736145,12786
874.853333,13076
874.970459,13086
875.087646,13210
875.204834,13083
875.32196,12995
875.439148,13033
875.556274,12998
875.673401,13112
875.790527,13167
875.907715,13128
876.024841,13092
876.141968,13300
876.259094,13334
876.376282,13005
876.493347,13326
876.610474,13461
876.7276,13532
876.844727,13710
876.961853,13742
877.078918,13687
877.195984,13844
877.313171,14037
877.430237,14081
877.547302,14164
877.664368,13991
877.781433,14193
877.898499,14287
878.015625,13951
878.13269,14008
878.249695,14079
878.366821,14139
878.483887,14167
878.600952,14202
878.717957,14038
878.834961,14000
878.952087,13934
879.069092,14465
879.186157,14326
879.303162,14191
879.420227,14037
879.537231,14042
879.654236,14201
879.77124,13906
879.888306,13892
880.005249,13575
880.122314,13861
880.239319,13713
880.356323,13539
880.473328,13774
880.590271,13823
880.707275,13601
880.824341,13325
880.941284,13485
881.058228,13432
881.175232,13345
881.292236,13400
881.40918,13317
881.526123,13666
881.643066,13538
881.760071,13113
881.877014,13227
881.993958,13412
882.11084,13440
882.227783,13234
882.344727,13311
882.46167,13268
882.578613,13030
882.695618,13043
882.812439,12899
882.929382,13287
883.046326,13064
883.163208,12957
883.280151,12947
883.397034,13278
883.513916,12723
883.630798,13025
883.747742,13096
883.864563,13317
883.981506,13021
884.098389,12994
884.21521,12912
884.332153,13192
884.448975,13001
884.565796,12850
884.682678,12840
884.7995,12814
884.916443,12830
885.033264,12515
885.150085,12825
885.266968,12474
885.383789,12672
885.500671,12468
885.617493,12722
885.734314,12607
885.851196,12687
885.967896,12653
886.084717,13072
886.201599,12761
886.318359,12646
886.435181,12448
886.552002,12881
886.668762,13175
886.785645,12703
886.902344,12869
887.019165,12634
887.135925,12841
887.252747,12749
887.369446,12513
887.486267,12685
887.603027,12350
887.719788,12218
887.836548,12386
887.953247,12703
888.070068,12853
888.186829,12472
888.303528,12538
888.420288,12832
888.536987,12809
888.653687,12726
888.770447,12807
888.887146,13109
889.003967,13164
889.120667,12960
889.237305,12786
889.354065,12800
889.470703,12772
889.587463,12849
889.704163,12797
889.820862,12803
889.937561,12872
890.054199,12589
890.170837,12855
890.287598,13131
890.404236,13097
890.520874,12776
890.637634,12939
890.754211,13172
890.87085,13050
890.987549,13051
891.104187,13237
891.220886,13222
891.337463,13332
891.454102,13237
891.57074,13089
891.687378,13233
891.804077,13016
891.920654,12994
892.037231,12782
892.15387,13161
892.270447,13210
892.387085,12737
892.503723,12991
892.6203,13085
892.736877,13104
892.853516,13081
892.970032,12916
893.08667,13222
893.203186,13005
893.319763,13129
893.43634,13004
893.552917,13389
893.669556,13348
893.786011,13014
893.902588,12697
894.019165,12894
894.135681,13023
894.252197,12913
894.368835,12554
894.485291,12556
894.601868,12518
894.718384,12353
894.8349,12498
894.951355,12692
895.067932,12658
895.184448,12574
895.300964,12830
895.417419,12976
895.533936,13329
895.650452,13194
895.766907,12866
895.883423,13260
895.999878,13064
896.116333,13070
896.232849,12856
896.349304,12620
896.465759,12835
896.582214,12846
896.698669,12615
896.815125,12840
896.931641,13053
897.048035,12940
897.164551,13097
897.280884,13239
897.397339,13277
897.513794,13218
897.630249,13158
897.746582,13149
897.863098,13355
897.979431,13027
898.095886,13022
898.212341,12964
898.328674,13167
898.445129,13205
898.561462,12717
898.677795,12909
898.794312,12718
898.910645,12589
899.026978,12509
899.143433,12573
899.259766,12619
899.37616,12715
899.492493,12602
899.608765,12560
899.725159,12980
899.841553,12814
899.957947,12777
900.07428,12872
900.190552,12831
900.306946,12539
900.423157,12454
900.53949,12674
900.655884,12861
900.772156,12721
900.888489,12527
901.004822,12529
901.121033,12485
901.237366,12144
901.353699,11995
901.46991,12245
901.586304,12250
901.702515,12238
901.818787,12136
901.93512,12003
902.051331,12285
902.167603,12463
902.283875,12199
902.400085,12614
902.516418,12682
902.632629,12948
902.74884,13117
902.865112,13084
902.981384,13348
903.097595,13326
903.213867,13436
903.330017,13406
903.446289,13354
903.5625,13449
903.67865,13195
903.794922,13255
903.911072,13278
904.027344,13533
904.143494,13427
904.259705,13489
904.375916,12922
904.492065,13131
904.608215,13029
904.724426,13143
904.840576,12808
904.956726,13110
905.072876,12887
905.189087,13093
905.305176,12660
905.421387,13077
905.537537,13472
905.653687,13270
905.769775,12991
905.885925,12937
906.002014,12850
906.118164,12589
906.234314,12327
906.350403,12337
906.466492,12431
906.582642,12527
906.69873,12311
906.814758,12353
906.930908,12435
907.046936,12352
907.163086,12234
907.279175,12211
907.395264,12387
907.511353,12434
907.62738,12641
907.743408,12626
907.859497,12759
907.975525,12750
908.091553,13052
908.207703,12754
908.32373,12568
908.439758,12368
908.555786,12557
908.671814,12272
908.787842,12335
908.90387,12119
909.019775,12254
909.135864,12155
909.251892,12023
909.367859,12094
909.483826,12446
909.599854,12274
909.715881,12334
909.831848,12592
909.947815,12624
910.063782,12471
910.179749,12520
910.295776,12545
910.411743,12574
910.527649,12509
910.643616,12450
910.759583,12366
910.875488,12333
910.991455,11942
911.107361,12040
911.223267,12247
911.339294,12225
911.4552,12048
911.571106,11854
911.687073,12125
911.802979,12346
911.918823,12005
912.034729,11853
912.150635,11973
912.266602,12158
912.382446,12088
912.498352,11932
912.614197,12052
912.730103,12259
912.846008,12315
