792.44574,332
792.56488,357
792.68396,425
792.80304,393
792.92218,335
793.041199,323
793.160339,330
793.279419,340
793.398499,340
793.517578,328
793.636658,319
793.755737,346
793.874817,366
793.993896,344
794.112976,350
794.232056,329
794.351074,335
794.470215,327
794.589233,334
794.708313,320
794.827393,331
794.946411,323
795.065552,341
795.18457,334
795.303589,341
795.422668,320
795.541687,328
795.660767,340
795.779846,344
795.898865,336
796.017883,336
796.136963,336
796.255981,336
796.375061,334
796.49408,326
796.613037,333
796.732117,337
796.851135,338
796.970154,337
797.089233,331
797.208191,334
797.327271,329
797.446228,326
797.565186,336
797.684265,344
797.803223,329
797.922241,323
798.04126,331
798.160278,326
798.279297,330
798.398315,325
798.517273,342
798.636292,344
798.75531,331
798.874268,342
798.993286,339
799.112244,331
799.231323,340
799.350281,325
799.469238,343
799.588257,320
799.707153,343
799.826111,334
799.945129,333
800.064087,338
800.183044,335
800.302063,337
800.421021,327
800.539978,338
800.658936,335
800.777893,329
800.896912,343
801.015747,320
801.134705,331
801.253723,330
801.37262,336
801.491638,350
801.610535,329
801.729492,329
801.84845,309
801.967407,347
802.086243,326
802.205261,327
802.324158,327
802.443115,338
802.562073,330
802.680969,357
802.799927,334
802.918762,333
803.037659,337
803.156677,332
803.275574,331
803.39447,338
803.513428,330
803.632263,337
803.751221,340
803.870117,327
803.989014,325
804.107971,334
804.226746,330
804.345642,328
804.4646,321
804.583496,336
804.702393,321
804.821228,328
804.940125,342
805.059021,333
805.177917,346
805.296814,333
805.415649,330
805.534546,327
805.653442,333
805.772278,325
805.891113,313
806.01001,340
806.128906,326
806.247742,332
806.366577,336
806.485413,327
806.604309,336
806.723145,331
806.84198,343
806.960876,328
807.079712,312
807.198486,332
807.317383,340
807.436218,331
807.554993,342
807.673889,346
807.792725,325
807.91156,325
808.030396,330
808.14917,346
808.268005,340
808.386841,341
808.505676,331
808.624451,324
808.743286,328
808.862122,328
808.980896,326
809.099731,317
809.218506,347
809.337341,336
809.456116,349
809.57489,332
809.693726,337
809.8125,321
809.931274,344
810.050049,343
810.168884,330
810.287659,329
810.406372,328
810.525269,338
810.643982,332
810.762756,332
810.881531,339
811.000305,336
811.11908,331
811.237854,339
811.356567,327
811.475403,319
811.594116,338
811.71283,334
811.831604,336
811.950378,324
812.069153,329
812.187927,326
812.30658,330
812.425415,316
812.544128,338
812.662781,322
812.781616,341
812.900269,334
813.019043,329
813.137756,331
813.256531,331
813.375244,341
813.493896,333
813.612671,335
813.731384,333
813.850037,333
813.96875,330
814.087524,319
814.206238,339
814.324951,325
814.443604,320
814.562256,321
814.68103,329
814.799683,336
814.918335,340
815.037109,328
815.155762,335
815.274475,340
815.393188,347
815.511841,339
815.630554,324
815.749146,325
815.867859,335
815.986572,340
816.105164,333
816.223877,329
816.342529,332
816.461182,320
816.579895,337
816.698486,331
816.817139,326
816.935791,334
817.054504,335
817.173096,325
817.291748,341
817.4104,328
817.529053,345
817.647644,324
817.766235,337
817.884949,336
818.00354,327
818.122192,331
818.240845,316
818.359436,322
818.478088,322
818.59668,333
818.715271,330
818.833923,323
818.952515,327
819.071106,327
819.189758,320
819.30835,324
819.426941,329
819.545532,317
819.664124,318
819.782715,318
819.901306,326
820.019897,322
820.138489,334
820.25708,319
820.375671,316
820.494202,319
820.612732,313
820.731384,325
820.849915,316
820.968506,327
821.087097,327
821.205627,317
821.324158,323
821.442749,331
821.561279,325
821.679871,329
821.798401,322
821.916931,321
822.035461,317
822.154053,333
822.272583,315
822.391174,327
822.509583,327
822.628174,331
822.746704,330
822.865234,330
822.983765,321
823.102295,318
823.220825,320
823.339294,308
823.457825,320
823.576355,313
823.694824,325
823.813354,337
823.931885,319
824.050354,329
824.168884,324
824.287354,320
824.405823,327
824.524353,323
824.642822,317
824.761353,320
824.879822,314
824.998291,316
825.116699,320
825.235291,324
825.353699,333
825.472168,318
825.590637,325
825.709106,321
825.827576,316
825.946045,336
826.064453,325
826.182983,327
826.301392,320
826.4198,323
826.53833,305
826.656738,326
826.775208,318
826.893677,324
827.012024,318
827.130493,318
827.248962,316
827.36731,319
827.485779,321
827.604248,316
827.722595,316
827.841064,333
827.959412,314
828.077942,335
828.196289,322
828.314636,334
828.433105,311
828.551514,320
828.669861,321
828.78833,313
828.906677,325
829.025085,318
829.143433,324
829.261841,308
829.38031,313
829.498657,311
829.617004,318
829.735413,317
829.85376,320
829.972107,324
830.090515,312
830.208862,324
830.327209,319
830.445557,322
830.563904,334
830.682312,319
830.800659,328
830.919006,321
831.037354,307
831.155701,331
831.274048,312
831.392395,308
831.51062,330
831.629028,309
831.747314,330
831.865662,313
831.984009,340
832.102356,309
832.220642,317
832.338928,328
832.457275,307
832.575623,327
832.693909,315
832.812134,333
832.930481,328
833.048828,324
833.167114,317
833.2854,315
833.403687,319
833.521973,319
833.640259,321
833.758545,330
833.876831,304
833.995056,318
834.113281,319
834.231628,318
834.349915,329
834.468201,311
834.586426,303
834.704651,338
834.822998,305
834.941162,319
835.059448,313
835.177673,315
835.295959,320
835.414246,329
835.53241,316
835.650635,332
835.768921,326
835.887146,330
836.005371,319
836.123596,299
836.241821,310
836.360046,332
836.478271,315
836.596497,308
836.714722,319
836.832886,335
836.95105,317
837.069336,319
837.1875,314
837.305725,326
837.423889,325
837.542053,335
837.660339,319
837.778503,313
837.896667,315
838.014832,315
838.132996,317
838.25116,308
838.369385,325
838.487488,326
838.605713,321
838.723877,317
838.84198,316
838.960205,318
839.078308,324
839.196472,326
839.314636,333
839.4328,325
839.550964,322
839.669067,318
839.787231,334
839.905396,319
840.023499,324
840.141602,319
840.259766,328
840.377869,315
840.495972,308
840.614136,320
840.732239,322
840.850342,323
840.968445,330
841.086548,324
841.204651,323
841.322754,315
841.440918,335
841.55896,325
841.677002,314
841.795166,314
841.913208,322
842.031311,313
842.149353,320
842.267456,324
842.385498,311
842.503601,318
842.621643,311
842.739746,315
842.857788,314
842.97583,322
843.093933,327
843.211975,321
843.330017,314
843.44812,322
843.566101,315
843.684204,326
843.802246,321
843.920227,316
844.038269,325
844.156311,336
844.274292,317
844.392395,313
844.510376,326
844.628357,317
844.74646,326
844.864441,322
844.982422,322
845.100403,329
845.218384,313
845.336426,309
845.454468,318
845.572449,326
845.69043,321
845.808411,301
845.926453,319
846.044373,308
846.162354,315
846.280396,312
846.398315,311
846.516296,314
846.634216,325
846.752197,310
846.870178,318
846.988098,314
847.106079,321
847.22406,309
847.34198,333
847.4599,317
847.577881,311
847.695801,322
847.813782,313
847.931641,305
848.049561,315
848.167603,326
848.285461,302
848.403381,318
848.521362,329
848.639221,315
848.75708,305
848.875,328
848.99292,315
849.110901,318
849.22876,313
849.34668,309
849.464539,316
849.582458,313
849.700317,318
849.818176,316
849.936096,319
850.053955,319
850.171875,306
850.289673,322
850.407593,323
850.525452,317
850.643311,319
850.761169,320
850.878967,310
850.996887,319
851.114746,316
851.232544,302
851.350403,314
851.468262,328
851.58606,320
851.703979,307
851.821777,319
851.939636,310
852.057434,315
852.175232,314
852.293091,325
852.410889,321
852.528687,317
852.646545,326
852.764343,313
852.88208,321
852.999939,316
853.117676,310
853.235535,320
853.353271,303
853.471069,307
853.588928,327
853.706604,320
853.824402,326
853.9422,314
854.059998,317
854.177734,319
854.295532,302
854.413269,322
854.531006,311
854.648804,317
854.766541,325
854.884277,311
855.002014,320
855.119751,321
855.237549,319
855.355225,329
855.473022,311
855.590698,322
855.708435,315
855.826172,315
855.943848,326
856.061646,308
856.179321,316
856.296997,317
856.414795,313
856.53241,320
856.650085,319
856.767822,335
856.885559,331
857.003174,323
857.120911,319
857.238586,312
857.356201,313
857.473938,333
857.591614,304
857.709351,317
857.826965,325
857.944641,323
858.062317,321
858.179993,319
858.297668,315
858.415283,312
858.532959,331
858.650574,317
858.768188,300
858.885803,322
859.003479,316
859.121094,321
859.23877,319
859.356384,318
859.473999,328
859.591675,317
859.709229,313
859.826843,336
859.944458,304
860.062012,322
860.179626,326
860.297302,322
860.414856,321
860.532471,312
860.650024,308
860.767639,314
860.885193,322
861.002808,335
861.120361,325
861.237976,314
861.35553,319
861.473022,318
861.590698,323
861.708191,325
861.825745,316
861.943298,327
862.060852,304
862.178406,306
862.295959,334
862.413513,328
862.531006,324
862.64856,318
862.766113,319
862.883667,315
863.00116,322
863.118713,311
863.236206,308
863.353699,323
863.471252,320
863.588745,320
863.706177,313
863.82373,328
863.941162,330
864.058716,328
864.176208,316
864.29364,316
864.411194,318
864.528687,324
864.646118,307
864.763611,317
864.881042,319
864.998535,309
865.116028,319
865.233459,317
865.350891,318
865.468384,314
865.585754,319
865.703308,334
865.820679,320
865.938171,320
866.055542,319
866.173035,318
866.290466,321
866.407837,321
866.52533,313
866.6427,320
866.760071,310
866.877563,330
866.994934,310
867.112305,325
867.229736,326
867.347107,323
867.464539,330
867.58197,316
867.699341,318
867.81665,308
867.934082,320
868.051453,333
868.168823,317
868.286194,325
868.403564,313
868.520935,327
868.638306,321
868.755676,310
868.872986,317
868.990295,327
869.107727,316
869.225037,316
869.342346,315
869.459717,319
869.577026,316
869.694336,319
869.811707,316
869.929016,318
870.046326,316
870.163635,325
870.280945,317
870.398254,322
870.515564,316
870.632812,322
870.750183,328
870.867432,306
870.984741,318
871.102051,308
871.219299,314
871.336609,318
871.453918,315
871.571106,321
871.688416,312
871.805664,332
871.922852,304
872.040222,327
872.157471,324
872.274719,325
872.391968,321
872.509155,310
872.626465,326
872.743652,310
872.860962,326
872.978149,315
873.095337,320
873.212646,329
873.329834,321
873.44696,313
873.564209,319
873.681396,327
873.798645,311
873.915894,322
874.03302,321
874.150208,329
874.267456,311
874.384583,324
874.501831,310
874.618958,314
874.736145,313
874.853333,305
874.970459,321
875.087646,326
875.204834,317
875.32196,316
875.439148,313
875.556274,327
875.673401,322
875.790527,316
875.907715,330
876.024841,323
876.141968,300
876.259094,322
876.376282,312
876.493347,308
876.610474,308
876.7276,313
876.844727,314
876.961853,329
877.078918,309
877.195984,317
877.313171,319
877.430237,321
877.547302,315
877.664368,314
877.781433,312
877.898499,327
878.015625,317
878.13269,318
878.249695,317
878.366821,312
878.483887,315
878.600952,322
878.717957,310
878.834961,336
878.952087,314
879.069092,317
879.186157,282
879.303162,318
879.420227,317
879.537231,318
879.654236,324
879.77124,328
879.888306,310
880.005249,323
880.122314,320
880.239319,317
880.356323,312
880.473328,316
880.590271,299
880.707275,320
880.824341,309
880.941284,317
881.058228,313
881.175232,324
881.292236,324
881.40918,315
881.526123,317
881.643066,315
881.760071,321
881.877014,313
881.993958,309
882.11084,312
882.227783,321
882.344727,327
882.46167,306
882.578613,329
882.695618,320
882.812439,325
882.929382,319
883.046326,315
883.163208,318
883.280151,319
883.397034,313
883.513916,322
883.630798,313
883.747742,308
883.864563,313
883.981506,309
884.098389,303
884.21521,317
884.332153,308
884.448975,312
884.565796,302
884.682678,300
884.7995,319
884.916443,316
885.033264,320
885.150085,332
885.266968,319
885.383789,326
885.500671,313
885.617493,318
885.734314,298
885.851196,319
885.967896,320
886.084717,318
886.201599,317
886.318359,346
886.435181,324
886.552002,313
886.668762,309
886.785645,317
886.902344,309
887.019165,332
887.135925,313
887.252747,327
887.369446,317
887.486267,314
887.603027,327
887.719788,324
887.836548,318
887.953247,323
888.070068,316
888.186829,311
888.303528,303
888.420288,325
888.536987,314
888.653687,311
888.770447,321
888.887146,330
889.003967,304
889.120667,323
889.237305,312
889.354065,327
889.470703,314
889.587463,329
889.704163,311
889.820862,326
889.937561,311
890.054199,309
890.170837,316
890.287598,317
890.404236,317
890.520874,325
890.637634,313
890.754211,310
890.87085,316
890.987549,318
891.104187,319
891.220886,320
891.337463,307
891.454102,307
891.57074,328
891.687378,303
891.804077,310
891.920654,318
892.037231,322
892.15387,322
892.270447,314
892.387085,317
892.503723,312
892.6203,329
892.736877,305
892.853516,334
892.970032,320
893.08667,318
893.203186,314
893.319763,317
893.43634,327
893.552917,315
893.669556,311
893.786011,324
893.902588,314
894.019165,322
894.135681,313
894.252197,327
894.368835,336
894.485291,322
894.601868,312
894.718384,318
894.8349,305
894.951355,328
895.067932,315
895.184448,322
895.300964,317
895.417419,325
895.533936,323
895.650452,313
895.766907,319
895.883423,322
895.999878,287
896.116333,322
896.232849,332
896.349304,325
896.465759,317
896.582214,312
896.698669,316
896.815125,335
896.931641,314
897.048035,334
897.164551,324
897.280884,339
897.397339,313
897.513794,321
897.630249,299
897.746582,313
897.863098,323
897.979431,330
898.095886,317
898.212341,302
898.328674,327
898.445129,321
898.561462,311
898.677795,333
898.794312,318
898.910645,327
899.026978,322
899.143433,318
899.259766,302
899.37616,300
899.492493,314
899.608765,310
899.725159,307
899.841553,317
899.957947,302
900.07428,313
900.190552,308
900.306946,314
900.423157,311
900.53949,324
900.655884,316
900.772156,314
900.888489,326
901.004822,329
901.121033,321
901.237366,327
901.353699,305
901.46991,320
901.586304,322
901.702515,337
901.818787,324
901.93512,332
902.051331,312
902.167603,333
902.283875,323
902.400085,312
902.516418,320
902.632629,313
902.74884,311
902.865112,313
902.981384,328
903.097595,319
903.213867,311
903.330017,314
903.446289,319
903.5625,308
903.67865,330
903.794922,310
903.911072,321
904.027344,322
904.143494,314
904.259705,328
904.375916,315
904.492065,333
904.608215,310
904.724426,319
904.840576,306
904.956726,326
905.072876,310
905.189087,323
905.305176,338
905.421387,315
905.537537,299
905.653687,309
905.769775,319
905.885925,326
906.002014,308
906.118164,326
906.234314,316
906.350403,333
906.466492,331
906.582642,308
906.69873,314
906.814758,334
906.930908,313
907.046936,329
907.163086,310
907.279175,323
907.395264,306
907.511353,316
907.62738,325
907.743408,315
907.859497,312
907.975525,315
908.091553,307
908.207703,323
908.32373,308
908.439758,315
908.555786,322
908.671814,311
908.787842,318
908.90387,312
909.019775,325
909.135864,315
909.251892,310
909.367859,332
909.483826,323
909.599854,324
909.715881,329
909.831848,318
909.947815,324
910.063782,328
910.179749,320
910.295776,312
910.411743,312
910.527649,325
910.643616,309
910.759583,320
910.875488,306
910.991455,307
911.107361,335
911.223267,329
911.339294,304
911.4552,335
911.571106,312
911.687073,326
911.802979,319
911.918823,333
912.034729,316
912.150635,333
912.266602,320
912.382446,317
912.498352,306
912.614197,300
912.730103,310
912.846008,305
792.44574,330
792.56488,364
792.68396,423
792.80304,400
792.92218,349
793.041199,305
793.160339,338
793.279419,341
793.398499,358
793.517578,339
793.636658,330
793.755737,340
793.874817,349
793.993896,360
794.112976,340
794.232056,319
794.351074,336
794.470215,331
794.589233,337
794.708313,349
794.827393,328
794.946411,342
795.065552,341
795.18457,347
795.303589,338
795.422668,319
795.541687,334
795.660767,331
795.779846,331
795.898865,330
796.017883,335
796.136963,332
796.255981,336
796.375061,336
796.49408,331
796.613037,328
796.732117,321
796.851135,344
796.970154,330
797.089233,334
797.208191,330
797.327271,323
797.446228,325
797.565186,333
797.684265,332
797.803223,323
797.922241,334
798.04126,334
798.160278,330
798.279297,340
798.398315,328
798.517273,332
798.636292,327
798.75531,319
798.874268,331
798.993286,346
799.112244,314
799.231323,344
799.350281,336
799.469238,335
799.588257,319
799.707153,335
799.826111,340
799.945129,343
800.064087,329
800.183044,322
800.302063,327
800.421021,345
800.539978,339
800.658936,342
800.777893,325
800.896912,337
801.015747,335
801.134705,324
801.253723,332
801.37262,334
801.491638,343
801.610535,320
801.729492,344
801.84845,326
801.967407,329
802.086243,328
802.205261,323
802.324158,338
802.443115,343
802.562073,323
802.680969,328
802.799927,331
802.918762,319
803.037659,320
803.156677,335
803.275574,334
803.39447,337
803.513428,341
803.632263,329
803.751221,328
803.870117,332
803.989014,326
804.107971,329
804.226746,343
804.345642,335
804.4646,339
804.583496,340
804.702393,324
804.821228,341
804.940125,337
805.059021,337
805.177917,341
805.296814,329
805.415649,317
805.534546,324
805.653442,316
805.772278,329
805.891113,338
806.01001,346
806.128906,333
806.247742,343
806.366577,311
806.485413,337
806.604309,319
806.723145,329
806.84198,332
806.960876,333
807.079712,335
807.198486,325
807.317383,326
807.436218,339
807.554993,324
807.673889,335
807.792725,330
807.91156,332
808.030396,336
808.14917,334
808.268005,336
808.386841,348
808.505676,328
808.624451,332
808.743286,324
808.862122,341
808.980896,331
809.099731,332
809.218506,335
809.337341,338
809.456116,338
809.57489,345
809.693726,320
809.8125,334
809.931274,320
810.050049,330
810.168884,331
810.287659,342
810.406372,324
810.525269,317
810.643982,333
810.762756,347
810.881531,339
811.000305,335
811.11908,329
811.237854,329
811.356567,339
811.475403,328
811.594116,330
811.71283,336
811.831604,329
811.950378,334
812.069153,337
812.187927,333
812.30658,329
812.425415,334
812.544128,332
812.662781,333
812.781616,327
812.900269,321
813.019043,328
813.137756,339
813.256531,329
813.375244,334
813.493896,326
813.612671,337
813.731384,332
813.850037,331
813.96875,326
814.087524,337
814.206238,334
814.324951,318
814.443604,332
814.562256,330
814.68103,328
814.799683,323
814.918335,337
815.037109,339
815.155762,323
815.274475,352
815.393188,320
815.511841,331
815.630554,322
815.749146,337
815.867859,326
815.986572,327
816.105164,344
816.223877,331
816.342529,342
816.461182,333
816.579895,335
816.698486,333
816.817139,333
816.935791,327
817.054504,335
817.173096,341
817.291748,336
817.4104,338
817.529053,317
817.647644,339
817.766235,330
817.884949,330
818.00354,339
818.122192,320
818.240845,318
818.359436,309
818.478088,326
818.59668,321
818.715271,332
818.833923,335
818.952515,320
819.071106,331
819.189758,314
819.30835,323
819.426941,328
819.545532,320
819.664124,318
819.782715,316
819.901306,322
820.019897,318
820.138489,324
820.25708,339
820.375671,325
820.494202,326
820.612732,306
820.731384,336
820.849915,310
820.968506,312
821.087097,310
821.205627,322
821.324158,312
821.442749,315
821.561279,311
821.679871,322
821.798401,313
821.916931,317
822.035461,312
822.154053,320
822.272583,321
822.391174,325
822.509583,323
822.628174,329
822.746704,308
822.865234,314
822.983765,317
823.102295,336
823.220825,326
823.339294,328
823.457825,318
823.576355,314
823.694824,308
823.813354,313
823.931885,315
824.050354,332
824.168884,314
824.287354,319
824.405823,318
824.524353,321
824.642822,314
824.761353,315
824.879822,301
824.998291,321
825.116699,306
825.235291,314
825.353699,320
825.472168,312
825.590637,298
825.709106,324
825.827576,310
825.946045,322
826.064453,317
826.182983,315
826.301392,318
826.4198,320
826.53833,313
826.656738,333
826.775208,328
826.893677,320
827.012024,316
827.130493,308
827.248962,318
827.36731,332
827.485779,310
827.604248,337
827.722595,314
827.841064,326
827.959412,317
828.077942,308
828.196289,322
828.314636,321
828.433105,317
828.551514,320
828.669861,317
828.78833,325
828.906677,315
829.025085,323
829.143433,311
829.261841,308
829.38031,317
829.498657,315
829.617004,320
829.735413,326
829.85376,327
829.972107,315
830.090515,313
830.208862,323
830.327209,310
830.445557,307
830.563904,317
830.682312,309
830.800659,326
830.919006,325
831.037354,314
831.155701,311
831.274048,313
831.392395,339
831.51062,322
831.629028,313
831.747314,325
831.865662,322
831.984009,323
832.102356,327
832.220642,317
832.338928,313
832.457275,317
832.575623,315
832.693909,322
832.812134,333
832.930481,324
833.048828,325
833.167114,311
833.2854,319
833.403687,312
833.521973,323
833.640259,320
833.758545,308
833.876831,314
833.995056,320
834.113281,325
834.231628,313
834.349915,305
834.468201,320
834.586426,323
834.704651,304
834.822998,322
834.941162,318
835.059448,311
835.177673,311
835.295959,315
835.414246,311
835.53241,325
835.650635,324
835.768921,321
835.887146,311
836.005371,320
836.123596,324
836.241821,313
836.360046,323
836.478271,309
836.596497,330
836.714722,324
836.832886,323
836.95105,323
837.069336,316
837.1875,317
837.305725,309
837.423889,323
837.542053,317
837.660339,313
837.778503,324
837.896667,309
838.014832,331
838.132996,304
838.25116,316
838.369385,326
838.487488,333
838.605713,314
838.723877,320
838.84198,315
838.960205,321
839.078308,322
839.196472,323
839.314636,314
839.4328,328
839.550964,317
839.669067,325
839.787231,319
839.905396,309
840.023499,315
840.141602,324
840.259766,310
840.377869,323
840.495972,327
840.614136,319
840.732239,320
840.850342,321
840.968445,308
841.086548,333
841.204651,317
841.322754,313
841.440918,314
841.55896,327
841.677002,317
841.795166,324
841.913208,315
842.031311,329
842.149353,315
842.267456,316
842.385498,318
842.503601,313
842.621643,309
842.739746,317
842.857788,326
842.97583,310
843.093933,322
843.211975,319
843.330017,325
843.44812,305
843.566101,319
843.684204,306
843.802246,308
843.920227,315
844.038269,305
844.156311,310
844.274292,308
844.392395,310
844.510376,325
844.628357,312
844.74646,327
844.864441,311
844.982422,318
845.100403,324
845.218384,313
845.336426,319
845.454468,318
845.572449,312
845.69043,314
845.808411,315
845.926453,323
846.044373,318
846.162354,302
846.280396,316
846.398315,309
846.516296,328
846.634216,308
846.752197,309
846.870178,315
846.988098,312
847.106079,304
847.22406,323
847.34198,316
847.4599,323
847.577881,322
847.695801,314
847.813782,304
847.931641,329
848.049561,317
848.167603,322
848.285461,314
848.403381,313
848.521362,308
848.639221,334
848.75708,298
848.875,329
848.99292,319
849.110901,311
849.22876,303
849.34668,321
849.464539,317
849.582458,323
849.700317,327
849.818176,317
849.936096,309
850.053955,326
850.171875,313
850.289673,330
850.407593,308
850.525452,319
850.643311,316
850.761169,319
850.878967,323
850.996887,313
851.114746,303
851.232544,329
851.350403,315
851.468262,313
851.58606,319
851.703979,308
851.821777,317
851.939636,323
852.057434,324
852.175232,319
852.293091,313
852.410889,330
852.528687,307
852.646545,320
852.764343,325
852.88208,325
852.999939,327
853.117676,315
853.235535,310
853.353271,318
853.471069,312
853.588928,311
853.706604,309
853.824402,327
853.9422,307
854.059998,336
854.177734,320
854.295532,313
854.413269,312
854.531006,314
854.648804,315
854.766541,310
854.884277,312
855.002014,317
855.119751,323
855.237549,327
855.355225,314
855.473022,328
855.590698,333
855.708435,327
855.826172,327
855.943848,314
856.061646,314
856.179321,328
856.296997,316
856.414795,313
856.53241,313
856.650085,321
856.767822,313
856.885559,314
857.003174,321
857.120911,327
857.238586,322
857.356201,327
857.473938,313
857.591614,321
857.709351,324
857.826965,309
857.944641,323
858.062317,313
858.179993,309
858.297668,306
858.415283,305
858.532959,311
858.650574,314
858.768188,325
858.885803,313
859.003479,316
859.121094,309
859.23877,319
859.356384,316
859.473999,318
859.591675,317
859.709229,310
859.826843,324
859.944458,319
860.062012,312
860.179626,311
860.297302,310
860.414856,324
860.532471,312
860.650024,314
860.767639,325
860.885193,319
861.002808,329
861.120361,309
861.237976,321
861.35553,319
861.473022,319
861.590698,326
861.708191,308
861.825745,312
861.943298,318
862.060852,327
862.178406,321
862.295959,330
862.413513,309
862.531006,330
862.64856,311
862.766113,326
862.883667,304
863.00116,320
863.118713,313
863.236206,323
863.353699,301
863.471252,309
863.588745,328
863.706177,320
863.82373,319
863.941162,321
864.058716,311
864.176208,319
864.29364,322
864.411194,314
864.528687,307
864.646118,316
864.763611,317
864.881042,312
864.998535,302
865.116028,324
865.233459,312
865.350891,313
865.468384,310
865.585754,327
865.703308,304
865.820679,322
865.938171,311
866.055542,323
866.173035,316
866.290466,317
866.407837,311
866.52533,314
866.6427,308
866.760071,311
866.877563,323
866.994934,324
867.112305,318
867.229736,322
867.347107,317
867.464539,307
867.58197,327
867.699341,320
867.81665,318
867.934082,318
868.051453,312
868.168823,328
868.286194,311
868.403564,320
868.520935,329
868.638306,320
868.755676,333
868.872986,328
868.990295,309
869.107727,327
869.225037,309
869.342346,327
869.459717,312
869.577026,331
869.694336,321
869.811707,324
869.929016,328
870.046326,314
870.163635,310
870.280945,314
870.398254,296
870.515564,310
870.632812,319
870.750183,340
870.867432,302
870.984741,310
871.102051,316
871.219299,312
871.336609,316
871.453918,320
871.571106,318
871.688416,307
871.805664,311
871.922852,318
872.040222,326
872.157471,326
872.274719,315
872.391968,307
872.509155,318
872.626465,321
872.743652,323
872.860962,320
872.978149,323
873.095337,322
873.212646,331
873.329834,320
873.44696,321
873.564209,327
873.681396,323
873.798645,321
873.915894,310
874.03302,303
874.150208,316
874.267456,316
874.384583,319
874.501831,331
874.618958,311
874.736145,319
874.853333,326
874.970459,321
875.087646,313
875.204834,320
875.32196,316
875.439148,327
875.556274,323
875.673401,314
875.790527,305
875.907715,318
876.024841,315
876.141968,325
876.259094,317
876.376282,329
876.493347,314
876.610474,316
876.7276,299
876.844727,321
876.961853,294
877.078918,332
877.195984,306
877.313171,326
877.430237,319
877.547302,321
877.664368,322
877.781433,302
877.898499,333
878.015625,313
878.13269,307
878.249695,329
878.366821,306
878.483887,331
878.600952,311
878.717957,317
878.834961,316
878.952087,326
879.069092,316
879.186157,319
879.303162,313
879.420227,312
879.537231,328
879.654236,326
879.77124,319
879.888306,311
880.005249,324
880.122314,323
880.239319,320
880.356323,320
880.473328,302
880.590271,316
880.707275,321
880.824341,322
880.941284,306
881.058228,324
881.175232,307
881.292236,321
881.40918,320
881.526123,327
881.643066,299
881.760071,323
881.877014,316
881.993958,312
882.11084,315
882.227783,311
882.344727,299
882.46167,320
882.578613,326
882.695618,308
882.812439,306
882.929382,316
883.046326,311
883.163208,323
883.280151,314
883.397034,327
883.513916,309
883.630798,323
883.747742,314
883.864563,325
883.981506,314
884.098389,328
884.21521,317
884.332153,330
884.448975,330
884.565796,321
884.682678,322
884.7995,339
884.916443,326
885.033264,322
885.150085,323
885.266968,327
885.383789,310
885.500671,335
885.617493,318
885.734314,328
885.851196,314
885.967896,328
886.084717,330
886.201599,331
886.318359,316
886.435181,308
886.552002,311
886.668762,338
886.785645,313
886.902344,313
887.019165,321
887.135925,328
887.252747,321
887.369446,324
887.486267,312
887.603027,328
887.719788,311
887.836548,323
887.953247,315
888.070068,312
888.186829,311
888.303528,321
888.420288,321
888.536987,330
888.653687,312
888.770447,320
888.887146,322
889.003967,330
889.120667,304
889.237305,320
889.354065,305
889.470703,314
889.587463,316
889.704163,321
889.820862,307
889.937561,307
890.054199,312
890.170837,326
890.287598,318
890.404236,316
890.520874,309
890.637634,320
890.754211,323
890.87085,331
890.987549,304
891.104187,322
891.220886,298
891.337463,319
891.454102,312
891.57074,312
891.687378,311
891.804077,321
891.920654,311
892.037231,328
892.15387,325
892.270447,323
892.387085,319
892.503723,324
892.6203,316
892.736877,320
892.853516,322
892.970032,327
893.08667,323
893.203186,316
893.319763,316
893.43634,315
893.552917,293
893.669556,329
893.786011,306
893.902588,315
894.019165,322
894.135681,330
894.252197,310
894.368835,317
894.485291,318
894.601868,320
894.718384,307
894.8349,317
894.951355,305
895.067932,319
895.184448,323
895.300964,316
895.417419,310
895.533936,316
895.650452,302
895.766907,327
895.883423,310
895.999878,322
896.116333,314
896.232849,319
896.349304,312
896.465759,317
896.582214,317
896.698669,328
896.815125,317
896.931641,323
897.048035,309
897.164551,316
897.280884,301
897.397339,313
897.513794,312
897.630249,309
897.746582,329
897.863098,307
897.979431,322
898.095886,325
898.212341,309
898.328674,317
898.445129,306
898.561462,311
898.677795,316
898.794312,316
898.910645,312
899.026978,316
899.143433,310
899.259766,321
899.37616,307
899.492493,326
899.608765,317
899.725159,315
899.841553,305
899.957947,329
900.07428,319
900.190552,319
900.306946,324
900.423157,326
900.53949,295
900.655884,331
900.772156,312
900.888489,306
901.004822,313
901.121033,311
901.237366,309
901.353699,312
901.46991,320
901.586304,334
901.702515,297
901.818787,321
901.93512,328
902.051331,317
902.167603,303
902.283875,323
902.400085,321
902.516418,318
902.632629,326
902.74884,310
902.865112,308
902.981384,313
903.097595,314
903.213867,328
903.330017,313
903.446289,332
903.5625,312
903.67865,327
903.794922,316
903.911072,322
904.027344,301
904.143494,308
904.259705,332
904.375916,320
904.492065,310
904.608215,320
904.724426,309
904.840576,324
904.956726,311
905.072876,323
905.189087,304
905.305176,325
905.421387,311
905.537537,320
905.653687,318
905.769775,321
905.885925,320
906.002014,324
906.118164,318
906.234314,324
906.350403,298
906.466492,325
906.582642,311
906.69873,312
906.814758,319
906.930908,304
907.046936,323
907.163086,323
907.279175,306
907.395264,319
907.511353,320
907.62738,314
907.743408,310
907.859497,307
907.975525,317
908.091553,317
908.207703,320
908.32373,315
908.439758,314
908.555786,317
908.671814,310
908.787842,319
908.90387,309
909.019775,309
909.135864,309
909.251892,330
909.367859,309
909.483826,331
909.599854,313
909.715881,316
909.831848,317
909.947815,322
910.063782,307
910.179749,306
910.295776,317
910.411743,313
910.527649,334
910.643616,334
910.759583,309
910.875488,320
910.991455,317
911.107361,318
911.223267,307
911.339294,317
911.4552,312
911.571106,329
911.687073,307
911.802979,326
911.918823,294
912.034729,327
912.150635,313
912.266602,329
912.382446,320
912.498352,315
912.614197,303
912.730103,304
912.846008,309
792.44574,336
792.56488,365
792.68396,413
792.80304,380
792.92218,370
793.041199,329
793.160339,340
793.279419,345
793.398499,344
793.517578,332
793.636658,327
793.755737,334
793.874817,353
793.993896,345
794.112976,347
794.232056,323
794.351074,340
794.470215,344
794.589233,335
794.708313,316
794.827393,348
794.946411,327
795.065552,336
795.18457,343
795.303589,348
795.422668,337
795.541687,332
795.660767,333
795.779846,344
795.898865,334
796.017883,337
796.136963,333
796.255981,335
796.375061,319
796.49408,333
796.613037,329
796.732117,328
796.851135,319
796.970154,337
797.089233,337
797.208191,338
797.327271,337
797.446228,327
797.565186,330
797.684265,337
797.803223,337
797.922241,344
798.04126,345
798.160278,327
798.279297,334
798.398315,330
798.517273,331
798.636292,325
798.75531,329
798.874268,335
798.993286,328
799.112244,332
799.231323,329
799.350281,319
799.469238,336
799.588257,339
799.707153,335
799.826111,336
799.945129,322
800.064087,333
800.183044,329
800.302063,321
800.421021,307
800.539978,336
800.658936,322
800.777893,332
800.896912,311
801.015747,340
801.134705,329
801.253723,335
801.37262,314
801.491638,334
801.610535,333
801.729492,337
801.84845,319
801.967407,330
802.086243,323
802.205261,334
802.324158,330
802.443115,335
802.562073,340
802.680969,326
802.799927,334
802.918762,333
803.037659,339
803.156677,325
803.275574,334
803.39447,335
803.513428,330
803.632263,333
803.751221,335
803.870117,336
803.989014,337
804.107971,337
804.226746,336
804.345642,330
804.4646,339
804.583496,321
804.702393,337
804.821228,332
804.940125,342
805.059021,333
805.177917,326
805.296814,335
805.415649,336
805.534546,344
805.653442,328
805.772278,319
805.891113,327
806.01001,331
806.128906,336
806.247742,341
806.366577,324
806.485413,320
806.604309,333
806.723145,320
806.84198,332
806.960876,332
807.079712,322
807.198486,336
807.317383,335
807.436218,338
807.554993,326
807.673889,349
807.792725,327
807.91156,343
808.030396,330
808.14917,336
808.268005,342
808.386841,336
808.505676,338
808.624451,329
808.743286,327
808.862122,342
808.980896,329
809.099731,345
809.218506,330
809.337341,341
809.456116,337
809.57489,344
809.693726,337
809.8125,321
809.931274,331
810.050049,332
810.168884,331
810.287659,331
810.406372,339
810.525269,330
810.643982,318
810.762756,348
810.881531,331
811.000305,339
811.11908,329
811.237854,312
811.356567,332
811.475403,327
811.594116,342
811.71283,344
811.831604,343
811.950378,340
812.069153,336
812.187927,328
812.30658,333
812.425415,337
812.544128,341
812.662781,330
812.781616,325
812.900269,334
813.019043,334
813.137756,334
813.256531,339
813.375244,333
813.493896,331
813.612671,332
813.731384,335
813.850037,340
813.96875,333
814.087524,333
814.206238,325
814.324951,327
814.443604,327
814.562256,319
814.68103,344
814.799683,334
814.918335,336
815.037109,329
815.155762,326
815.274475,321
815.393188,340
815.511841,328
815.630554,316
815.749146,327
815.867859,333
815.986572,333
816.105164,343
816.223877,329
816.342529,324
816.461182,337
816.579895,322
816.698486,346
816.817139,326
816.935791,314
817.054504,325
817.173096,334
817.291748,326
817.4104,325
817.529053,322
817.647644,334
817.766235,323
817.884949,328
818.00354,331
818.122192,324
818.240845,326
818.359436,338
818.478088,328
818.59668,328
818.715271,322
818.833923,331
818.952515,324
819.071106,331
819.189758,317
819.30835,327
819.426941,318
819.545532,304
819.664124,331
819.782715,321
819.901306,326
820.019897,330
820.138489,315
820.25708,321
820.375671,322
820.494202,322
820.612732,318
820.731384,319
820.849915,326
820.968506,320
821.087097,321
821.205627,325
821.324158,319
821.442749,331
821.561279,325
821.679871,316
821.798401,330
821.916931,328
822.035461,320
822.154053,328
822.272583,317
822.391174,336
822.509583,315
822.628174,330
822.746704,308
822.865234,331
822.983765,313
823.102295,316
823.220825,313
823.339294,321
823.457825,316
823.576355,325
823.694824,331
823.813354,334
823.931885,323
824.050354,308
824.168884,326
824.287354,312
824.405823,317
824.524353,320
824.642822,317
824.761353,330
824.879822,310
824.998291,316
825.116699,319
825.235291,314
825.353699,318
825.472168,316
825.590637,336
825.709106,320
825.827576,337
825.946045,309
826.064453,308
826.182983,315
826.301392,330
826.4198,319
826.53833,315
826.656738,318
826.775208,321
826.893677,323
827.012024,307
827.130493,324
827.248962,330
827.36731,329
827.485779,321
827.604248,323
827.722595,320
827.841064,325
827.959412,324
828.077942,316
828.196289,319
828.314636,330
828.433105,320
828.551514,323
828.669861,322
828.78833,319
828.906677,317
829.025085,321
829.143433,325
829.261841,320
829.38031,309
829.498657,323
829.617004,321
829.735413,321
829.85376,310
829.972107,326
830.090515,331
830.208862,329
830.327209,311
830.445557,313
830.563904,312
830.682312,327
830.800659,314
830.919006,331
831.037354,333
831.155701,319
831.274048,328
831.392395,312
831.51062,317
831.629028,327
831.747314,309
831.865662,324
831.984009,309
832.102356,316
832.220642,313
832.338928,327
832.457275,308
832.575623,324
832.693909,302
832.812134,315
832.930481,305
833.048828,312
833.167114,328
833.2854,322
833.403687,313
833.521973,319
833.640259,319
833.758545,326
833.876831,311
833.995056,321
834.113281,317
834.231628,331
834.349915,307
834.468201,314
834.586426,310
834.704651,310
834.822998,323
834.941162,312
835.059448,324
835.177673,301
835.295959,311
835.414246,329
835.53241,324
835.650635,304
835.768921,320
835.887146,308
836.005371,310
836.123596,313
836.241821,322
836.360046,319
836.478271,330
836.596497,326
836.714722,312
836.832886,311
836.95105,311
837.069336,312
837.1875,319
837.305725,316
837.423889,310
837.542053,330
837.660339,315
837.778503,318
837.896667,321
838.014832,315
838.132996,318
838.25116,315
838.369385,326
838.487488,322
838.605713,311
838.723877,320
838.84198,307
838.960205,325
839.078308,311
839.196472,326
839.314636,320
839.4328,324
839.550964,324
839.669067,314
839.787231,319
839.905396,324
840.023499,323
840.141602,327
840.259766,322
840.377869,332
840.495972,313
840.614136,324
840.732239,315
840.850342,327
840.968445,324
841.086548,323
841.204651,317
841.322754,328
841.440918,321
841.55896,332
841.677002,307
841.795166,324
841.913208,313
842.031311,325
842.149353,316
842.267456,336
842.385498,309
842.503601,322
842.621643,321
842.739746,321
842.857788,322
842.97583,309
843.093933,317
843.211975,327
843.330017,322
843.44812,313
843.566101,315
843.684204,315
843.802246,311
843.920227,317
844.038269,316
844.156311,322
844.274292,325
844.392395,316
844.510376,309
844.628357,321
844.74646,312
844.864441,330
844.982422,302
845.100403,316
845.218384,312
845.336426,320
845.454468,315
845.572449,321
845.69043,331
845.808411,310
845.926453,315
846.044373,317
846.162354,327
846.280396,323
846.398315,324
846.516296,321
846.634216,314
846.752197,320
846.870178,325
846.988098,314
847.106079,306
847.22406,324
847.34198,322
847.4599,326
847.577881,327
847.695801,324
847.813782,318
847.931641,307
848.049561,311
848.167603,325
848.285461,307
848.403381,318
848.521362,324
848.639221,323
848.75708,331
848.875,307
848.99292,311
849.110901,322
849.22876,312
849.34668,318
849.464539,302
849.582458,317
849.700317,307
849.818176,312
849.936096,324
850.053955,319
850.171875,326
850.289673,328
850.407593,322
850.525452,316
850.643311,310
850.761169,327
850.878967,301
850.996887,323
851.114746,312
851.232544,322
851.350403,315
851.468262,302
851.58606,311
851.703979,325
851.821777,326
851.939636,327
852.057434,323
852.175232,308
852.293091,321
852.410889,317
852.528687,311
852.646545,327
852.764343,312
852.88208,339
852.999939,307
853.117676,325
853.235535,320
853.353271,314
853.471069,303
853.588928,312
853.706604,316
853.824402,318
853.9422,312
854.059998,321
854.177734,315
854.295532,317
854.413269,307
854.531006,311
854.648804,313
854.766541,317
854.884277,313
855.002014,318
855.119751,315
855.237549,330
855.355225,317
855.473022,326
855.590698,317
855.708435,315
855.826172,318
855.943848,328
856.061646,315
856.179321,324
856.296997,319
856.414795,325
856.53241,324
856.650085,324
856.767822,326
856.885559,314
857.003174,325
857.120911,310
857.238586,325
857.356201,318
857.473938,312
857.591614,324
857.709351,322
857.826965,322
857.944641,312
858.062317,316
858.179993,315
858.297668,325
858.415283,316
858.532959,320
858.650574,321
858.768188,321
858.885803,302
859.003479,322
859.121094,302
859.23877,313
859.356384,321
859.473999,318
859.591675,309
859.709229,323
859.826843,313
859.944458,318
860.062012,325
860.179626,327
860.297302,309
860.414856,312
860.532471,324
860.650024,305
860.767639,300
860.885193,329
861.002808,305
861.120361,331
861.237976,318
861.35553,326
861.473022,305
861.590698,327
861.708191,314
861.825745,320
861.943298,298
862.060852,310
862.178406,323
862.295959,319
862.413513,312
862.531006,318
862.64856,331
862.766113,320
862.883667,318
863.00116,320
863.118713,327
863.236206,328
863.353699,309
863.471252,332
863.588745,299
863.706177,317
863.82373,319
863.941162,318
864.058716,322
864.176208,328
864.29364,311
864.411194,320
864.528687,309
864.646118,319
864.763611,310
864.881042,315
864.998535,312
865.116028,325
865.233459,301
865.350891,325
865.468384,308
865.585754,327
865.703308,326
865.820679,318
865.938171,307
866.055542,322
866.173035,314
866.290466,323
866.407837,311
866.52533,311
866.6427,307
866.760071,305
866.877563,309
866.994934,322
867.112305,318
867.229736,320
867.347107,311
867.464539,336
867.58197,315
867.699341,307
867.81665,308
867.934082,328
868.051453,323
868.168823,321
868.286194,305
868.403564,323
868.520935,324
868.638306,316
868.755676,306
868.872986,310
868.990295,316
869.107727,311
869.225037,317
869.342346,314
869.459717,314
869.577026,317
869.694336,319
869.811707,321
869.929016,306
870.046326,326
870.163635,313
870.280945,317
870.398254,319
870.515564,336
870.632812,329
870.750183,321
870.867432,314
870.984741,325
871.102051,317
871.219299,309
871.336609,320
871.453918,322
871.571106,321
871.688416,316
871.805664,314
871.922852,309
872.040222,332
872.157471,325
872.274719,310
872.391968,316
872.509155,328
872.626465,312
872.743652,328
872.860962,321
872.978149,309
873.095337,326
873.212646,311
873.329834,323
873.44696,312
873.564209,324
873.681396,315
873.798645,318
873.915894,316
874.03302,332
874.150208,321
874.267456,330
874.384583,321
874.501831,325
874.618958,316
874.736145,310
874.853333,324
874.970459,326
875.087646,321
875.204834,314
875.32196,308
875.439148,324
875.556274,310
875.673401,316
875.790527,326
875.907715,320
876.024841,316
876.141968,303
876.259094,317
876.376282,321
876.493347,320
876.610474,321
876.7276,321
876.844727,322
876.961853,322
877.078918,322
877.195984,319
877.313171,330
877.430237,313
877.547302,325
877.664368,308
877.781433,320
877.898499,331
878.015625,327
878.13269,316
878.249695,319
878.366821,325
878.483887,311
878.600952,320
878.717957,332
878.834961,303
878.952087,330
879.069092,302
879.186157,324
879.303162,308
879.420227,315
879.537231,300
879.654236,309
879.77124,308
879.888306,311
880.005249,315
880.122314,313
880.239319,328
880.356323,328
880.473328,322
880.590271,315
880.707275,314
880.824341,323
880.941284,314
881.058228,318
881.175232,321
881.292236,318
881.40918,311
881.526123,323
881.643066,303
881.760071,327
881.877014,314
881.993958,320
882.11084,318
882.227783,316
882.344727,295
882.46167,316
882.578613,312
882.695618,327
882.812439,317
882.929382,318
883.046326,307
883.163208,311
883.280151,324
883.397034,324
883.513916,320
883.630798,317
883.747742,321
883.864563,323
883.981506,308
884.098389,322
884.21521,311
884.332153,321
884.448975,323
884.565796,319
884.682678,321
884.7995,318
884.916443,310
885.033264,334
885.150085,313
885.266968,317
885.383789,316
885.500671,313
885.617493,330
885.734314,328
885.851196,319
885.967896,321
886.084717,312
886.201599,321
886.318359,314
886.435181,307
886.552002,313
886.668762,321
886.785645,313
886.902344,323
887.019165,307
887.135925,317
887.252747,317
887.369446,314
887.486267,317
887.603027,326
887.719788,312
887.836548,322
887.953247,314
888.070068,319
888.186829,311
888.303528,325
888.420288,309
888.536987,320
888.653687,312
888.770447,317
888.887146,324
889.003967,313
889.120667,321
889.237305,313
889.354065,323
889.470703,317
889.587463,308
889.704163,321
889.820862,321
889.937561,313
890.054199,308
890.170837,320
890.287598,311
890.404236,319
890.520874,335
890.637634,323
890.754211,315
890.87085,324
890.987549,315
891.104187,319
891.220886,316
891.337463,312
891.454102,316
891.57074,323
891.687378,303
891.804077,325
891.920654,309
892.037231,326
892.15387,297
892.270447,308
892.387085,319
892.503723,315
892.6203,315
892.736877,331
892.853516,321
892.970032,326
893.08667,311
893.203186,321
893.319763,320
893.43634,319
893.552917,317
893.669556,312
893.786011,325
893.902588,311
894.019165,311
894.135681,308
894.252197,298
894.368835,327
894.485291,318
894.601868,317
894.718384,315
894.8349,325
894.951355,320
895.067932,322
895.184448,308
895.300964,315
895.417419,326
895.533936,315
895.650452,320
895.766907,317
895.883423,320
895.999878,309
896.116333,308
896.232849,318
896.349304,313
896.465759,320
896.582214,313
896.698669,333
896.815125,327
896.931641,318
897.048035,305
897.164551,331
897.280884,318
897.397339,326
897.513794,318
897.630249,336
897.746582,322
897.863098,321
897.979431,316
898.095886,301
898.212341,310
898.328674,318
898.445129,317
898.561462,326
898.677795,322
898.794312,307
898.910645,306
899.026978,326
899.143433,326
899.259766,306
899.37616,325
899.492493,323
899.608765,312
899.725159,312
899.841553,320
899.957947,326
900.07428,311
900.190552,319
900.306946,328
900.423157,312
900.53949,317
900.655884,320
900.772156,328
900.888489,323
901.004822,301
901.121033,321
901.237366,300
901.353699,320
901.46991,316
901.586304,313
901.702515,313
901.818787,331
901.93512,319
902.051331,331
902.167603,300
902.283875,323
902.400085,325
902.516418,313
902.632629,312
902.74884,326
902.865112,317
902.981384,325
903.097595,327
903.213867,316
903.330017,331
903.446289,321
903.5625,320
903.67865,313
903.794922,311
903.911072,301
904.027344,327
904.143494,332
904.259705,330
904.375916,319
904.492065,306
904.608215,331
904.724426,304
904.840576,323
904.956726,316
905.072876,320
905.189087,316
905.305176,314
905.421387,321
905.537537,330
905.653687,316
905.769775,319
905.885925,313
906.002014,314
906.118164,310
906.234314,305
906.350403,317
906.466492,313
906.582642,310
906.69873,319
906.814758,311
906.930908,308
907.046936,315
907.163086,334
907.279175,306
907.395264,314
907.511353,323
907.62738,333
907.743408,316
907.859497,325
907.975525,321
908.091553,310
908.207703,318
908.32373,322
908.439758,320
908.555786,311
908.671814,313
908.787842,320
908.90387,324
909.019775,322
909.135864,309
909.251892,318
909.367859,314
909.483826,324
909.599854,315
909.715881,310
909.831848,322
909.947815,319
910.063782,318
910.179749,323
910.295776,309
910.411743,319
910.527649,307
910.643616,320
910.759583,323
910.875488,301
910.991455,300
911.107361,322
911.223267,299
911.339294,312
911.4552,320
911.571106,316
911.687073,326
911.802979,312
911.918823,324
912.034729,310
912.150635,315
912.266602,313
912.382446,321
912.498352,316
912.614197,296
912.730103,323
912.846008,314
