792.44574,335
792.56488,369
792.68396,416
792.80304,397
792.92218,346
793.041199,340
793.160339,343
793.279419,359
793.398499,344
793.517578,328
793.636658,338
793.755737,363
793.874817,362
793.993896,363
794.112976,352
794.232056,355
794.351074,349
794.470215,341
794.589233,348
794.708313,342
794.827393,330
794.946411,355
795.065552,353
795.18457,351
795.303589,341
795.422668,346
795.541687,334
795.660767,335
795.779846,340
795.898865,338
796.017883,341
796.136963,331
796.255981,348
796.375061,332
796.49408,340
796.613037,327
796.732117,329
796.851135,321
796.970154,338
797.089233,343
797.208191,333
797.327271,339
797.446228,336
797.565186,340
797.684265,334
797.803223,335
797.922241,334
798.04126,320
798.160278,331
798.279297,325
798.398315,343
798.517273,345
798.636292,334
798.75531,332
798.874268,341
798.993286,329
799.112244,337
799.231323,327
799.350281,345
799.469238,320
799.588257,334
799.707153,326
799.826111,331
799.945129,346
800.064087,331
800.183044,334
800.302063,333
800.421021,322
800.539978,347
800.658936,328
800.777893,339
800.896912,327
801.015747,339
801.134705,332
801.253723,345
801.37262,332
801.491638,344
801.610535,333
801.729492,334
801.84845,322
801.967407,334
802.086243,330
802.205261,329
802.324158,324
802.443115,344
802.562073,324
802.680969,331
802.799927,333
802.918762,323
803.037659,335
803.156677,338
803.275574,330
803.39447,324
803.513428,326
803.632263,313
803.751221,334
803.870117,331
803.989014,330
804.107971,322
804.226746,336
804.345642,329
804.4646,328
804.583496,328
804.702393,336
804.821228,319
804.940125,336
805.059021,337
805.177917,331
805.296814,334
805.415649,332
805.534546,341
805.653442,319
805.772278,330
805.891113,325
806.01001,336
806.128906,319
806.247742,341
806.366577,338
806.485413,317
806.604309,341
806.723145,324
806.84198,326
806.960876,330
807.079712,332
807.198486,323
807.317383,343
807.436218,333
807.554993,330
807.673889,331
807.792725,324
807.91156,334
808.030396,323
808.14917,332
808.268005,327
808.386841,335
808.505676,336
808.624451,339
808.743286,314
808.862122,333
808.980896,329
809.099731,321
809.218506,308
809.337341,333
809.456116,315
809.57489,338
809.693726,344
809.8125,338
809.931274,337
810.050049,335
810.168884,337
810.287659,331
810.406372,320
810.525269,329
810.643982,323
810.762756,331
810.881531,328
811.000305,340
811.11908,330
811.237854,327
811.356567,323
811.475403,324
811.594116,336
811.71283,324
811.831604,328
811.950378,337
812.069153,321
812.187927,331
812.30658,340
812.425415,322
812.544128,340
812.662781,334
812.781616,332
812.900269,326
813.019043,332
813.137756,326
813.256531,311
813.375244,345
813.493896,328
813.612671,326
813.731384,329
813.850037,326
813.96875,328
814.087524,325
814.206238,334
814.324951,338
814.443604,325
814.562256,339
814.68103,332
814.799683,340
814.918335,339
815.037109,315
815.155762,322
815.274475,324
815.393188,336
815.511841,342
815.630554,327
815.749146,319
815.867859,336
815.986572,327
816.105164,338
816.223877,330
816.342529,327
816.461182,324
816.579895,329
816.698486,342
816.817139,334
816.935791,338
817.054504,337
817.173096,317
817.291748,341
817.4104,317
817.529053,335
817.647644,338
817.766235,318
817.884949,330
818.00354,338
818.122192,328
818.240845,326
818.359436,334
818.478088,327
818.59668,332
818.715271,331
818.833923,326
818.952515,325
819.071106,315
819.189758,335
819.30835,336
819.426941,326
819.545532,317
819.664124,330
819.782715,311
819.901306,320
820.019897,327
820.138489,307
820.25708,327
820.375671,327
820.494202,322
820.612732,330
820.731384,325
820.849915,319
820.968506,314
821.087097,323
821.205627,320
821.324158,316
821.442749,322
821.561279,320
821.679871,328
821.798401,305
821.916931,318
822.035461,325
822.154053,330
822.272583,332
822.391174,335
822.509583,314
822.628174,325
822.746704,324
822.865234,327
822.983765,317
823.102295,328
823.220825,320
823.339294,315
823.457825,315
823.576355,319
823.694824,319
823.813354,330
823.931885,319
824.050354,325
824.168884,320
824.287354,337
824.405823,327
824.524353,319
824.642822,320
824.761353,322
824.879822,327
824.998291,321
825.116699,324
825.235291,321
825.353699,337
825.472168,316
825.590637,317
825.709106,326
825.827576,316
825.946045,327
826.064453,317
826.182983,323
826.301392,305
826.4198,319
826.53833,317
826.656738,329
826.775208,320
826.893677,327
827.012024,319
827.130493,326
827.248962,315
827.36731,319
827.485779,335
827.604248,316
827.722595,313
827.841064,331
827.959412,306
828.077942,322
828.196289,327
828.314636,312
828.433105,310
828.551514,315
828.669861,321
828.78833,319
828.906677,311
829.025085,322
829.143433,321
829.261841,336
829.38031,324
829.498657,317
829.617004,315
829.735413,331
829.85376,308
829.972107,317
830.090515,316
830.208862,311
830.327209,317
830.445557,333
830.563904,315
830.682312,324
830.800659,322
830.919006,338
831.037354,330
831.155701,309
831.274048,315
831.392395,316
831.51062,302
831.629028,326
831.747314,321
831.865662,323
831.984009,318
832.102356,342
832.220642,307
832.338928,312
832.457275,319
832.575623,319
832.693909,314
832.812134,320
832.930481,309
833.048828,324
833.167114,317
833.2854,323
833.403687,300
833.521973,321
833.640259,307
833.758545,322
833.876831,316
833.995056,321
834.113281,310
834.231628,318
834.349915,321
834.468201,323
834.586426,325
834.704651,333
834.822998,313
834.941162,322
835.059448,318
835.177673,320
835.295959,314
835.414246,320
835.53241,303
835.650635,316
835.768921,332
835.887146,313
836.005371,321
836.123596,312
836.241821,326
836.360046,316
836.478271,306
836.596497,319
836.714722,309
836.832886,325
836.95105,318
837.069336,324
837.1875,318
837.305725,324
837.423889,307
837.542053,334
837.660339,308
837.778503,333
837.896667,328
838.014832,317
838.132996,316
838.25116,323
838.369385,312
838.487488,313
838.605713,321
838.723877,324
838.84198,332
838.960205,314
839.078308,327
839.196472,323
839.314636,317
839.4328,321
839.550964,311
839.669067,317
839.787231,321
839.905396,328
840.023499,312
840.141602,313
840.259766,323
840.377869,325
840.495972,331
840.614136,317
840.732239,308
840.850342,327
840.968445,325
841.086548,329
841.204651,316
841.322754,320
841.440918,312
841.55896,325
841.677002,311
841.795166,314
841.913208,329
842.031311,319
842.149353,315
842.267456,323
842.385498,331
842.503601,326
842.621643,313
842.739746,328
842.857788,314
842.97583,320
843.093933,315
843.211975,327
843.330017,330
843.44812,325
843.566101,313
843.684204,336
843.802246,318
843.920227,322
844.038269,323
844.156311,325
844.274292,319
844.392395,327
844.510376,317
844.628357,312
844.74646,319
844.864441,333
844.982422,308
845.100403,337
845.218384,319
845.336426,328
845.454468,330
845.572449,314
845.69043,334
845.808411,322
845.926453,315
846.044373,311
846.162354,310
846.280396,323
846.398315,316
846.516296,312
846.634216,315
846.752197,313
846.870178,329
846.988098,335
847.106079,313
847.22406,314
847.34198,326
847.4599,328
847.577881,299
847.695801,310
847.813782,322
847.931641,321
848.049561,315
848.167603,315
848.285461,306
848.403381,328
848.521362,313
848.639221,327
848.75708,324
848.875,326
848.99292,325
849.110901,317
849.22876,333
849.34668,330
849.464539,319
849.582458,318
849.700317,335
849.818176,319
849.936096,324
850.053955,319
850.171875,323
850.289673,320
850.407593,325
850.525452,324
850.643311,310
850.761169,345
850.878967,309
850.996887,315
851.114746,324
851.232544,327
851.350403,330
851.468262,315
851.58606,312
851.703979,315
851.821777,308
851.939636,308
852.057434,306
852.175232,322
852.293091,323
852.410889,325
852.528687,316
852.646545,320
852.764343,329
852.88208,320
852.999939,329
853.117676,331
853.235535,302
853.353271,329
853.471069,323
853.588928,330
853.706604,309
853.824402,307
853.9422,325
854.059998,333
854.177734,321
854.295532,315
854.413269,310
854.531006,322
854.648804,314
854.766541,328
854.884277,311
855.002014,310
855.119751,337
855.237549,317
855.355225,323
855.473022,323
855.590698,320
855.708435,333
855.826172,320
855.943848,322
856.061646,326
856.179321,316
856.296997,324
856.414795,303
856.53241,326
856.650085,331
856.767822,316
856.885559,322
857.003174,312
857.120911,321
857.238586,315
857.356201,322
857.473938,319
857.591614,330
857.709351,317
857.826965,329
857.944641,335
858.062317,309
858.179993,325
858.297668,323
858.415283,303
858.532959,325
858.650574,320
858.768188,331
858.885803,318
859.003479,336
859.121094,312
859.23877,323
859.356384,335
859.473999,324
859.591675,317
859.709229,319
859.826843,320
859.944458,321
860.062012,315
860.179626,328
860.297302,317
860.414856,321
860.532471,317
860.650024,315
860.767639,308
860.885193,320
861.002808,312
861.120361,323
861.237976,310
861.35553,329
861.473022,320
861.590698,324
861.708191,314
861.825745,321
861.943298,318
862.060852,325
862.178406,315
862.295959,321
862.413513,315
862.531006,322
862.64856,319
862.766113,328
862.883667,312
863.00116,320
863.118713,324
863.236206,306
863.353699,310
863.471252,322
863.588745,306
863.706177,322
863.82373,309
863.941162,319
864.058716,304
864.176208,324
864.29364,326
864.411194,309
864.528687,321
864.646118,312
864.763611,318
864.881042,324
864.998535,324
865.116028,328
865.233459,322
865.350891,323
865.468384,325
865.585754,319
865.703308,310
865.820679,319
865.938171,312
866.055542,325
866.173035,327
866.290466,332
866.407837,317
866.52533,317
866.6427,303
866.760071,306
866.877563,319
866.994934,316
867.112305,312
867.229736,319
867.347107,307
867.464539,310
867.58197,319
867.699341,316
867.81665,316
867.934082,334
868.051453,312
868.168823,322
868.286194,314
868.403564,316
868.520935,315
868.638306,332
868.755676,321
868.872986,312
868.990295,329
869.107727,319
869.225037,327
869.342346,325
869.459717,311
869.577026,336
869.694336,321
869.811707,319
869.929016,323
870.046326,310
870.163635,314
870.280945,329
870.398254,320
870.515564,331
870.632812,313
870.750183,327
870.867432,318
870.984741,333
871.102051,308
871.219299,329
871.336609,327
871.453918,314
871.571106,323
871.688416,325
871.805664,321
871.922852,316
872.040222,306
872.157471,328
872.274719,329
872.391968,334
872.509155,314
872.626465,329
872.743652,314
872.860962,328
872.978149,315
873.095337,331
873.212646,311
873.329834,321
873.44696,316
873.564209,321
873.681396,318
873.798645,304
873.915894,312
874.03302,326
874.150208,329
874.267456,330
874.384583,309
874.501831,316
874.618958,327
874.736145,326
874.853333,321
874.970459,321
875.087646,308
875.204834,319
875.32196,316
875.439148,306
875.556274,306
875.673401,309
875.790527,321
875.907715,306
876.024841,308
876.141968,324
876.259094,316
876.376282,316
876.493347,316
876.610474,331
876.7276,315
876.844727,323
876.961853,330
877.078918,335
877.195984,315
877.313171,319
877.430237,333
877.547302,324
877.664368,324
877.781433,326
877.898499,312
878.015625,331
878.13269,323
878.249695,317
878.366821,315
878.483887,315
878.600952,319
878.717957,316
878.834961,313
878.952087,321
879.069092,316
879.186157,325
879.303162,318
879.420227,333
879.537231,321
879.654236,316
879.77124,321
879.888306,318
880.005249,308
880.122314,326
880.239319,321
880.356323,322
880.473328,312
880.590271,325
880.707275,323
880.824341,319
880.941284,317
881.058228,321
881.175232,315
881.292236,323
881.40918,295
881.526123,313
881.643066,320
881.760071,309
881.877014,325
881.993958,330
882.11084,315
882.227783,328
882.344727,314
882.46167,312
882.578613,321
882.695618,319
882.812439,308
882.929382,320
883.046326,320
883.163208,317
883.280151,314
883.397034,335
883.513916,301
883.630798,327
883.747742,305
883.864563,313
883.981506,305
884.098389,314
884.21521,307
884.332153,325
884.448975,318
884.565796,314
884.682678,330
884.7995,312
884.916443,326
885.033264,332
885.150085,314
885.266968,304
885.383789,322
885.500671,334
885.617493,321
885.734314,318
885.851196,327
885.967896,332
886.084717,319
886.201599,320
886.318359,318
886.435181,311
886.552002,324
886.668762,321
886.785645,313
886.902344,324
887.019165,327
887.135925,321
887.252747,326
887.369446,326
887.486267,317
887.603027,317
887.719788,328
887.836548,323
887.953247,325
888.070068,319
888.186829,318
888.303528,324
888.420288,303
888.536987,335
888.653687,315
888.770447,316
888.887146,335
889.003967,319
889.120667,313
889.237305,322
889.354065,327
889.470703,331
889.587463,316
889.704163,309
889.820862,323
889.937561,311
890.054199,313
890.170837,319
890.287598,321
890.404236,330
890.520874,305
890.637634,313
890.754211,312
890.87085,321
890.987549,324
891.104187,315
891.220886,313
891.337463,313
891.454102,306
891.57074,319
891.687378,323
891.804077,319
891.920654,319
892.037231,316
892.15387,308
892.270447,324
892.387085,318
892.503723,327
892.6203,310
892.736877,325
892.853516,310
892.970032,315
893.08667,300
893.203186,332
893.319763,325
893.43634,328
893.552917,316
893.669556,329
893.786011,311
893.902588,318
894.019165,310
894.135681,327
894.252197,300
894.368835,334
894.485291,324
894.601868,323
894.718384,314
894.8349,303
894.951355,316
895.067932,323
895.184448,312
895.300964,323
895.417419,297
895.533936,334
895.650452,329
895.766907,310
895.883423,321
895.999878,318
896.116333,329
896.232849,317
896.349304,319
896.465759,321
896.582214,317
896.698669,317
896.815125,324
896.931641,323
897.048035,316
897.164551,312
897.280884,307
897.397339,324
897.513794,313
897.630249,322
897.746582,316
897.863098,326
897.979431,331
898.095886,334
898.212341,323
898.328674,323
898.445129,315
898.561462,331
898.677795,320
898.794312,313
898.910645,315
899.026978,316
899.143433,323
899.259766,324
899.37616,328
899.492493,322
899.608765,313
899.725159,325
899.841553,310
899.957947,321
900.07428,319
900.190552,314
900.306946,312
900.423157,326
900.53949,320
900.655884,325
900.772156,309
900.888489,320
901.004822,317
901.121033,321
901.237366,317
901.353699,323
901.46991,309
901.586304,323
901.702515,319
901.818787,315
901.93512,318
902.051331,320
902.167603,315
902.283875,318
902.400085,308
902.516418,329
902.632629,308
902.74884,318
902.865112,327
902.981384,320
903.097595,312
903.213867,322
903.330017,316
903.446289,329
903.5625,311
903.67865,328
903.794922,299
903.911072,326
904.027344,329
904.143494,324
904.259705,324
904.375916,328
904.492065,319
904.608215,317
904.724426,318
904.840576,314
904.956726,301
905.072876,318
905.189087,314
905.305176,326
905.421387,324
905.537537,321
905.653687,314
905.769775,313
905.885925,319
906.002014,323
906.118164,326
906.234314,328
906.350403,323
906.466492,322
906.582642,316
906.69873,338
906.814758,319
906.930908,318
907.046936,310
907.163086,310
907.279175,318
907.395264,321
907.511353,313
907.62738,321
907.743408,330
907.859497,323
907.975525,305
908.091553,328
908.207703,318
908.32373,332
908.439758,313
908.555786,328
908.671814,322
908.787842,319
908.90387,321
909.019775,322
909.135864,307
909.251892,328
909.367859,307
909.483826,321
909.599854,314
909.715881,316
909.831848,313
909.947815,315
910.063782,315
910.179749,325
910.295776,301
910.411743,321
910.527649,320
910.643616,327
910.759583,324
910.875488,331
910.991455,314
911.107361,319
911.223267,316
911.339294,323
911.4552,306
911.571106,318
911.687073,314
911.802979,326
911.918823,320
912.034729,324
912.150635,334
912.266602,327
912.382446,314
912.498352,314
912.614197,317
912.730103,322
912.846008,312
792.44574,332
792.56488,364
792.68396,429
792.80304,402
792.92218,367
793.041199,336
793.160339,355
793.279419,353
793.398499,359
793.517578,329
793.636658,327
793.755737,342
793.874817,360
793.993896,341
794.112976,342
794.232056,333
794.351074,322
794.470215,352
794.589233,349
794.708313,333
794.827393,348
794.946411,349
795.065552,363
795.18457,348
795.303589,330
795.422668,342
795.541687,337
795.660767,340
795.779846,343
795.898865,338
796.017883,337
796.136963,352
796.255981,342
796.375061,332
796.49408,341
796.613037,331
796.732117,338
796.851135,339
796.970154,333
797.089233,333
797.208191,324
797.327271,347
797.446228,333
797.565186,332
797.684265,335
797.803223,334
797.922241,344
798.04126,315
798.160278,336
798.279297,351
798.398315,342
798.517273,346
798.636292,340
798.75531,324
798.874268,346
798.993286,339
799.112244,322
799.231323,335
799.350281,338
799.469238,333
799.588257,333
799.707153,329
799.826111,340
799.945129,343
800.064087,333
800.183044,331
800.302063,332
800.421021,320
800.539978,345
800.658936,338
800.777893,334
800.896912,327
801.015747,320
801.134705,335
801.253723,323
801.37262,331
801.491638,338
801.610535,315
801.729492,334
801.84845,330
801.967407,329
802.086243,323
802.205261,329
802.324158,333
802.443115,324
802.562073,336
802.680969,328
802.799927,333
802.918762,354
803.037659,326
803.156677,329
803.275574,328
803.39447,338
803.513428,320
803.632263,329
803.751221,322
803.870117,330
803.989014,326
804.107971,327
804.226746,329
804.345642,344
804.4646,326
804.583496,332
804.702393,329
804.821228,313
804.940125,337
805.059021,343
805.177917,334
805.296814,317
805.415649,331
805.534546,339
805.653442,330
805.772278,331
805.891113,321
806.01001,332
806.128906,334
806.247742,332
806.366577,326
806.485413,336
806.604309,331
806.723145,327
806.84198,340
806.960876,330
807.079712,328
807.198486,335
807.317383,328
807.436218,327
807.554993,333
807.673889,335
807.792725,315
807.91156,341
808.030396,325
808.14917,347
808.268005,330
808.386841,337
808.505676,343
808.624451,341
808.743286,336
808.862122,333
808.980896,322
809.099731,331
809.218506,335
809.337341,323
809.456116,332
809.57489,321
809.693726,329
809.8125,328
809.931274,322
810.050049,326
810.168884,337
810.287659,319
810.406372,335
810.525269,344
810.643982,342
810.762756,331
810.881531,324
811.000305,323
811.11908,334
811.237854,321
811.356567,320
811.475403,328
811.594116,317
811.71283,330
811.831604,329
811.950378,332
812.069153,323
812.187927,335
812.30658,329
812.425415,327
812.544128,332
812.662781,326
812.781616,322
812.900269,337
813.019043,319
813.137756,335
813.256531,317
813.375244,339
813.493896,326
813.612671,323
813.731384,320
813.850037,336
813.96875,334
814.087524,329
814.206238,320
814.324951,325
814.443604,330
814.562256,322
814.68103,322
814.799683,329
814.918335,340
815.037109,328
815.155762,313
815.274475,323
815.393188,330
815.511841,322
815.630554,320
815.749146,325
815.867859,329
815.986572,335
816.105164,338
816.223877,343
816.342529,330
816.461182,331
816.579895,332
816.698486,337
816.817139,326
816.935791,310
817.054504,332
817.173096,320
817.291748,319
817.4104,331
817.529053,338
817.647644,328
817.766235,316
817.884949,320
818.00354,338
818.122192,311
818.240845,342
818.359436,326
818.478088,329
818.59668,324
818.715271,313
818.833923,328
818.952515,310
819.071106,329
819.189758,315
819.30835,318
819.426941,315
819.545532,312
819.664124,321
819.782715,321
819.901306,324
820.019897,324
820.138489,318
820.25708,328
820.375671,322
820.494202,325
820.612732,315
820.731384,318
820.849915,320
820.968506,318
821.087097,298
821.205627,313
821.324158,313
821.442749,327
821.561279,328
821.679871,326
821.798401,327
821.916931,318
822.035461,324
822.154053,319
822.272583,327
822.391174,305
822.509583,316
822.628174,320
822.746704,327
822.865234,312
822.983765,312
823.102295,320
823.220825,306
823.339294,318
823.457825,307
823.576355,307
823.694824,325
823.813354,328
823.931885,311
824.050354,318
824.168884,299
824.287354,329
824.405823,319
824.524353,320
824.642822,314
824.761353,321
824.879822,314
824.998291,330
825.116699,323
825.235291,325
825.353699,314
825.472168,316
825.590637,324
825.709106,315
825.827576,319
825.946045,319
826.064453,320
826.182983,325
826.301392,312
826.4198,302
826.53833,328
826.656738,313
826.775208,311
826.893677,320
827.012024,310
827.130493,314
827.248962,323
827.36731,330
827.485779,311
827.604248,309
827.722595,326
827.841064,319
827.959412,313
828.077942,308
828.196289,315
828.314636,328
828.433105,314
828.551514,317
828.669861,318
828.78833,325
828.906677,332
829.025085,327
829.143433,322
829.261841,315
829.38031,310
829.498657,317
829.617004,317
829.735413,309
829.85376,313
829.972107,314
830.090515,317
830.208862,313
830.327209,326
830.445557,315
830.563904,329
830.682312,319
830.800659,313
830.919006,315
831.037354,332
831.155701,332
831.274048,319
831.392395,324
831.51062,334
831.629028,322
831.747314,309
831.865662,320
831.984009,324
832.102356,326
832.220642,314
832.338928,325
832.457275,306
832.575623,320
832.693909,324
832.812134,325
832.930481,318
833.048828,318
833.167114,314
833.2854,323
833.403687,313
833.521973,329
833.640259,308
833.758545,324
833.876831,309
833.995056,316
834.113281,310
834.231628,322
834.349915,316
834.468201,312
834.586426,313
834.704651,327
834.822998,307
834.941162,321
835.059448,312
835.177673,315
835.295959,317
835.414246,315
835.53241,301
835.650635,316
835.768921,313
835.887146,319
836.005371,318
836.123596,318
836.241821,312
836.360046,318
836.478271,332
836.596497,324
836.714722,304
836.832886,334
836.95105,325
837.069336,319
837.1875,307
837.305725,311
837.423889,316
837.542053,321
837.660339,324
837.778503,320
837.896667,310
838.014832,332
838.132996,328
838.25116,315
838.369385,312
838.487488,325
838.605713,317
838.723877,322
838.84198,299
838.960205,312
839.078308,317
839.196472,313
839.314636,328
839.4328,317
839.550964,312
839.669067,318
839.787231,323
839.905396,326
840.023499,309
840.141602,334
840.259766,318
840.377869,326
840.495972,325
840.614136,303
840.732239,316
840.850342,320
840.968445,318
841.086548,320
841.204651,329
841.322754,315
841.440918,313
841.55896,323
841.677002,314
841.795166,333
841.913208,312
842.031311,329
842.149353,317
842.267456,324
842.385498,318
842.503601,327
842.621643,318
842.739746,315
842.857788,320
842.97583,321
843.093933,320
843.211975,326
843.330017,314
843.44812,341
843.566101,308
843.684204,320
843.802246,314
843.920227,322
844.038269,323
844.156311,319
844.274292,311
844.392395,326
844.510376,315
844.628357,325
844.74646,320
844.864441,327
844.982422,307
845.100403,322
845.218384,310
845.336426,318
845.454468,305
845.572449,317
845.69043,320
845.808411,316
845.926453,311
846.044373,320
846.162354,315
846.280396,323
846.398315,315
846.516296,314
846.634216,319
846.752197,328
846.870178,304
846.988098,309
847.106079,319
847.22406,322
847.34198,327
847.4599,327
847.577881,325
847.695801,325
847.813782,322
847.931641,337
848.049561,323
848.167603,327
848.285461,312
848.403381,328
848.521362,318
848.639221,323
848.75708,322
848.875,335
848.99292,310
849.110901,314
849.22876,320
849.34668,326
849.464539,328
849.582458,326
849.700317,297
849.818176,323
849.936096,308
850.053955,314
850.171875,320
850.289673,337
850.407593,321
850.525452,318
850.643311,307
850.761169,330
850.878967,313
850.996887,321
851.114746,317
851.232544,321
851.350403,316
851.468262,323
851.58606,307
851.703979,314
851.821777,326
851.939636,330
852.057434,314
852.175232,307
852.293091,320
852.410889,307
852.528687,313
852.646545,327
852.764343,315
852.88208,312
852.999939,329
853.117676,324
853.235535,302
853.353271,333
853.471069,319
853.588928,319
853.706604,314
853.824402,315
853.9422,312
854.059998,325
854.177734,313
854.295532,330
854.413269,300
854.531006,322
854.648804,317
854.766541,321
854.884277,315
855.002014,307
855.119751,313
855.237549,314
855.355225,319
855.473022,318
855.590698,309
855.708435,326
855.826172,318
855.943848,318
856.061646,323
856.179321,314
856.296997,319
856.414795,320
856.53241,321
856.650085,323
856.767822,317
856.885559,325
857.003174,302
857.120911,321
857.238586,308
857.356201,314
857.473938,308
857.591614,320
857.709351,323
857.826965,340
857.944641,313
858.062317,325
858.179993,323
858.297668,330
858.415283,326
858.532959,324
858.650574,323
858.768188,331
858.885803,323
859.003479,319
859.121094,324
859.23877,334
859.356384,323
859.473999,307
859.591675,312
859.709229,314
859.826843,323
859.944458,330
860.062012,311
860.179626,328
860.297302,314
860.414856,318
860.532471,323
860.650024,320
860.767639,308
860.885193,303
861.002808,316
861.120361,303
861.237976,324
861.35553,323
861.473022,306
861.590698,326
861.708191,318
861.825745,326
861.943298,321
862.060852,322
862.178406,308
862.295959,320
862.413513,313
862.531006,321
862.64856,316
862.766113,331
862.883667,306
863.00116,324
863.118713,315
863.236206,318
863.353699,319
863.471252,321
863.588745,317
863.706177,324
863.82373,310
863.941162,330
864.058716,313
864.176208,316
864.29364,311
864.411194,329
864.528687,308
864.646118,324
864.763611,319
864.881042,314
864.998535,320
865.116028,324
865.233459,315
865.350891,328
865.468384,328
865.585754,328
865.703308,325
865.820679,316
865.938171,309
866.055542,319
866.173035,303
866.290466,333
866.407837,318
866.52533,328
866.6427,311
866.760071,324
866.877563,315
866.994934,324
867.112305,322
867.229736,316
867.347107,309
867.464539,336
867.58197,319
867.699341,314
867.81665,309
867.934082,323
868.051453,304
868.168823,322
868.286194,318
868.403564,324
868.520935,328
868.638306,324
868.755676,308
868.872986,315
868.990295,305
869.107727,322
869.225037,307
869.342346,322
869.459717,304
869.577026,317
869.694336,309
869.811707,319
869.929016,324
870.046326,329
870.163635,304
870.280945,325
870.398254,320
870.515564,320
870.632812,330
870.750183,317
870.867432,318
870.984741,336
871.102051,315
871.219299,316
871.336609,312
871.453918,325
871.571106,317
871.688416,322
871.805664,326
871.922852,332
872.040222,322
872.157471,333
872.274719,321
872.391968,314
872.509155,322
872.626465,323
872.743652,331
872.860962,325
872.978149,308
873.095337,317
873.212646,324
873.329834,315
873.44696,312
873.564209,317
873.681396,321
873.798645,323
873.915894,324
874.03302,333
874.150208,319
874.267456,323
874.384583,309
874.501831,326
874.618958,312
874.736145,316
874.853333,306
874.970459,330
875.087646,309
875.204834,314
875.32196,318
875.439148,311
875.556274,321
875.673401,330
875.790527,309
875.907715,318
876.024841,320
876.141968,319
876.259094,316
876.376282,320
876.493347,332
876.610474,319
876.7276,308
876.844727,322
876.961853,321
877.078918,323
877.195984,317
877.313171,325
877.430237,319
877.547302,309
877.664368,323
877.781433,319
877.898499,304
878.015625,331
878.13269,317
878.249695,318
878.366821,315
878.483887,299
878.600952,310
878.717957,329
878.834961,310
878.952087,326
879.069092,314
879.186157,319
879.303162,322
879.420227,328
879.537231,310
879.654236,323
879.77124,326
879.888306,314
880.005249,308
880.122314,330
880.239319,320
880.356323,330
880.473328,315
880.590271,317
880.707275,309
880.824341,325
880.941284,321
881.058228,312
881.175232,314
881.292236,326
881.40918,310
881.526123,315
881.643066,323
881.760071,323
881.877014,313
881.993958,324
882.11084,308
882.227783,315
882.344727,329
882.46167,315
882.578613,313
882.695618,327
882.812439,309
882.929382,323
883.046326,316
883.163208,305
883.280151,321
883.397034,326
883.513916,318
883.630798,317
883.747742,299
883.864563,322
883.981506,311
884.098389,318
884.21521,314
884.332153,323
884.448975,321
884.565796,321
884.682678,319
884.7995,325
884.916443,314
885.033264,314
885.150085,316
885.266968,319
885.383789,325
885.500671,319
885.617493,333
885.734314,334
885.851196,321
885.967896,324
886.084717,322
886.201599,327
886.318359,330
886.435181,337
886.552002,317
886.668762,324
886.785645,319
886.902344,323
887.019165,323
887.135925,336
887.252747,312
887.369446,322
887.486267,321
887.603027,330
887.719788,320
887.836548,332
887.953247,326
888.070068,335
888.186829,326
888.303528,315
888.420288,302
888.536987,319
888.653687,306
888.770447,325
888.887146,312
889.003967,319
889.120667,321
889.237305,313
889.354065,313
889.470703,319
889.587463,312
889.704163,327
889.820862,311
889.937561,315
890.054199,316
890.170837,325
890.287598,315
890.404236,311
890.520874,319
890.637634,317
890.754211,308
890.87085,332
890.987549,322
891.104187,330
891.220886,304
891.337463,333
891.454102,322
891.57074,330
891.687378,328
891.804077,317
891.920654,320
892.037231,315
892.15387,325
892.270447,305
892.387085,320
892.503723,309
892.6203,314
892.736877,317
892.853516,316
892.970032,312
893.08667,313
893.203186,328
893.319763,309
893.43634,317
893.552917,308
893.669556,319
893.786011,323
893.902588,322
894.019165,304
894.135681,319
894.252197,318
894.368835,334
894.485291,308
894.601868,329
894.718384,314
894.8349,329
894.951355,301
895.067932,323
895.184448,322
895.300964,315
895.417419,319
895.533936,319
895.650452,313
895.766907,315
895.883423,310
895.999878,317
896.116333,328
896.232849,325
896.349304,310
896.465759,322
896.582214,321
896.698669,309
896.815125,309
896.931641,313
897.048035,313
897.164551,316
897.280884,301
897.397339,326
897.513794,314
897.630249,326
897.746582,313
897.863098,314
897.979431,307
898.095886,319
898.212341,318
898.328674,312
898.445129,304
898.561462,313
898.677795,312
898.794312,324
898.910645,320
899.026978,316
899.143433,299
899.259766,322
899.37616,314
899.492493,318
899.608765,306
899.725159,313
899.841553,300
899.957947,314
900.07428,318
900.190552,317
900.306946,331
900.423157,320
900.53949,318
900.655884,326
900.772156,302
900.888489,325
901.004822,327
901.121033,318
901.237366,296
901.353699,321
901.46991,308
901.586304,323
901.702515,324
901.818787,320
901.93512,319
902.051331,329
902.167603,310
902.283875,329
902.400085,308
902.516418,322
902.632629,323
902.74884,339
902.865112,319
902.981384,317
903.097595,328
903.213867,318
903.330017,313
903.446289,318
903.5625,318
903.67865,346
903.794922,318
903.911072,315
904.027344,308
904.143494,320
904.259705,315
904.375916,313
904.492065,324
904.608215,315
904.724426,318
904.840576,313
904.956726,304
905.072876,313
905.189087,321
905.305176,318
905.421387,307
905.537537,310
905.653687,313
905.769775,326
905.885925,313
906.002014,310
906.118164,314
906.234314,322
906.350403,322
906.466492,329
906.582642,305
906.69873,325
906.814758,330
906.930908,322
907.046936,310
907.163086,322
907.279175,312
907.395264,315
907.511353,316
907.62738,314
907.743408,304
907.859497,318
907.975525,299
908.091553,321
908.207703,323
908.32373,315
908.439758,316
908.555786,321
908.671814,317
908.787842,311
908.90387,320
909.019775,333
909.135864,321
909.251892,317
909.367859,312
909.483826,331
909.599854,318
909.715881,317
909.831848,302
909.947815,335
910.063782,326
910.179749,312
910.295776,314
910.411743,313
910.527649,332
910.643616,313
910.759583,298
910.875488,309
910.991455,319
911.107361,304
911.223267,321
911.339294,319
911.4552,306
911.571106,319
911.687073,315
911.802979,316
911.918823,308
912.034729,330
912.150635,316
912.266602,319
912.382446,310
912.498352,327
912.614197,304
912.730103,326
912.846008,319
792.44574,338
792.56488,368
792.68396,422
792.80304,397
792.92218,354
793.041199,323
793.160339,338
793.279419,352
793.398499,351
793.517578,331
793.636658,355
793.755737,347
793.874817,360
793.993896,347
794.112976,343
794.232056,343
794.351074,324
794.470215,337
794.589233,341
794.708313,344
794.827393,351
794.946411,338
795.065552,349
795.18457,350
795.303589,349
795.422668,340
795.541687,348
795.660767,346
795.779846,349
795.898865,338
796.017883,334
796.136963,330
796.255981,324
796.375061,340
796.49408,342
796.613037,334
796.732117,332
796.851135,334
796.970154,330
797.089233,322
797.208191,335
797.327271,337
797.446228,344
797.565186,333
797.684265,344
797.803223,333
797.922241,337
798.04126,343
798.160278,331
798.279297,336
798.398315,341
798.517273,325
798.636292,334
798.75531,324
798.874268,348
798.993286,326
799.112244,338
799.231323,336
799.350281,346
799.469238,322
799.588257,337
799.707153,345
799.826111,329
799.945129,326
800.064087,328
800.183044,340
800.302063,338
800.421021,334
800.539978,346
800.658936,331
800.777893,324
800.896912,341
801.015747,337
801.134705,330
801.253723,342
801.37262,332
801.491638,332
801.610535,334
801.729492,334
801.84845,337
801.967407,331
802.086243,336
802.205261,328
802.324158,332
802.443115,329
802.562073,331
802.680969,342
802.799927,321
802.918762,346
803.037659,329
803.156677,347
803.275574,328
803.39447,337
803.513428,333
803.632263,327
803.751221,329
803.870117,329
803.989014,345
804.107971,322
804.226746,333
804.345642,331
804.4646,335
804.583496,339
804.702393,335
804.821228,325
804.940125,317
805.059021,339
805.177917,338
805.296814,330
805.415649,335
805.534546,324
805.653442,333
805.772278,325
805.891113,327
806.01001,354
806.128906,334
806.247742,331
806.366577,325
806.485413,331
806.604309,328
806.723145,330
806.84198,340
806.960876,327
807.079712,330
807.198486,321
807.317383,337
807.436218,341
807.554993,333
807.673889,335
807.792725,325
807.91156,328
808.030396,324
808.14917,319
808.268005,332
808.386841,324
808.505676,315
808.624451,343
808.743286,326
808.862122,323
808.980896,321
809.099731,331
809.218506,323
809.337341,332
809.456116,318
809.57489,330
809.693726,330
809.8125,329
809.931274,327
810.050049,337
810.168884,327
810.287659,328
810.406372,338
810.525269,334
810.643982,320
810.762756,335
810.881531,331
811.000305,345
811.11908,335
811.237854,329
811.356567,331
811.475403,341
811.594116,335
811.71283,336
811.831604,333
811.950378,342
812.069153,325
812.187927,338
812.30658,338
812.425415,329
812.544128,327
812.662781,328
812.781616,327
812.900269,339
813.019043,312
813.137756,329
813.256531,326
813.375244,339
813.493896,320
813.612671,342
813.731384,330
813.850037,339
813.96875,332
814.087524,338
814.206238,328
814.324951,329
814.443604,335
814.562256,335
814.68103,327
814.799683,330
814.918335,338
815.037109,343
815.155762,328
815.274475,336
815.393188,326
815.511841,340
815.630554,328
815.749146,338
815.867859,338
815.986572,328
816.105164,325
816.223877,324
816.342529,346
816.461182,329
816.579895,344
816.698486,328
816.817139,333
816.935791,325
817.054504,324
817.173096,333
817.291748,327
817.4104,333
817.529053,333
817.647644,336
817.766235,311
817.884949,325
818.00354,324
818.122192,325
818.240845,317
818.359436,322
818.478088,319
818.59668,330
818.715271,319
818.833923,319
818.952515,331
819.071106,343
819.189758,320
819.30835,311
819.426941,326
819.545532,325
819.664124,324
819.782715,323
819.901306,326
820.019897,331
820.138489,305
820.25708,318
820.375671,316
820.494202,326
820.612732,315
820.731384,320
820.849915,324
820.968506,331
821.087097,328
821.205627,315
821.324158,331
821.442749,312
821.561279,312
821.679871,322
821.798401,328
821.916931,327
822.035461,319
822.154053,319
822.272583,315
822.391174,325
822.509583,323
822.628174,333
822.746704,333
822.865234,321
822.983765,308
823.102295,305
823.220825,311
823.339294,321
823.457825,319
823.576355,316
823.694824,313
823.813354,329
823.931885,315
824.050354,334
824.168884,315
824.287354,330
824.405823,319
824.524353,329
824.642822,337
824.761353,316
824.879822,323
824.998291,322
825.116699,324
825.235291,331
825.353699,317
825.472168,317
825.590637,326
825.709106,328
825.827576,320
825.946045,333
826.064453,333
826.182983,318
826.301392,321
826.4198,325
826.53833,318
826.656738,321
826.775208,333
826.893677,303
827.012024,327
827.130493,328
827.248962,322
827.36731,320
827.485779,306
827.604248,327
827.722595,329
827.841064,316
827.959412,313
828.077942,318
828.196289,307
828.314636,322
828.433105,310
828.551514,320
828.669861,319
828.78833,325
828.906677,323
829.025085,321
829.143433,318
829.261841,324
829.38031,316
829.498657,327
829.617004,308
829.735413,321
829.85376,315
829.972107,312
830.090515,325
830.208862,319
830.327209,313
830.445557,320
830.563904,321
830.682312,330
830.800659,313
830.919006,312
831.037354,318
831.155701,322
831.274048,318
831.392395,321
831.51062,328
831.629028,328
831.747314,314
831.865662,319
831.984009,306
832.102356,323
832.220642,316
832.338928,331
832.457275,331
832.575623,313
832.693909,322
832.812134,321
832.930481,323
833.048828,318
833.167114,326
833.2854,325
833.403687,316
833.521973,332
833.640259,310
833.758545,327
833.876831,319
833.995056,330
834.113281,322
834.231628,322
834.349915,317
834.468201,331
834.586426,319
834.704651,312
834.822998,328
834.941162,317
835.059448,315
835.177673,330
835.295959,314
835.414246,315
835.53241,320
835.650635,328
835.768921,324
835.887146,318
836.005371,322
836.123596,328
836.241821,326
836.360046,315
836.478271,326
836.596497,321
836.714722,312
836.832886,319
836.95105,323
837.069336,314
837.1875,317
837.305725,332
837.423889,331
837.542053,327
837.660339,314
837.778503,314
837.896667,327
838.014832,338
838.132996,322
838.25116,312
838.369385,325
838.487488,319
838.605713,325
838.723877,321
838.84198,319
838.960205,318
839.078308,314
839.196472,330
839.314636,316
839.4328,323
839.550964,323
839.669067,328
839.787231,307
839.905396,320
840.023499,314
840.141602,327
840.259766,332
840.377869,320
840.495972,319
840.614136,343
840.732239,317
840.850342,309
840.968445,331
841.086548,327
841.204651,311
841.322754,322
841.440918,313
841.55896,329
841.677002,310
841.795166,315
841.913208,329
842.031311,319
842.149353,319
842.267456,323
842.385498,328
842.503601,321
842.621643,317
842.739746,312
842.857788,322
842.97583,321
843.093933,321
843.211975,307
843.330017,309
843.44812,333
843.566101,329
843.684204,331
843.802246,321
843.920227,311
844.038269,321
844.156311,320
844.274292,299
844.392395,324
844.510376,326
844.628357,324
844.74646,321
844.864441,310
844.982422,322
845.100403,314
845.218384,310
845.336426,320
845.454468,313
845.572449,321
845.69043,324
845.808411,322
845.926453,328
846.044373,312
846.162354,311
846.280396,319
846.398315,316
846.516296,331
846.634216,310
846.752197,324
846.870178,312
846.988098,315
847.106079,327
847.22406,319
847.34198,316
847.4599,316
847.577881,311
847.695801,323
847.813782,309
847.931641,322
848.049561,325
848.167603,324
848.285461,318
848.403381,333
848.521362,311
848.639221,320
848.75708,308
848.875,327
848.99292,324
849.110901,321
849.22876,336
849.34668,315
849.464539,315
849.582458,327
849.700317,315
849.818176,325
849.936096,320
850.053955,317
850.171875,322
850.289673,325
850.407593,315
850.525452,327
850.643311,317
850.761169,321
850.878967,314
850.996887,324
851.114746,310
851.232544,322
851.350403,325
851.468262,302
851.58606,314
851.703979,312
851.821777,323
851.939636,316
852.057434,300
852.175232,320
852.293091,316
852.410889,323
852.528687,318
852.646545,331
852.764343,329
852.88208,317
852.999939,313
853.117676,315
853.235535,315
853.353271,332
853.471069,314
853.588928,342
853.706604,317
853.824402,330
853.9422,323
854.059998,324
854.177734,318
854.295532,329
854.413269,325
854.531006,332
854.648804,311
854.766541,330
854.884277,320
855.002014,338
855.119751,316
855.237549,331
855.355225,317
855.473022,311
855.590698,319
855.708435,322
855.826172,313
855.943848,322
856.061646,325
856.179321,317
856.296997,321
856.414795,325
856.53241,318
856.650085,327
856.767822,315
856.885559,319
857.003174,317
857.120911,327
857.238586,319
857.356201,322
857.473938,334
857.591614,313
857.709351,319
857.826965,313
857.944641,330
858.062317,319
858.179993,318
858.297668,318
858.415283,315
858.532959,328
858.650574,318
858.768188,318
858.885803,327
859.003479,318
859.121094,327
859.23877,338
859.356384,316
859.473999,333
859.591675,316
859.709229,326
859.826843,317
859.944458,322
860.062012,311
860.179626,328
860.297302,325
860.414856,321
860.532471,318
860.650024,325
860.767639,324
860.885193,314
861.002808,316
861.120361,319
861.237976,316
861.35553,324
861.473022,314
861.590698,331
861.708191,318
861.825745,321
861.943298,318
862.060852,336
862.178406,327
862.295959,332
862.413513,326
862.531006,311
862.64856,292
862.766113,324
862.883667,316
863.00116,318
863.118713,313
863.236206,320
863.353699,320
863.471252,326
863.588745,332
863.706177,318
863.82373,311
863.941162,312
864.058716,317
864.176208,324
864.29364,322
864.411194,344
864.528687,325
864.646118,322
864.763611,314
864.881042,320
864.998535,313
865.116028,334
865.233459,332
865.350891,320
865.468384,315
865.585754,324
865.703308,315
865.820679,322
865.938171,302
866.055542,332
866.173035,311
866.290466,322
866.407837,319
866.52533,320
866.6427,306
866.760071,306
866.877563,323
866.994934,329
867.112305,329
867.229736,316
867.347107,318
867.464539,330
867.58197,316
867.699341,325
867.81665,319
867.934082,319
868.051453,302
868.168823,324
868.286194,321
868.403564,306
868.520935,318
868.638306,313
868.755676,314
868.872986,341
868.990295,315
869.107727,305
869.225037,319
869.342346,332
869.459717,310
869.577026,315
869.694336,328
869.811707,330
869.929016,319
870.046326,322
870.163635,315
870.280945,321
870.398254,304
870.515564,324
870.632812,308
870.750183,321
870.867432,314
870.984741,317
871.102051,313
871.219299,320
871.336609,328
871.453918,330
871.571106,324
871.688416,320
871.805664,325
871.922852,335
872.040222,302
872.157471,336
872.274719,315
872.391968,330
872.509155,318
872.626465,322
872.743652,319
872.860962,323
872.978149,314
873.095337,314
873.212646,319
873.329834,326
873.44696,332
873.564209,315
873.681396,314
873.798645,314
873.915894,319
874.03302,315
874.150208,316
874.267456,322
874.384583,304
874.501831,336
874.618958,303
874.736145,348
874.853333,308
874.970459,319
875.087646,313
875.204834,317
875.32196,316
875.439148,323
875.556274,316
875.673401,315
875.790527,316
875.907715,310
876.024841,318
876.141968,329
876.259094,316
876.376282,327
876.493347,325
876.610474,326
876.7276,321
876.844727,320
876.961853,308
877.078918,327
877.195984,329
877.313171,321
877.430237,314
877.547302,316
877.664368,326
877.781433,327
877.898499,323
878.015625,326
878.13269,306
878.249695,342
878.366821,312
878.483887,321
878.600952,314
878.717957,325
878.834961,329
878.952087,317
879.069092,308
879.186157,330
879.303162,327
879.420227,324
879.537231,317
879.654236,317
879.77124,322
879.888306,326
880.005249,327
880.122314,317
880.239319,308
880.356323,317
880.473328,312
880.590271,314
880.707275,330
880.824341,326
880.941284,315
881.058228,321
881.175232,328
881.292236,328
881.40918,311
881.526123,333
881.643066,318
881.760071,321
881.877014,332
881.993958,311
882.11084,312
882.227783,304
882.344727,315
882.46167,328
882.578613,307
882.695618,309
882.812439,298
882.929382,332
883.046326,316
883.163208,326
883.280151,312
883.397034,309
883.513916,312
883.630798,322
883.747742,315
883.864563,347
883.981506,313
884.098389,321
884.21521,315
884.332153,322
884.448975,326
884.565796,319
884.682678,321
884.7995,332
884.916443,324
885.033264,324
885.150085,329
885.266968,334
885.383789,315
885.500671,314
885.617493,316
885.734314,304
885.851196,318
885.967896,325
886.084717,324
886.201599,328
886.318359,322
886.435181,326
886.552002,327
886.668762,328
886.785645,323
886.902344,318
887.019165,302
887.135925,340
887.252747,302
887.369446,322
887.486267,300
887.603027,331
887.719788,317
887.836548,335
887.953247,305
888.070068,323
888.186829,320
888.303528,327
888.420288,317
888.536987,320
888.653687,314
888.770447,318
888.887146,313
889.003967,321
889.120667,308
889.237305,321
889.354065,312
889.470703,326
889.587463,327
889.704163,313
889.820862,300
889.937561,321
890.054199,319
890.170837,330
890.287598,319
890.404236,327
890.520874,318
890.637634,306
890.754211,313
890.87085,312
890.987549,314
891.104187,315
891.220886,316
891.337463,318
891.454102,328
891.57074,309
891.687378,317
891.804077,319
891.920654,311
892.037231,307
892.15387,324
892.270447,316
892.387085,326
892.503723,317
892.6203,317
892.736877,303
892.853516,323
892.970032,321
893.08667,308
893.203186,323
893.319763,308
893.43634,313
893.552917,303
893.669556,318
893.786011,309
893.902588,330
894.019165,325
894.135681,332
894.252197,305
894.368835,328
894.485291,298
894.601868,331
894.718384,310
894.8349,312
894.951355,308
895.067932,320
895.184448,314
895.300964,326
895.417419,307
895.533936,325
895.650452,306
895.766907,323
895.883423,322
895.999878,322
896.116333,317
896.232849,312
896.349304,308
896.465759,317
896.582214,311
896.698669,328
896.815125,317
896.931641,324
897.048035,325
897.164551,337
897.280884,313
897.397339,328
897.513794,319
897.630249,324
897.746582,322
897.863098,328
897.979431,322
898.095886,320
898.212341,303
898.328674,308
898.445129,317
898.561462,311
898.677795,322
898.794312,328
898.910645,312
899.026978,316
899.143433,306
899.259766,326
899.37616,319
899.492493,312
899.608765,301
899.725159,323
899.841553,310
899.957947,313
900.07428,300
900.190552,320
900.306946,310
900.423157,318
900.53949,323
900.655884,331
900.772156,315
900.888489,319
901.004822,315
901.121033,328
901.237366,314
901.353699,330
901.46991,312
901.586304,332
901.702515,299
901.818787,316
901.93512,317
902.051331,320
902.167603,317
902.283875,317
902.400085,323
902.516418,333
902.632629,314
902.74884,333
902.865112,325
902.981384,314
903.097595,317
903.213867,316
903.330017,316
903.446289,327
903.5625,308
903.67865,327
903.794922,307
903.911072,327
904.027344,320
904.143494,314
904.259705,319
904.375916,315
904.492065,307
904.608215,331
904.724426,325
904.840576,311
904.956726,324
905.072876,335
905.189087,303
905.305176,319
905.421387,308
905.537537,314
905.653687,321
905.769775,326
905.885925,312
906.002014,327
906.118164,307
906.234314,317
906.350403,303
906.466492,315
906.582642,323
906.69873,324
906.814758,323
906.930908,321
907.046936,318
907.163086,325
907.279175,304
907.395264,318
907.511353,321
907.62738,310
907.743408,318
907.859497,310
907.975525,317
908.091553,316
908.207703,311
908.32373,334
908.439758,314
908.555786,312
908.671814,306
908.787842,315
908.90387,322
909.019775,316
909.135864,318
909.251892,326
909.367859,315
909.483826,329
909.599854,315
909.715881,318
909.831848,319
909.947815,315
910.063782,335
910.179749,321
910.295776,311
910.411743,322
910.527649,317
910.643616,315
910.759583,318
910.875488,334
910.991455,313
911.107361,326
911.223267,304
911.339294,329
911.4552,318
911.571106,322
911.687073,322
911.802979,314
911.918823,320
912.034729,330
912.150635,318
912.266602,326
912.382446,308
912.498352,297
912.614197,311
912.730103,320
912.846008,319
