792.44574,367
792.56488,416
792.68396,438
792.80304,431
792.92218,399
793.041199,372
793.160339,366
793.279419,403
793.398499,362
793.517578,346
793.636658,368
793.755737,351
793.874817,381
793.993896,378
794.112976,365
794.232056,358
794.351074,370
794.470215,363
794.589233,377
794.708313,346
794.827393,363
794.946411,344
795.065552,362
795.18457,367
795.303589,352
795.422668,342
795.541687,346
795.660767,353
795.779846,361
795.898865,365
796.017883,348
796.136963,349
796.255981,366
796.375061,352
796.49408,348
796.613037,362
796.732117,333
796.851135,339
796.970154,339
797.089233,332
797.208191,344
797.327271,341
797.446228,338
797.565186,339
797.684265,333
797.803223,332
797.922241,329
798.04126,340
798.160278,346
798.279297,321
798.398315,352
798.517273,341
798.636292,348
798.75531,336
798.874268,335
798.993286,329
799.112244,325
799.231323,342
799.350281,337
799.469238,342
799.588257,330
799.707153,330
799.826111,335
799.945129,342
800.064087,328
800.183044,330
800.302063,330
800.421021,342
800.539978,337
800.658936,340
800.777893,334
800.896912,349
801.015747,336
801.134705,338
801.253723,331
801.37262,336
801.491638,329
801.610535,336
801.729492,316
801.84845,334
801.967407,328
802.086243,330
802.205261,341
802.324158,331
802.443115,340
802.562073,345
802.680969,320
802.799927,333
802.918762,336
803.037659,340
803.156677,327
803.275574,333
803.39447,340
803.513428,336
803.632263,352
803.751221,333
803.870117,346
803.989014,332
804.107971,332
804.226746,333
804.345642,342
804.4646,321
804.583496,339
804.702393,336
804.821228,339
804.940125,330
805.059021,335
805.177917,319
805.296814,325
805.415649,336
805.534546,319
805.653442,328
805.772278,327
805.891113,316
806.01001,325
806.128906,331
806.247742,324
806.366577,306
806.485413,341
806.604309,335
806.723145,332
806.84198,333
806.960876,333
807.079712,330
807.198486,327
807.317383,337
807.436218,341
807.554993,334
807.673889,321
807.792725,342
807.91156,335
808.030396,322
808.14917,322
808.268005,323
808.386841,333
808.505676,328
808.624451,328
808.743286,330
808.862122,335
808.980896,324
809.099731,330
809.218506,325
809.337341,314
809.456116,338
809.57489,329
809.693726,312
809.8125,324
809.931274,331
810.050049,345
810.168884,334
810.287659,326
810.406372,319
810.525269,334
810.643982,323
810.762756,323
810.881531,324
811.000305,337
811.11908,324
811.237854,319
811.356567,336
811.475403,334
811.594116,315
811.71283,337
811.831604,324
811.950378,334
812.069153,329
812.187927,331
812.30658,321
812.425415,342
812.544128,330
812.662781,325
812.781616,330
812.900269,331
813.019043,338
813.137756,325
813.256531,336
813.375244,321
813.493896,338
813.612671,323
813.731384,327
813.850037,335
813.96875,323
814.087524,335
814.206238,336
814.324951,329
814.443604,308
814.562256,338
814.68103,335
814.799683,327
814.918335,329
815.037109,324
815.155762,327
815.274475,329
815.393188,321
815.511841,327
815.630554,334
815.749146,325
815.867859,326
815.986572,323
816.105164,326
816.223877,324
816.342529,327
816.461182,325
816.579895,319
816.698486,338
816.817139,333
816.935791,332
817.054504,328
817.173096,337
817.291748,329
817.4104,323
817.529053,324
817.647644,334
817.766235,331
817.884949,331
818.00354,321
818.122192,324
818.240845,337
818.359436,327
818.478088,324
818.59668,324
818.715271,321
818.833923,331
818.952515,306
819.071106,327
819.189758,325
819.30835,328
819.426941,321
819.545532,314
819.664124,317
819.782715,331
819.901306,317
820.019897,325
820.138489,311
820.25708,340
820.375671,328
820.494202,326
820.612732,314
820.731384,317
820.849915,327
820.968506,320
821.087097,317
821.205627,327
821.324158,327
821.442749,330
821.561279,322
821.679871,326
821.798401,318
821.916931,326
822.035461,325
822.154053,333
822.272583,332
822.391174,319
822.509583,318
822.628174,318
822.746704,321
822.865234,312
822.983765,308
823.102295,336
823.220825,329
823.339294,328
823.457825,324
823.576355,336
823.694824,332
823.813354,341
823.931885,321
824.050354,313
824.168884,320
824.287354,337
824.405823,320
824.524353,312
824.642822,327
824.761353,324
824.879822,326
824.998291,325
825.116699,321
825.235291,317
825.353699,340
825.472168,334
825.590637,316
825.709106,313
825.827576,307
825.946045,334
826.064453,320
826.182983,337
826.301392,313
826.4198,341
826.53833,318
826.656738,331
826.775208,323
826.893677,328
827.012024,310
827.130493,325
827.248962,322
827.36731,326
827.485779,329
827.604248,321
827.722595,331
827.841064,326
827.959412,325
828.077942,325
828.196289,324
828.314636,327
828.433105,311
828.551514,316
828.669861,317
828.78833,312
828.906677,311
829.025085,323
829.143433,340
829.261841,323
829.38031,326
829.498657,317
829.617004,324
829.735413,325
829.85376,311
829.972107,316
830.090515,312
830.208862,314
830.327209,315
830.445557,334
830.563904,307
830.682312,325
830.800659,318
830.919006,330
831.037354,320
831.155701,320
831.274048,320
831.392395,322
831.51062,317
831.629028,309
831.747314,318
831.865662,311
831.984009,332
832.102356,326
832.220642,321
832.338928,313
832.457275,310
832.575623,321
832.693909,333
832.812134,340
832.930481,319
833.048828,314
833.167114,319
833.2854,331
833.403687,322
833.521973,316
833.640259,327
833.758545,327
833.876831,323
833.995056,321
834.113281,322
834.231628,317
834.349915,313
834.468201,333
834.586426,316
834.704651,317
834.822998,332
834.941162,315
835.059448,333
835.177673,323
835.295959,316
835.414246,320
835.53241,302
835.650635,332
835.768921,310
835.887146,315
836.005371,307
836.123596,317
836.241821,325
836.360046,326
836.478271,322
836.596497,312
836.714722,319
836.832886,334
836.95105,315
837.069336,319
837.1875,319
837.305725,317
837.423889,313
837.542053,320
837.660339,311
837.778503,327
837.896667,326
838.014832,325
838.132996,314
838.25116,328
838.369385,320
838.487488,336
838.605713,316
838.723877,328
838.84198,320
838.960205,302
839.078308,315
839.196472,331
839.314636,312
839.4328,333
839.550964,319
839.669067,327
839.787231,319
839.905396,315
840.023499,320
840.141602,331
840.259766,320
840.377869,343
840.495972,328
840.614136,321
840.732239,314
840.850342,320
840.968445,323
841.086548,329
841.204651,326
841.322754,334
841.440918,333
841.55896,324
841.677002,326
841.795166,325
841.913208,324
842.031311,330
842.149353,331
842.267456,323
842.385498,328
842.503601,325
842.621643,323
842.739746,335
842.857788,323
842.97583,319
843.093933,334
843.211975,339
843.330017,302
843.44812,336
843.566101,308
843.684204,336
843.802246,316
843.920227,332
844.038269,313
844.156311,315
844.274292,321
844.392395,339
844.510376,321
844.628357,319
844.74646,313
844.864441,347
844.982422,330
845.100403,325
845.218384,311
845.336426,317
845.454468,330
845.572449,320
845.69043,322
845.808411,326
845.926453,325
846.044373,328
846.162354,301
846.280396,323
846.398315,321
846.516296,329
846.634216,315
846.752197,332
846.870178,320
846.988098,339
847.106079,317
847.22406,335
847.34198,333
847.4599,328
847.577881,322
847.695801,329
847.813782,322
847.931641,323
848.049561,330
848.167603,330
848.285461,317
848.403381,327
848.521362,321
848.639221,336
848.75708,325
848.875,332
848.99292,326
849.110901,327
849.22876,331
849.34668,318
849.464539,316
849.582458,319
849.700317,323
849.818176,327
849.936096,322
850.053955,316
850.171875,324
850.289673,323
850.407593,329
850.525452,313
850.643311,329
850.761169,323
850.878967,324
850.996887,318
851.114746,321
851.232544,317
851.350403,319
851.468262,322
851.58606,322
851.703979,336
851.821777,316
851.939636,327
852.057434,317
852.175232,329
852.293091,322
852.410889,324
852.528687,320
852.646545,330
852.764343,333
852.88208,327
852.999939,326
853.117676,338
853.235535,315
853.353271,326
853.471069,323
853.588928,312
853.706604,322
853.824402,320
853.9422,322
854.059998,340
854.177734,308
854.295532,327
854.413269,321
854.531006,326
854.648804,324
854.766541,318
854.884277,328
855.002014,340
855.119751,315
855.237549,334
855.355225,331
855.473022,342
855.590698,315
855.708435,329
855.826172,324
855.943848,323
856.061646,328
856.179321,326
856.296997,319
856.414795,337
856.53241,340
856.650085,330
856.767822,325
856.885559,327
857.003174,316
857.120911,331
857.238586,310
857.356201,332
857.473938,321
857.591614,320
857.709351,316
857.826965,334
857.944641,323
858.062317,319
858.179993,340
858.297668,320
858.415283,324
858.532959,334
858.650574,329
858.768188,316
858.885803,324
859.003479,325
859.121094,319
859.23877,324
859.356384,325
859.473999,335
859.591675,324
859.709229,332
859.826843,327
859.944458,333
860.062012,312
860.179626,328
860.297302,330
860.414856,320
860.532471,330
860.650024,329
860.767639,315
860.885193,314
861.002808,330
861.120361,321
861.237976,317
861.35553,322
861.473022,319
861.590698,334
861.708191,315
861.825745,325
861.943298,331
862.060852,337
862.178406,322
862.295959,332
862.413513,323
862.531006,315
862.64856,325
862.766113,341
862.883667,315
863.00116,317
863.118713,313
863.236206,311
863.353699,319
863.471252,327
863.588745,323
863.706177,325
863.82373,323
863.941162,324
864.058716,323
864.176208,319
864.29364,320
864.411194,325
864.528687,324
864.646118,328
864.763611,313
864.881042,333
864.998535,305
865.116028,345
865.233459,335
865.350891,322
865.468384,329
865.585754,314
865.703308,321
865.820679,317
865.938171,317
866.055542,331
866.173035,319
866.290466,322
866.407837,320
866.52533,313
866.6427,317
866.760071,330
866.877563,314
866.994934,314
867.112305,326
867.229736,331
867.347107,314
867.464539,324
867.58197,321
867.699341,328
867.81665,312
867.934082,326
868.051453,322
868.168823,317
868.286194,326
868.403564,309
868.520935,318
868.638306,334
868.755676,318
868.872986,332
868.990295,315
869.107727,325
869.225037,322
869.342346,319
869.459717,317
869.577026,318
869.694336,314
869.811707,333
869.929016,335
870.046326,311
870.163635,310
870.280945,323
870.398254,322
870.515564,330
870.632812,329
870.750183,308
870.867432,312
870.984741,336
871.102051,338
871.219299,328
871.336609,331
871.453918,331
871.571106,334
871.688416,335
871.805664,318
871.922852,336
872.040222,316
872.157471,318
872.274719,330
872.391968,341
872.509155,321
872.626465,323
872.743652,340
872.860962,337
872.978149,315
873.095337,344
873.212646,333
873.329834,329
873.44696,326
873.564209,313
873.681396,323
873.798645,337
873.915894,329
874.03302,317
874.150208,321
874.267456,331
874.384583,315
874.501831,325
874.618958,330
874.736145,342
874.853333,338
874.970459,314
875.087646,332
875.204834,320
875.32196,331
875.439148,333
875.556274,316
875.673401,333
875.790527,329
875.907715,328
876.024841,322
876.141968,317
876.259094,311
876.376282,333
876.493347,320
876.610474,325
876.7276,321
876.844727,326
876.961853,313
877.078918,322
877.195984,323
877.313171,322
877.430237,330
877.547302,327
877.664368,331
877.781433,335
877.898499,324
878.015625,330
878.13269,323
878.249695,325
878.366821,321
878.483887,325
878.600952,313
878.717957,333
878.834961,328
878.952087,324
879.069092,317
879.186157,325
879.303162,327
879.420227,327
879.537231,312
879.654236,337
879.77124,314
879.888306,323
880.005249,321
880.122314,329
880.239319,320
880.356323,332
880.473328,313
880.590271,320
880.707275,317
880.824341,331
880.941284,315
881.058228,320
881.175232,325
881.292236,319
881.40918,308
881.526123,333
881.643066,309
881.760071,327
881.877014,309
881.993958,314
882.11084,326
882.227783,330
882.344727,322
882.46167,303
882.578613,311
882.695618,322
882.812439,316
882.929382,319
883.046326,326
883.163208,333
883.280151,323
883.397034,320
883.513916,316
883.630798,328
883.747742,309
883.864563,324
883.981506,303
884.098389,316
884.21521,324
884.332153,327
884.448975,311
884.565796,349
884.682678,318
884.7995,332
884.916443,327
885.033264,343
885.150085,331
885.266968,334
885.383789,328
885.500671,334
885.617493,333
885.734314,335
885.851196,337
885.967896,345
886.084717,328
886.201599,330
886.318359,332
886.435181,334
886.552002,334
886.668762,337
886.785645,330
886.902344,333
887.019165,325
887.135925,341
887.252747,323
887.369446,340
887.486267,325
887.603027,342
887.719788,332
887.836548,322
887.953247,327
888.070068,328
888.186829,317
888.303528,338
888.420288,333
888.536987,328
888.653687,312
888.770447,322
888.887146,318
889.003967,335
889.120667,321
889.237305,331
889.354065,314
889.470703,316
889.587463,306
889.704163,320
889.820862,305
889.937561,316
890.054199,314
890.170837,328
890.287598,307
890.404236,324
890.520874,319
890.637634,322
890.754211,308
890.87085,335
890.987549,330
891.104187,322
891.220886,323
891.337463,324
891.454102,323
891.57074,328
891.687378,320
891.804077,324
891.920654,329
892.037231,335
892.15387,306
892.270447,326
892.387085,330
892.503723,329
892.6203,333
892.736877,328
892.853516,300
892.970032,317
893.08667,307
893.203186,317
893.319763,331
893.43634,306
893.552917,317
893.669556,328
893.786011,327
893.902588,315
894.019165,339
894.135681,327
894.252197,324
894.368835,322
894.485291,324
894.601868,337
894.718384,312
894.8349,321
894.951355,323
895.067932,319
895.184448,312
895.300964,333
895.417419,314
895.533936,334
895.650452,299
895.766907,324
895.883423,319
895.999878,309
896.116333,326
896.232849,323
896.349304,335
896.465759,328
896.582214,315
896.698669,322
896.815125,317
896.931641,325
897.048035,316
897.164551,322
897.280884,315
897.397339,325
897.513794,317
897.630249,316
897.746582,310
897.863098,314
897.979431,310
898.095886,315
898.212341,318
898.328674,319
898.445129,318
898.561462,312
898.677795,320
898.794312,314
898.910645,313
899.026978,324
899.143433,329
899.259766,316
899.37616,314
899.492493,317
899.608765,322
899.725159,338
899.841553,314
899.957947,312
900.07428,311
900.190552,331
900.306946,306
900.423157,315
900.53949,325
900.655884,322
900.772156,330
900.888489,322
901.004822,312
901.121033,328
901.237366,331
901.353699,323
901.46991,314
901.586304,325
901.702515,319
901.818787,337
901.93512,333
902.051331,318
902.167603,327
902.283875,330
902.400085,324
902.516418,321
902.632629,323
902.74884,329
902.865112,319
902.981384,326
903.097595,325
903.213867,331
903.330017,331
903.446289,330
903.5625,321
903.67865,324
903.794922,312
903.911072,329
904.027344,334
904.143494,318
904.259705,323
904.375916,335
904.492065,318
904.608215,331
904.724426,320
904.840576,324
904.956726,317
905.072876,321
905.189087,318
905.305176,329
905.421387,325
905.537537,316
905.653687,306
905.769775,321
905.885925,323
906.002014,332
906.118164,319
906.234314,311
906.350403,309
906.466492,303
906.582642,324
906.69873,320
906.814758,324
906.930908,330
907.046936,307
907.163086,329
907.279175,323
907.395264,317
907.511353,318
907.62738,319
907.743408,316
907.859497,316
907.975525,320
908.091553,321
908.207703,320
908.32373,315
908.439758,311
908.555786,316
908.671814,317
908.787842,313
908.90387,316
909.019775,313
909.135864,321
909.251892,323
909.367859,316
909.483826,320
909.599854,309
909.715881,317
909.831848,326
909.947815,321
910.063782,324
910.179749,326
910.295776,301
910.411743,322
910.527649,317
910.643616,322
910.759583,326
910.875488,314
910.991455,312
911.107361,333
911.223267,319
911.339294,318
911.4552,307
911.571106,311
911.687073,317
911.802979,319
911.918823,315
912.034729,302
912.150635,310
912.266602,327
912.382446,318
912.498352,333
912.614197,324
912.730103,319
912.846008,304
792.44574,371
792.56488,393
792.68396,436
792.80304,430
792.92218,385
793.041199,360
793.160339,365
793.279419,370
793.398499,384
793.517578,356
793.636658,362
793.755737,386
793.874817,391
793.993896,364
794.112976,370
794.232056,357
794.351074,361
794.470215,353
794.589233,362
794.708313,335
794.827393,363
794.946411,361
795.065552,359
795.18457,364
795.303589,362
795.422668,351
795.541687,354
795.660767,351
795.779846,355
795.898865,351
796.017883,355
796.136963,329
796.255981,361
796.375061,352
796.49408,336
796.613037,350
796.732117,356
796.851135,345
796.970154,334
797.089233,351
797.208191,340
797.327271,341
797.446228,341
797.565186,334
797.684265,340
797.803223,339
797.922241,338
798.04126,338
798.160278,345
798.279297,339
798.398315,331
798.517273,335
798.636292,339
798.75531,339
798.874268,345
798.993286,330
799.112244,329
799.231323,332
799.350281,334
799.469238,338
799.588257,330
799.707153,333
799.826111,331
799.945129,329
800.064087,352
800.183044,329
800.302063,336
800.421021,335
800.539978,338
800.658936,331
800.777893,342
800.896912,333
801.015747,335
801.134705,331
801.253723,331
801.37262,329
801.491638,335
801.610535,315
801.729492,342
801.84845,342
801.967407,347
802.086243,339
802.205261,338
802.324158,327
802.443115,330
802.562073,332
802.680969,333
802.799927,330
802.918762,324
803.037659,332
803.156677,331
803.275574,331
803.39447,333
803.513428,332
803.632263,336
803.751221,332
803.870117,332
803.989014,345
804.107971,332
804.226746,328
804.345642,332
804.4646,332
804.583496,334
804.702393,336
804.821228,323
804.940125,330
805.059021,328
805.177917,345
805.296814,314
805.415649,329
805.534546,340
805.653442,338
805.772278,335
805.891113,327
806.01001,344
806.128906,330
806.247742,333
806.366577,332
806.485413,338
806.604309,333
806.723145,326
806.84198,329
806.960876,328
807.079712,321
807.198486,333
807.317383,334
807.436218,337
807.554993,332
807.673889,336
807.792725,315
807.91156,323
808.030396,330
808.14917,330
808.268005,323
808.386841,324
808.505676,327
808.624451,337
808.743286,319
808.862122,328
808.980896,314
809.099731,328
809.218506,317
809.337341,323
809.456116,324
809.57489,325
809.693726,325
809.8125,317
809.931274,322
810.050049,323
810.168884,323
810.287659,336
810.406372,326
810.525269,325
810.643982,334
810.762756,310
810.881531,323
811.000305,329
811.11908,321
811.237854,332
811.356567,318
811.475403,318
811.594116,318
811.71283,338
811.831604,335
811.950378,320
812.069153,333
812.187927,327
812.30658,335
812.425415,326
812.544128,337
812.662781,325
812.781616,309
812.900269,316
813.019043,328
813.137756,328
813.256531,329
813.375244,335
813.493896,309
813.612671,331
813.731384,319
813.850037,333
813.96875,339
814.087524,315
814.206238,337
814.324951,330
814.443604,314
814.562256,333
814.68103,323
814.799683,324
814.918335,337
815.037109,320
815.155762,339
815.274475,319
815.393188,323
815.511841,326
815.630554,336
815.749146,330
815.867859,330
815.986572,335
816.105164,330
816.223877,329
816.342529,334
816.461182,321
816.579895,332
816.698486,316
816.817139,324
816.935791,316
817.054504,329
817.173096,334
817.291748,330
817.4104,339
817.529053,330
817.647644,321
817.766235,327
817.884949,323
818.00354,319
818.122192,329
818.240845,333
818.359436,320
818.478088,318
818.59668,325
818.715271,340
818.833923,333
818.952515,326
819.071106,313
819.189758,329
819.30835,330
819.426941,320
819.545532,335
819.664124,329
819.782715,326
819.901306,322
820.019897,316
820.138489,307
820.25708,311
820.375671,329
820.494202,321
820.612732,325
820.731384,343
820.849915,328
820.968506,314
821.087097,313
821.205627,312
821.324158,334
821.442749,320
821.561279,321
821.679871,319
821.798401,332
821.916931,317
822.035461,323
822.154053,330
822.272583,312
822.391174,316
822.509583,341
822.628174,316
822.746704,333
822.865234,312
822.983765,325
823.102295,327
823.220825,322
823.339294,318
823.457825,318
823.576355,312
823.694824,310
823.813354,308
823.931885,333
824.050354,325
824.168884,318
824.287354,330
824.405823,318
824.524353,327
824.642822,324
824.761353,330
824.879822,316
824.998291,332
825.116699,314
825.235291,329
825.353699,320
825.472168,320
825.590637,325
825.709106,327
825.827576,308
825.946045,329
826.064453,336
826.182983,314
826.301392,312
826.4198,323
826.53833,323
826.656738,314
826.775208,327
826.893677,329
827.012024,317
827.130493,319
827.248962,311
827.36731,327
827.485779,327
827.604248,317
827.722595,309
827.841064,326
827.959412,328
828.077942,317
828.196289,322
828.314636,330
828.433105,320
828.551514,312
828.669861,323
828.78833,306
828.906677,314
829.025085,323
829.143433,317
829.261841,317
829.38031,343
829.498657,320
829.617004,307
829.735413,341
829.85376,321
829.972107,320
830.090515,322
830.208862,312
830.327209,317
830.445557,329
830.563904,316
830.682312,324
830.800659,319
830.919006,333
831.037354,320
831.155701,307
831.274048,314
831.392395,317
831.51062,321
831.629028,315
831.747314,325
831.865662,320
831.984009,343
832.102356,322
832.220642,311
832.338928,338
832.457275,317
832.575623,308
832.693909,318
832.812134,313
832.930481,328
833.048828,331
833.167114,332
833.2854,310
833.403687,323
833.521973,323
833.640259,334
833.758545,318
833.876831,313
833.995056,304
834.113281,338
834.231628,317
834.349915,324
834.468201,312
834.586426,318
834.704651,326
834.822998,313
834.941162,322
835.059448,332
835.177673,322
835.295959,312
835.414246,328
835.53241,311
835.650635,312
835.768921,325
835.887146,317
836.005371,323
836.123596,315
836.241821,332
836.360046,321
836.478271,321
836.596497,319
836.714722,323
836.832886,320
836.95105,317
837.069336,326
837.1875,320
837.305725,332
837.423889,315
837.542053,313
837.660339,333
837.778503,329
837.896667,318
838.014832,310
838.132996,326
838.25116,313
838.369385,330
838.487488,325
838.605713,311
838.723877,315
838.84198,327
838.960205,309
839.078308,311
839.196472,315
839.314636,333
839.4328,312
839.550964,322
839.669067,320
839.787231,316
839.905396,319
840.023499,330
840.141602,314
840.259766,325
840.377869,326
840.495972,327
840.614136,330
840.732239,330
840.850342,343
840.968445,305
841.086548,334
841.204651,324
841.322754,332
841.440918,322
841.55896,315
841.677002,335
841.795166,321
841.913208,333
842.031311,318
842.149353,334
842.267456,317
842.385498,339
842.503601,322
842.621643,318
842.739746,324
842.857788,324
842.97583,322
843.093933,328
843.211975,325
843.330017,325
843.44812,325
843.566101,334
843.684204,317
843.802246,316
843.920227,321
844.038269,333
844.156311,322
844.274292,328
844.392395,327
844.510376,311
844.628357,333
844.74646,318
844.864441,324
844.982422,327
845.100403,314
845.218384,325
845.336426,326
845.454468,301
845.572449,320
845.69043,315
845.808411,322
845.926453,311
846.044373,316
846.162354,328
846.280396,328
846.398315,325
846.516296,327
846.634216,319
846.752197,339
846.870178,332
846.988098,323
847.106079,328
847.22406,325
847.34198,320
847.4599,322
847.577881,312
847.695801,325
847.813782,332
847.931641,318
848.049561,317
848.167603,321
848.285461,314
848.403381,326
848.521362,313
848.639221,323
848.75708,313
848.875,318
848.99292,321
849.110901,313
849.22876,330
849.34668,334
849.464539,322
849.582458,326
849.700317,313
849.818176,314
849.936096,328
850.053955,324
850.171875,331
850.289673,325
850.407593,320
850.525452,326
850.643311,334
850.761169,312
850.878967,328
850.996887,304
851.114746,332
851.232544,319
851.350403,316
851.468262,326
851.58606,334
851.703979,326
851.821777,328
851.939636,315
852.057434,320
852.175232,320
852.293091,326
852.410889,318
852.528687,319
852.646545,335
852.764343,330
852.88208,309
852.999939,313
853.117676,329
853.235535,322
853.353271,323
853.471069,335
853.588928,331
853.706604,329
853.824402,323
853.9422,330
854.059998,329
854.177734,316
854.295532,318
854.413269,313
854.531006,333
854.648804,341
854.766541,321
854.884277,315
855.002014,346
855.119751,329
855.237549,313
855.355225,339
855.473022,313
855.590698,309
855.708435,316
855.826172,333
855.943848,327
856.061646,318
856.179321,329
856.296997,318
856.414795,324
856.53241,333
856.650085,328
856.767822,338
856.885559,316
857.003174,324
857.120911,323
857.238586,325
857.356201,330
857.473938,336
857.591614,321
857.709351,338
857.826965,315
857.944641,330
858.062317,319
858.179993,318
858.297668,337
858.415283,319
858.532959,334
858.650574,332
858.768188,331
858.885803,331
859.003479,311
859.121094,331
859.23877,319
859.356384,334
859.473999,315
859.591675,329
859.709229,332
859.826843,328
859.944458,317
860.062012,322
860.179626,320
860.297302,333
860.414856,321
860.532471,320
860.650024,322
860.767639,321
860.885193,325
861.002808,335
861.120361,337
861.237976,330
861.35553,327
861.473022,321
861.590698,329
861.708191,337
861.825745,314
861.943298,327
862.060852,322
862.178406,319
862.295959,328
862.413513,308
862.531006,307
862.64856,320
862.766113,316
862.883667,319
863.00116,331
863.118713,325
863.236206,324
863.353699,325
863.471252,304
863.588745,322
863.706177,319
863.82373,319
863.941162,319
864.058716,332
864.176208,330
864.29364,306
864.411194,322
864.528687,313
864.646118,323
864.763611,323
864.881042,320
864.998535,324
865.116028,329
865.233459,328
865.350891,313
865.468384,332
865.585754,328
865.703308,314
865.820679,321
865.938171,310
866.055542,300
866.173035,321
866.290466,320
866.407837,320
866.52533,305
866.6427,310
866.760071,323
866.877563,323
866.994934,327
867.112305,326
867.229736,321
867.347107,317
867.464539,331
867.58197,320
867.699341,325
867.81665,313
867.934082,324
868.051453,323
868.168823,327
868.286194,322
868.403564,322
868.520935,325
868.638306,326
868.755676,330
868.872986,325
868.990295,320
869.107727,340
869.225037,322
869.342346,326
869.459717,326
869.577026,330
869.694336,324
869.811707,322
869.929016,346
870.046326,322
870.163635,311
870.280945,316
870.398254,320
870.515564,322
870.632812,328
870.750183,320
870.867432,330
870.984741,334
871.102051,329
871.219299,335
871.336609,318
871.453918,320
871.571106,328
871.688416,333
871.805664,333
871.922852,332
872.040222,323
872.157471,329
872.274719,333
872.391968,330
872.509155,328
872.626465,327
872.743652,318
872.860962,319
872.978149,334
873.095337,328
873.212646,322
873.329834,324
873.44696,340
873.564209,320
873.681396,320
873.798645,328
873.915894,321
874.03302,329
874.150208,321
874.267456,330
874.384583,330
874.501831,322
874.618958,347
874.736145,322
874.853333,322
874.970459,325
875.087646,314
875.204834,336
875.32196,331
875.439148,325
875.556274,321
875.673401,316
875.790527,334
875.907715,321
876.024841,324
876.141968,330
876.259094,322
876.376282,332
876.493347,342
876.610474,334
876.7276,322
876.844727,315
876.961853,328
877.078918,324
877.195984,328
877.313171,309
877.430237,316
877.547302,318
877.664368,330
877.781433,325
877.898499,336
878.015625,305
878.13269,333
878.249695,316
878.366821,328
878.483887,308
878.600952,323
878.717957,324
878.834961,322
878.952087,322
879.069092,308
879.186157,327
879.303162,336
879.420227,319
879.537231,313
879.654236,316
879.77124,323
879.888306,304
880.005249,315
880.122314,314
880.239319,328
880.356323,316
880.473328,332
880.590271,315
880.707275,309
880.824341,316
880.941284,322
881.058228,317
881.175232,317
881.292236,320
881.40918,323
881.526123,328
881.643066,331
881.760071,307
881.877014,324
881.993958,315
882.11084,315
882.227783,326
882.344727,331
882.46167,327
882.578613,309
882.695618,324
882.812439,333
882.929382,327
883.046326,313
883.163208,319
883.280151,329
883.397034,324
883.513916,329
883.630798,315
883.747742,325
883.864563,311
883.981506,326
884.098389,321
884.21521,332
884.332153,325
884.448975,326
884.565796,323
884.682678,327
884.7995,338
884.916443,330
885.033264,320
885.150085,338
885.266968,330
885.383789,327
885.500671,320
885.617493,323
885.734314,337
885.851196,333
885.967896,315
886.084717,333
886.201599,339
886.318359,330
886.435181,324
886.552002,327
886.668762,337
886.785645,326
886.902344,335
887.019165,338
887.135925,327
887.252747,332
887.369446,332
887.486267,344
887.603027,324
887.719788,329
887.836548,327
887.953247,331
888.070068,330
888.186829,343
888.303528,315
888.420288,323
888.536987,310
888.653687,311
888.770447,316
888.887146,311
889.003967,308
889.120667,317
889.237305,332
889.354065,318
889.470703,316
889.587463,324
889.704163,313
889.820862,330
889.937561,301
890.054199,317
890.170837,315
890.287598,328
890.404236,317
890.520874,311
890.637634,321
890.754211,318
890.87085,319
890.987549,322
891.104187,317
891.220886,330
891.337463,311
891.454102,318
891.57074,311
891.687378,320
891.804077,301
891.920654,309
892.037231,321
892.15387,322
892.270447,315
892.387085,313
892.503723,319
892.6203,318
892.736877,320
892.853516,320
892.970032,332
893.08667,322
893.203186,309
893.319763,324
893.43634,317
893.552917,320
893.669556,320
893.786011,321
893.902588,327
894.019165,332
894.135681,309
894.252197,324
894.368835,324
894.485291,330
894.601868,318
894.718384,308
894.8349,318
894.951355,324
895.067932,321
895.184448,317
895.300964,316
895.417419,321
895.533936,312
895.650452,333
895.766907,309
895.883423,317
895.999878,327
896.116333,334
896.232849,328
896.349304,309
896.465759,324
896.582214,321
896.698669,305
896.815125,333
896.931641,308
897.048035,324
897.164551,324
897.280884,316
897.397339,321
897.513794,320
897.630249,322
897.746582,300
897.863098,332
897.979431,330
898.095886,324
898.212341,324
898.328674,319
898.445129,325
898.561462,313
898.677795,319
898.794312,309
898.910645,334
899.026978,320
899.143433,318
899.259766,328
899.37616,314
899.492493,317
899.608765,313
899.725159,326
899.841553,322
899.957947,306
900.07428,324
900.190552,307
900.306946,313
900.423157,306
900.53949,321
900.655884,315
900.772156,335
900.888489,324
901.004822,327
901.121033,307
901.237366,329
901.353699,313
901.46991,327
901.586304,321
901.702515,335
901.818787,314
901.93512,311
902.051331,315
902.167603,314
902.283875,324
902.400085,327
902.516418,319
902.632629,326
902.74884,314
902.865112,321
902.981384,333
903.097595,320
903.213867,325
903.330017,332
903.446289,323
903.5625,326
903.67865,329
903.794922,309
903.911072,326
904.027344,318
904.143494,315
904.259705,321
904.375916,318
904.492065,308
904.608215,306
904.724426,331
904.840576,319
904.956726,323
905.072876,324
905.189087,322
905.305176,316
905.421387,328
905.537537,321
905.653687,319
905.769775,314
905.885925,313
906.002014,308
906.118164,316
906.234314,309
906.350403,318
906.466492,323
906.582642,323
906.69873,313
906.814758,304
906.930908,295
907.046936,316
907.163086,322
907.279175,325
907.395264,318
907.511353,320
907.62738,308
907.743408,315
907.859497,325
907.975525,319
908.091553,319
908.207703,317
908.32373,312
908.439758,307
908.555786,304
908.671814,312
908.787842,321
908.90387,316
909.019775,313
909.135864,324
909.251892,305
909.367859,325
909.483826,317
909.599854,330
909.715881,322
909.831848,314
909.947815,308
910.063782,332
910.179749,322
910.295776,317
910.411743,318
910.527649,316
910.643616,303
910.759583,323
910.875488,316
910.991455,331
911.107361,312
911.223267,320
911.339294,315
911.4552,321
911.571106,317
911.687073,308
911.802979,322
911.918823,324
912.034729,308
912.150635,318
912.266602,325
912.382446,315
912.498352,330
912.614197,316
912.730103,313
912.846008,317
792.44574,369
792.56488,404
792.68396,442
792.80304,436
792.92218,400
793.041199,359
793.160339,368
793.279419,374
793.398499,371
793.517578,347
793.636658,367
793.755737,377
793.874817,370
793.993896,384
794.112976,367
794.232056,358
794.351074,366
794.470215,363
794.589233,362
794.708313,345
794.827393,363
794.946411,358
795.065552,361
795.18457,364
795.303589,334
795.422668,353
795.541687,339
795.660767,341
795.779846,360
795.898865,362
796.017883,355
796.136963,358
796.255981,348
796.375061,359
796.49408,358
796.613037,342
796.732117,339
796.851135,352
796.970154,356
797.089233,346
797.208191,340
797.327271,347
797.446228,357
797.565186,341
797.684265,347
797.803223,346
797.922241,348
798.04126,342
798.160278,347
798.279297,340
798.398315,339
798.517273,334
798.636292,358
798.75531,346
798.874268,337
798.993286,335
799.112244,334
799.231323,341
799.350281,340
799.469238,341
799.588257,328
799.707153,342
799.826111,341
799.945129,345
800.064087,339
800.183044,337
800.302063,340
800.421021,336
800.539978,359
800.658936,322
800.777893,339
800.896912,331
801.015747,355
801.134705,336
801.253723,331
801.37262,332
801.491638,336
801.610535,339
801.729492,340
801.84845,341
801.967407,331
802.086243,332
802.205261,322
802.324158,340
802.443115,342
802.562073,321
802.680969,335
802.799927,333
802.918762,336
803.037659,338
803.156677,337
803.275574,331
803.39447,324
803.513428,347
803.632263,340
803.751221,329
803.870117,344
803.989014,329
804.107971,341
804.226746,325
804.345642,337
804.4646,341
804.583496,328
804.702393,330
804.821228,323
804.940125,329
805.059021,327
805.177917,340
805.296814,325
805.415649,322
805.534546,338
805.653442,341
805.772278,332
805.891113,322
806.01001,332
806.128906,326
806.247742,334
806.366577,332
806.485413,346
806.604309,323
806.723145,324
806.84198,324
806.960876,331
807.079712,335
807.198486,333
807.317383,327
807.436218,339
807.554993,331
807.673889,323
807.792725,324
807.91156,334
808.030396,316
808.14917,329
808.268005,331
808.386841,338
808.505676,323
808.624451,327
808.743286,325
808.862122,309
808.980896,319
809.099731,326
809.218506,342
809.337341,333
809.456116,317
809.57489,329
809.693726,335
809.8125,326
809.931274,327
810.050049,329
810.168884,328
810.287659,332
810.406372,336
810.525269,323
810.643982,336
810.762756,350
810.881531,340
811.000305,330
811.11908,328
811.237854,315
811.356567,337
811.475403,311
811.594116,331
811.71283,338
811.831604,320
811.950378,335
812.069153,331
812.187927,335
812.30658,328
812.425415,343
812.544128,329
812.662781,320
812.781616,328
812.900269,340
813.019043,341
813.137756,320
813.256531,321
813.375244,327
813.493896,326
813.612671,341
813.731384,326
813.850037,325
813.96875,346
814.087524,317
814.206238,334
814.324951,325
814.443604,328
814.562256,325
814.68103,335
814.799683,339
814.918335,321
815.037109,330
815.155762,328
815.274475,328
815.393188,333
815.511841,334
815.630554,315
815.749146,328
815.867859,324
815.986572,337
816.105164,322
816.223877,320
816.342529,315
816.461182,322
816.579895,329
816.698486,320
816.817139,329
816.935791,329
817.054504,336
817.173096,334
817.291748,345
817.4104,327
817.529053,318
817.647644,328
817.766235,328
817.884949,328
818.00354,326
818.122192,334
818.240845,338
818.359436,331
818.478088,325
818.59668,325
818.715271,323
818.833923,324
818.952515,341
819.071106,325
819.189758,329
819.30835,326
819.426941,325
819.545532,326
819.664124,331
819.782715,334
819.901306,310
820.019897,318
820.138489,317
820.25708,320
820.375671,323
820.494202,330
820.612732,325
820.731384,309
820.849915,327
820.968506,324
821.087097,335
821.205627,316
821.324158,316
821.442749,329
821.561279,317
821.679871,326
821.798401,339
821.916931,331
822.035461,312
822.154053,331
822.272583,324
822.391174,323
822.509583,318
822.628174,307
822.746704,320
822.865234,315
822.983765,330
823.102295,325
823.220825,319
823.339294,324
823.457825,313
823.576355,305
823.694824,308
823.813354,327
823.931885,327
824.050354,319
824.168884,316
824.287354,322
824.405823,315
824.524353,318
824.642822,333
824.761353,332
824.879822,313
824.998291,318
825.116699,330
825.235291,321
825.353699,315
825.472168,320
825.590637,333
825.709106,325
825.827576,313
825.946045,319
826.064453,322
826.182983,321
826.301392,321
826.4198,312
826.53833,324
826.656738,328
826.775208,328
826.893677,319
827.012024,321
827.130493,318
827.248962,316
827.36731,321
827.485779,318
827.604248,332
827.722595,315
827.841064,332
827.959412,330
828.077942,331
828.196289,325
828.314636,312
828.433105,329
828.551514,320
828.669861,312
828.78833,319
828.906677,326
829.025085,320
829.143433,332
829.261841,322
829.38031,317
829.498657,310
829.617004,326
829.735413,317
829.85376,324
829.972107,314
830.090515,314
830.208862,309
830.327209,331
830.445557,327
830.563904,315
830.682312,328
830.800659,324
830.919006,316
831.037354,318
831.155701,321
831.274048,322
831.392395,317
831.51062,317
831.629028,328
831.747314,308
831.865662,333
831.984009,307
832.102356,320
832.220642,325
832.338928,331
832.457275,315
832.575623,328
832.693909,317
832.812134,327
832.930481,327
833.048828,329
833.167114,315
833.2854,318
833.403687,318
833.521973,332
833.640259,311
833.758545,332
833.876831,327
833.995056,323
834.113281,333
834.231628,317
834.349915,340
834.468201,313
834.586426,317
834.704651,320
834.822998,314
834.941162,320
835.059448,333
835.177673,324
835.295959,316
835.414246,323
835.53241,326
835.650635,327
835.768921,327
835.887146,329
836.005371,337
836.123596,317
836.241821,314
836.360046,326
836.478271,315
836.596497,323
836.714722,310
836.832886,319
836.95105,317
837.069336,323
837.1875,323
837.305725,320
837.423889,325
837.542053,318
837.660339,322
837.778503,310
837.896667,322
838.014832,333
838.132996,322
838.25116,323
838.369385,323
838.487488,328
838.605713,327
838.723877,312
838.84198,337
838.960205,314
839.078308,325
839.196472,330
839.314636,317
839.4328,322
839.550964,334
839.669067,332
839.787231,318
839.905396,320
840.023499,336
840.141602,320
840.259766,330
840.377869,330
840.495972,338
840.614136,330
840.732239,325
840.850342,324
840.968445,317
841.086548,330
841.204651,324
841.322754,320
841.440918,324
841.55896,330
841.677002,310
841.795166,325
841.913208,312
842.031311,328
842.149353,321
842.267456,337
842.385498,324
842.503601,326
842.621643,323
842.739746,323
842.857788,325
842.97583,332
843.093933,332
843.211975,325
843.330017,318
843.44812,336
843.566101,321
843.684204,330
843.802246,326
843.920227,329
844.038269,323
844.156311,316
844.274292,330
844.392395,323
844.510376,325
844.628357,328
844.74646,322
844.864441,327
844.982422,330
845.100403,334
845.218384,322
845.336426,336
845.454468,329
845.572449,327
845.69043,330
845.808411,319
845.926453,325
846.044373,310
846.162354,320
846.280396,323
846.398315,335
846.516296,315
846.634216,336
846.752197,325
846.870178,330
846.988098,329
847.106079,328
847.22406,332
847.34198,329
847.4599,332
847.577881,325
847.695801,305
847.813782,319
847.931641,322
848.049561,337
848.167603,316
848.285461,330
848.403381,318
848.521362,313
848.639221,319
848.75708,328
848.875,326
848.99292,335
849.110901,306
849.22876,326
849.34668,319
849.464539,331
849.582458,316
849.700317,329
849.818176,331
849.936096,333
850.053955,333
850.171875,319
850.289673,324
850.407593,329
850.525452,307
850.643311,337
850.761169,325
850.878967,319
850.996887,324
851.114746,313
851.232544,324
851.350403,315
851.468262,316
851.58606,320
851.703979,322
851.821777,323
851.939636,320
852.057434,331
852.175232,320
852.293091,331
852.410889,338
852.528687,320
852.646545,335
852.764343,337
852.88208,316
852.999939,331
853.117676,326
853.235535,338
853.353271,327
853.471069,332
853.588928,331
853.706604,324
853.824402,329
853.9422,318
854.059998,317
854.177734,336
854.295532,315
854.413269,331
854.531006,305
854.648804,323
854.766541,327
854.884277,326
855.002014,330
855.119751,327
855.237549,326
855.355225,319
855.473022,327
855.590698,330
855.708435,329
855.826172,310
855.943848,330
856.061646,322
856.179321,325
856.296997,336
856.414795,321
856.53241,325
856.650085,334
856.767822,321
856.885559,315
857.003174,324
857.120911,324
857.238586,329
857.356201,337
857.473938,315
857.591614,333
857.709351,330
857.826965,327
857.944641,325
858.062317,328
858.179993,327
858.297668,327
858.415283,322
858.532959,343
858.650574,322
858.768188,329
858.885803,319
859.003479,325
859.121094,337
859.23877,314
859.356384,322
859.473999,322
859.591675,322
859.709229,325
859.826843,321
859.944458,309
860.062012,334
860.179626,325
860.297302,322
860.414856,316
860.532471,327
860.650024,324
860.767639,320
860.885193,317
861.002808,327
861.120361,315
861.237976,316
861.35553,330
861.473022,312
861.590698,335
861.708191,312
861.825745,333
861.943298,323
862.060852,310
862.178406,329
862.295959,317
862.413513,326
862.531006,324
862.64856,314
862.766113,328
862.883667,317
863.00116,325
863.118713,324
863.236206,322
863.353699,331
863.471252,313
863.588745,317
863.706177,333
863.82373,308
863.941162,328
864.058716,325
864.176208,317
864.29364,327
864.411194,327
864.528687,327
864.646118,314
864.763611,326
864.881042,315
864.998535,325
865.116028,313
865.233459,328
865.350891,309
865.468384,317
865.585754,325
865.703308,333
865.820679,323
865.938171,322
866.055542,323
866.173035,324
866.290466,317
866.407837,313
866.52533,315
866.6427,311
866.760071,333
866.877563,320
866.994934,320
867.112305,320
867.229736,318
867.347107,323
867.464539,330
867.58197,323
867.699341,331
867.81665,316
867.934082,324
868.051453,326
868.168823,325
868.286194,327
868.403564,325
868.520935,339
868.638306,322
868.755676,329
868.872986,336
868.990295,320
869.107727,325
869.225037,338
869.342346,315
869.459717,328
869.577026,324
869.694336,335
869.811707,319
869.929016,333
870.046326,331
870.163635,317
870.280945,342
870.398254,319
870.515564,314
870.632812,336
870.750183,328
870.867432,337
870.984741,328
871.102051,323
871.219299,329
871.336609,331
871.453918,318
871.571106,325
871.688416,329
871.805664,319
871.922852,336
872.040222,327
872.157471,323
872.274719,323
872.391968,329
872.509155,332
872.626465,337
872.743652,322
872.860962,332
872.978149,321
873.095337,342
873.212646,327
873.329834,319
873.44696,315
873.564209,328
873.681396,324
873.798645,333
873.915894,335
874.03302,308
874.150208,328
874.267456,328
874.384583,320
874.501831,323
874.618958,323
874.736145,321
874.853333,328
874.970459,340
875.087646,329
875.204834,322
875.32196,333
875.439148,301
875.556274,339
875.673401,328
875.790527,330
875.907715,335
876.024841,327
876.141968,320
876.259094,325
876.376282,323
876.493347,310
876.610474,309
876.7276,324
876.844727,320
876.961853,318
877.078918,337
877.195984,340
877.313171,325
877.430237,311
877.547302,324
877.664368,321
877.781433,335
877.898499,326
878.015625,317
878.13269,324
878.249695,323
878.366821,314
878.483887,335
878.600952,321
878.717957,330
878.834961,319
878.952087,322
879.069092,322
879.186157,324
879.303162,325
879.420227,326
879.537231,317
879.654236,320
879.77124,322
879.888306,318
880.005249,328
880.122314,322
880.239319,319
880.356323,328
880.473328,327
880.590271,329
880.707275,318
880.824341,326
880.941284,319
881.058228,315
881.175232,309
881.292236,309
881.40918,321
881.526123,306
881.643066,313
881.760071,322
881.877014,314
881.993958,326
882.11084,317
882.227783,310
882.344727,325
882.46167,324
882.578613,317
882.695618,315
882.812439,307
882.929382,321
883.046326,321
883.163208,320
883.280151,332
883.397034,305
883.513916,319
883.630798,316
883.747742,332
883.864563,314
883.981506,323
884.098389,324
884.21521,333
884.332153,322
884.448975,330
884.565796,321
884.682678,324
884.7995,328
884.916443,328
885.033264,324
885.150085,327
885.266968,326
885.383789,346
885.500671,324
885.617493,329
885.734314,325
885.851196,331
885.967896,326
886.084717,337
886.201599,330
886.318359,342
886.435181,333
886.552002,332
886.668762,329
886.785645,332
886.902344,317
887.019165,339
887.135925,320
887.252747,347
887.369446,343
887.486267,327
887.603027,333
887.719788,326
887.836548,321
887.953247,334
888.070068,324
888.186829,331
888.303528,320
888.420288,331
888.536987,322
888.653687,319
888.770447,310
888.887146,314
889.003967,327
889.120667,328
889.237305,310
889.354065,326
889.470703,329
889.587463,323
889.704163,315
889.820862,316
889.937561,319
890.054199,314
890.170837,320
890.287598,326
890.404236,336
890.520874,314
890.637634,321
890.754211,323
890.87085,313
890.987549,316
891.104187,323
891.220886,329
891.337463,310
891.454102,335
891.57074,302
891.687378,333
891.804077,321
891.920654,321
892.037231,327
892.15387,309
892.270447,319
892.387085,326
892.503723,326
892.6203,323
892.736877,319
892.853516,323
892.970032,312
893.08667,333
893.203186,326
893.319763,326
893.43634,316
893.552917,330
893.669556,332
893.786011,314
893.902588,313
894.019165,316
894.135681,331
894.252197,329
894.368835,318
894.485291,311
894.601868,313
894.718384,311
894.8349,332
894.951355,321
895.067932,323
895.184448,321
895.300964,329
895.417419,315
895.533936,313
895.650452,319
895.766907,326
895.883423,321
895.999878,320
896.116333,326
896.232849,312
896.349304,324
896.465759,328
896.582214,332
896.698669,325
896.815125,309
896.931641,324
897.048035,321
897.164551,312
897.280884,328
897.397339,329
897.513794,335
897.630249,325
897.746582,324
897.863098,321
897.979431,315
898.095886,313
898.212341,331
898.328674,333
898.445129,308
898.561462,312
898.677795,310
898.794312,334
898.910645,322
899.026978,306
899.143433,320
899.259766,310
899.37616,320
899.492493,319
899.608765,315
899.725159,322
899.841553,322
899.957947,323
900.07428,325
900.190552,306
900.306946,308
900.423157,318
900.53949,315
900.655884,335
900.772156,312
900.888489,304
901.004822,317
901.121033,326
901.237366,324
901.353699,322
901.46991,326
901.586304,314
901.702515,313
901.818787,326
901.93512,313
902.051331,314
902.167603,311
902.283875,317
902.400085,328
902.516418,314
902.632629,324
902.74884,329
902.865112,331
902.981384,318
903.097595,326
903.213867,325
903.330017,320
903.446289,317
903.5625,339
903.67865,332
903.794922,324
903.911072,310
904.027344,320
904.143494,314
904.259705,331
904.375916,312
904.492065,337
904.608215,298
904.724426,318
904.840576,310
904.956726,328
905.072876,320
905.189087,318
905.305176,316
905.421387,319
905.537537,311
905.653687,318
905.769775,310
905.885925,323
906.002014,323
906.118164,321
906.234314,329
906.350403,318
906.466492,323
906.582642,331
906.69873,331
906.814758,313
906.930908,316
907.046936,327
907.163086,322
907.279175,323
907.395264,311
907.511353,319
907.62738,323
907.743408,321
907.859497,313
907.975525,319
908.091553,307
908.207703,313
908.32373,324
908.439758,330
908.555786,319
908.671814,314
908.787842,322
908.90387,305
909.019775,311
909.135864,325
909.251892,318
909.367859,333
909.483826,313
909.599854,326
909.715881,321
909.831848,304
909.947815,309
910.063782,321
910.179749,325
910.295776,314
910.411743,316
910.527649,323
910.643616,315
910.759583,314
910.875488,321
910.991455,320
911.107361,324
911.223267,309
911.339294,327
911.4552,319
911.571106,313
911.687073,322
911.802979,312
911.918823,303
912.034729,315
912.150635,319
912.266602,313
912.382446,320
912.498352,315
912.614197,326
912.730103,320
912.846008,319
