792.44574,319
792.56488,335
792.68396,389
792.80304,375
792.92218,337
793.041199,317
793.160339,321
793.279419,340
793.398499,343
793.517578,306
793.636658,336
793.755737,322
793.874817,337
793.993896,347
794.112976,335
794.232056,320
794.351074,324
794.470215,325
794.589233,314
794.708313,329
794.827393,320
794.946411,322
795.065552,347
795.18457,318
795.303589,348
795.422668,325
795.541687,343
795.660767,330
795.779846,340
795.898865,342
796.017883,334
796.136963,317
796.255981,322
796.375061,329
796.49408,326
796.613037,337
796.732117,330
796.851135,332
796.970154,337
797.089233,343
797.208191,317
797.327271,331
797.446228,320
797.565186,334
797.684265,320
797.803223,332
797.922241,330
798.04126,328
798.160278,319
798.279297,323
798.398315,324
798.517273,332
798.636292,333
798.75531,326
798.874268,330
798.993286,331
799.112244,319
799.231323,337
799.350281,333
799.469238,327
799.588257,318
799.707153,321
799.826111,332
799.945129,310
800.064087,326
800.183044,346
800.302063,342
800.421021,327
800.539978,334
800.658936,323
800.777893,340
800.896912,334
801.015747,330
801.134705,327
801.253723,336
801.37262,323
801.491638,324
801.610535,329
801.729492,329
801.84845,328
801.967407,331
802.086243,341
802.205261,340
802.324158,315
802.443115,320
802.562073,319
802.680969,340
802.799927,326
802.918762,345
803.037659,316
803.156677,321
803.275574,344
803.39447,322
803.513428,320
803.632263,328
803.751221,330
803.870117,343
803.989014,317
804.107971,322
804.226746,330
804.345642,328
804.4646,342
804.583496,346
804.702393,329
804.821228,330
804.940125,339
805.059021,330
805.177917,329
805.296814,333
805.415649,332
805.534546,337
805.653442,338
805.772278,330
805.891113,334
806.01001,345
806.128906,331
806.247742,311
806.366577,329
806.485413,334
806.604309,343
806.723145,347
806.84198,317
806.960876,335
807.079712,331
807.198486,337
807.317383,330
807.436218,335
807.554993,335
807.673889,318
807.792725,340
807.91156,338
808.030396,327
808.14917,339
808.268005,329
808.386841,334
808.505676,332
808.624451,326
808.743286,331
808.862122,312
808.980896,320
809.099731,335
809.218506,330
809.337341,331
809.456116,338
809.57489,329
809.693726,315
809.8125,334
809.931274,326
810.050049,344
810.168884,343
810.287659,323
810.406372,319
810.525269,334
810.643982,333
810.762756,317
810.881531,339
811.000305,340
811.11908,325
811.237854,338
811.356567,324
811.475403,323
811.594116,321
811.71283,337
811.831604,346
811.950378,325
812.069153,335
812.187927,339
812.30658,333
812.425415,337
812.544128,328
812.662781,340
812.781616,339
812.900269,339
813.019043,316
813.137756,336
813.256531,339
813.375244,337
813.493896,332
813.612671,340
813.731384,323
813.850037,352
813.96875,323
814.087524,327
814.206238,325
814.324951,342
814.443604,340
814.562256,322
814.68103,327
814.799683,321
814.918335,335
815.037109,322
815.155762,334
815.274475,333
815.393188,328
815.511841,335
815.630554,326
815.749146,318
815.867859,338
815.986572,330
816.105164,320
816.223877,323
816.342529,320
816.461182,324
816.579895,336
816.698486,331
816.817139,324
816.935791,335
817.054504,326
817.173096,332
817.291748,333
817.4104,329
817.529053,328
817.647644,315
817.766235,333
817.884949,331
818.00354,337
818.122192,335
818.240845,326
818.359436,322
818.478088,328
818.59668,321
818.715271,324
818.833923,321
818.952515,318
819.071106,325
819.189758,327
819.30835,325
819.426941,302
819.545532,317
819.664124,314
819.782715,335
819.901306,324
820.019897,334
820.138489,325
820.25708,315
820.375671,312
820.494202,316
820.612732,303
820.731384,337
820.849915,309
820.968506,317
821.087097,321
821.205627,319
821.324158,320
821.442749,315
821.561279,308
821.679871,326
821.798401,315
821.916931,315
822.035461,323
822.154053,320
822.272583,328
822.391174,326
822.509583,325
822.628174,331
822.746704,323
822.865234,312
822.983765,312
823.102295,317
823.220825,309
823.339294,316
823.457825,321
823.576355,305
823.694824,318
823.813354,318
823.931885,323
824.050354,321
824.168884,325
824.287354,312
824.405823,314
824.524353,321
824.642822,320
824.761353,326
824.879822,324
824.998291,315
825.116699,318
825.235291,332
825.353699,318
825.472168,325
825.590637,308
825.709106,321
825.827576,308
825.946045,298
826.064453,325
826.182983,310
826.301392,321
826.4198,318
826.53833,317
826.656738,326
826.775208,314
826.893677,313
827.012024,318
827.130493,323
827.248962,310
827.36731,323
827.485779,309
827.604248,309
827.722595,313
827.841064,312
827.959412,326
828.077942,316
828.196289,323
828.314636,317
828.433105,301
828.551514,323
828.669861,303
828.78833,322
828.906677,309
829.025085,316
829.143433,310
829.261841,322
829.38031,314
829.498657,324
829.617004,311
829.735413,331
829.85376,322
829.972107,327
830.090515,330
830.208862,303
830.327209,325
830.445557,322
830.563904,305
830.682312,309
830.800659,319
830.919006,318
831.037354,317
831.155701,309
831.274048,311
831.392395,329
831.51062,306
831.629028,326
831.747314,319
831.865662,314
831.984009,308
832.102356,314
832.220642,305
832.338928,311
832.457275,305
832.575623,310
832.693909,308
832.812134,325
832.930481,298
833.048828,332
833.167114,310
833.2854,318
833.403687,322
833.521973,317
833.640259,320
833.758545,319
833.876831,323
833.995056,321
834.113281,305
834.231628,320
834.349915,331
834.468201,313
834.586426,311
834.704651,315
834.822998,308
834.941162,315
835.059448,320
835.177673,317
835.295959,315
835.414246,313
835.53241,307
835.650635,313
835.768921,308
835.887146,310
836.005371,308
836.123596,326
836.241821,318
836.360046,327
836.478271,310
836.596497,325
836.714722,319
836.832886,330
836.95105,315
837.069336,306
837.1875,323
837.305725,322
837.423889,325
837.542053,326
837.660339,319
837.778503,318
837.896667,314
838.014832,321
838.132996,323
838.25116,321
838.369385,302
838.487488,313
838.605713,312
838.723877,319
838.84198,314
838.960205,319
839.078308,310
839.196472,315
839.314636,316
839.4328,319
839.550964,317
839.669067,309
839.787231,326
839.905396,315
840.023499,316
840.141602,320
840.259766,316
840.377869,335
840.495972,313
840.614136,326
840.732239,322
840.850342,339
840.968445,305
841.086548,320
841.204651,297
841.322754,321
841.440918,311
841.55896,327
841.677002,309
841.795166,316
841.913208,314
842.031311,316
842.149353,305
842.267456,322
842.385498,303
842.503601,328
842.621643,312
842.739746,310
842.857788,304
842.97583,320
843.093933,306
843.211975,315
843.330017,320
843.44812,322
843.566101,314
843.684204,322
843.802246,318
843.920227,318
844.038269,316
844.156311,315
844.274292,326
844.392395,319
844.510376,313
844.628357,318
844.74646,305
844.864441,316
844.982422,303
845.100403,320
845.218384,320
845.336426,316
845.454468,320
845.572449,318
845.69043,323
845.808411,326
845.926453,317
846.044373,316
846.162354,312
846.280396,317
846.398315,319
846.516296,308
846.634216,312
846.752197,320
846.870178,326
846.988098,304
847.106079,308
847.22406,310
847.34198,314
847.4599,310
847.577881,314
847.695801,316
847.813782,315
847.931641,314
848.049561,315
848.167603,316
848.285461,306
848.403381,312
848.521362,312
848.639221,329
848.75708,327
848.875,315
848.99292,323
849.110901,311
849.22876,321
849.34668,309
849.464539,308
849.582458,317
849.700317,322
849.818176,311
849.936096,322
850.053955,328
850.171875,303
850.289673,319
850.407593,316
850.525452,320
850.643311,316
850.761169,319
850.878967,312
850.996887,313
851.114746,303
851.232544,307
851.350403,321
851.468262,318
851.58606,319
851.703979,321
851.821777,312
851.939636,331
852.057434,305
852.175232,318
852.293091,302
852.410889,316
852.528687,318
852.646545,313
852.764343,312
852.88208,334
852.999939,325
853.117676,317
853.235535,302
853.353271,313
853.471069,321
853.588928,312
853.706604,308
853.824402,331
853.9422,322
854.059998,323
854.177734,305
854.295532,308
854.413269,310
854.531006,331
854.648804,308
854.766541,317
854.884277,318
855.002014,316
855.119751,307
855.237549,318
855.355225,316
855.473022,324
855.590698,303
855.708435,325
855.826172,309
855.943848,325
856.061646,315
856.179321,309
856.296997,306
856.414795,314
856.53241,308
856.650085,314
856.767822,329
856.885559,311
857.003174,331
857.120911,306
857.238586,321
857.356201,315
857.473938,325
857.591614,335
857.709351,306
857.826965,320
857.944641,316
858.062317,323
858.179993,323
858.297668,313
858.415283,316
858.532959,315
858.650574,322
858.768188,328
858.885803,314
859.003479,318
859.121094,325
859.23877,318
859.356384,320
859.473999,324
859.591675,314
859.709229,318
859.826843,313
859.944458,316
860.062012,311
860.179626,321
860.297302,310
860.414856,321
860.532471,303
860.650024,326
860.767639,322
860.885193,308
861.002808,309
861.120361,311
861.237976,309
861.35553,304
861.473022,303
861.590698,328
861.708191,318
861.825745,309
861.943298,318
862.060852,322
862.178406,315
862.295959,327
862.413513,304
862.531006,325
862.64856,302
862.766113,310
862.883667,308
863.00116,302
863.118713,315
863.236206,317
863.353699,316
863.471252,321
863.588745,317
863.706177,317
863.82373,313
863.941162,315
864.058716,319
864.176208,309
864.29364,310
864.411194,319
864.528687,317
864.646118,322
864.763611,317
864.881042,330
864.998535,306
865.116028,322
865.233459,307
865.350891,316
865.468384,316
865.585754,323
865.703308,324
865.820679,323
865.938171,325
866.055542,321
866.173035,312
866.290466,331
866.407837,310
866.52533,312
866.6427,304
866.760071,310
866.877563,317
866.994934,319
867.112305,329
867.229736,319
867.347107,311
867.464539,319
867.58197,309
867.699341,319
867.81665,312
867.934082,337
868.051453,303
868.168823,325
868.286194,315
868.403564,306
868.520935,310
868.638306,311
868.755676,310
868.872986,319
868.990295,317
869.107727,306
869.225037,311
869.342346,316
869.459717,307
869.577026,317
869.694336,324
869.811707,322
869.929016,320
870.046326,310
870.163635,308
870.280945,319
870.398254,317
870.515564,319
870.632812,315
870.750183,330
870.867432,305
870.984741,319
871.102051,314
871.219299,319
871.336609,313
871.453918,309
871.571106,295
871.688416,306
871.805664,318
871.922852,320
872.040222,311
872.157471,320
872.274719,304
872.391968,320
872.509155,313
872.626465,321
872.743652,308
872.860962,301
872.978149,319
873.095337,318
873.212646,317
873.329834,319
873.44696,308
873.564209,313
873.681396,309
873.798645,321
873.915894,306
874.03302,321
874.150208,315
874.267456,328
874.384583,303
874.501831,322
874.618958,306
874.736145,322
874.853333,319
874.970459,317
875.087646,326
875.204834,317
875.32196,320
875.439148,323
875.556274,310
875.673401,319
875.790527,306
875.907715,328
876.024841,310
876.141968,310
876.259094,307
876.376282,322
876.493347,310
876.610474,314
876.7276,308
876.844727,320
876.961853,295
877.078918,319
877.195984,320
877.313171,326
877.430237,325
877.547302,305
877.664368,299
877.781433,321
877.898499,307
878.015625,331
878.13269,314
878.249695,315
878.366821,319
878.483887,314
878.600952,309
878.717957,322
878.834961,312
878.952087,327
879.069092,310
879.186157,314
879.303162,318
879.420227,316
879.537231,315
879.654236,325
879.77124,316
879.888306,307
880.005249,313
880.122314,327
880.239319,298
880.356323,330
880.473328,323
880.590271,324
880.707275,309
880.824341,314
880.941284,320
881.058228,328
881.175232,306
881.292236,303
881.40918,321
881.526123,308
881.643066,315
881.760071,312
881.877014,308
881.993958,323
882.11084,318
882.227783,321
882.344727,314
882.46167,332
882.578613,307
882.695618,328
882.812439,324
882.929382,315
883.046326,315
883.163208,328
883.280151,309
883.397034,313
883.513916,314
883.630798,325
883.747742,304
883.864563,325
883.981506,311
884.098389,314
884.21521,299
884.332153,320
884.448975,313
884.565796,307
884.682678,307
884.7995,318
884.916443,317
885.033264,316
885.150085,315
885.266968,314
885.383789,313
885.500671,313
885.617493,325
885.734314,308
885.851196,309
885.967896,324
886.084717,314
886.201599,325
886.318359,324
886.435181,326
886.552002,317
886.668762,323
886.785645,317
886.902344,326
887.019165,304
887.135925,306
887.252747,326
887.369446,321
887.486267,315
887.603027,315
887.719788,313
887.836548,316
887.953247,304
888.070068,334
888.186829,302
888.303528,321
888.420288,311
888.536987,325
888.653687,306
888.770447,300
888.887146,320
889.003967,324
889.120667,312
889.237305,317
889.354065,305
889.470703,316
889.587463,315
889.704163,314
889.820862,314
889.937561,321
890.054199,318
890.170837,318
890.287598,319
890.404236,309
890.520874,316
890.637634,311
890.754211,308
890.87085,311
890.987549,314
891.104187,317
891.220886,309
891.337463,317
891.454102,327
891.57074,320
891.687378,308
891.804077,325
891.920654,313
892.037231,330
892.15387,321
892.270447,316
892.387085,315
892.503723,325
892.6203,317
892.736877,310
892.853516,312
892.970032,319
893.08667,317
893.203186,323
893.319763,328
893.43634,331
893.552917,309
893.669556,316
893.786011,306
893.902588,324
894.019165,312
894.135681,327
894.252197,314
894.368835,328
894.485291,322
894.601868,319
894.718384,309
894.8349,312
894.951355,315
895.067932,328
895.184448,306
895.300964,314
895.417419,309
895.533936,329
895.650452,303
895.766907,317
895.883423,308
895.999878,322
896.116333,316
896.232849,327
896.349304,315
896.465759,310
896.582214,319
896.698669,333
896.815125,328
896.931641,319
897.048035,320
897.164551,309
897.280884,312
897.397339,328
897.513794,307
897.630249,310
897.746582,308
897.863098,316
897.979431,310
898.095886,317
898.212341,305
898.328674,322
898.445129,310
898.561462,327
898.677795,306
898.794312,324
898.910645,314
899.026978,321
899.143433,319
899.259766,325
899.37616,316
899.492493,314
899.608765,316
899.725159,321
899.841553,315
899.957947,321
900.07428,313
900.190552,317
900.306946,324
900.423157,308
900.53949,320
900.655884,330
900.772156,330
900.888489,318
901.004822,314
901.121033,323
901.237366,316
901.353699,322
901.46991,305
901.586304,320
901.702515,306
901.818787,312
901.93512,309
902.051331,319
902.167603,317
902.283875,307
902.400085,321
902.516418,323
902.632629,310
902.74884,314
902.865112,310
902.981384,329
903.097595,309
903.213867,306
903.330017,306
903.446289,329
903.5625,316
903.67865,319
903.794922,306
903.911072,314
904.027344,317
904.143494,319
904.259705,321
904.375916,323
904.492065,318
904.608215,315
904.724426,319
904.840576,319
904.956726,311
905.072876,317
905.189087,320
905.305176,332
905.421387,318
905.537537,306
905.653687,315
905.769775,324
905.885925,314
906.002014,319
906.118164,316
906.234314,318
906.350403,313
906.466492,303
906.582642,315
906.69873,317
906.814758,313
906.930908,324
907.046936,307
907.163086,317
907.279175,315
907.395264,310
907.511353,311
907.62738,319
907.743408,333
907.859497,325
907.975525,324
908.091553,304
908.207703,326
908.32373,324
908.439758,302
908.555786,294
908.671814,315
908.787842,316
908.90387,321
909.019775,326
909.135864,314
909.251892,318
909.367859,314
909.483826,323
909.599854,322
909.715881,329
909.831848,314
909.947815,312
910.063782,323
910.179749,328
910.295776,318
910.411743,324
910.527649,325
910.643616,324
910.759583,308
910.875488,319
910.991455,319
911.107361,317
911.223267,320
911.339294,319
911.4552,315
911.571106,321
911.687073,308
911.802979,316
911.918823,319
912.034729,307
912.150635,312
912.266602,307
912.382446,302
912.498352,303
912.614197,308
912.730103,317
912.846008,309
792.44574,320
792.56488,357
792.68396,407
792.80304,383
792.92218,351
793.041199,311
793.160339,320
793.279419,343
793.398499,324
793.517578,307
793.636658,327
793.755737,349
793.874817,354
793.993896,346
794.112976,347
794.232056,325
794.351074,323
794.470215,329
794.589233,330
794.708313,332
794.827393,337
794.946411,320
795.065552,347
795.18457,327
795.303589,352
795.422668,331
795.541687,318
795.660767,332
795.779846,322
795.898865,331
796.017883,325
796.136963,340
796.255981,328
796.375061,334
796.49408,338
796.613037,320
796.732117,330
796.851135,320
796.970154,335
797.089233,331
797.208191,337
797.327271,329
797.446228,336
797.565186,335
797.684265,335
797.803223,309
797.922241,328
798.04126,322
798.160278,335
798.279297,326
798.398315,337
798.517273,332
798.636292,317
798.75531,321
798.874268,333
798.993286,319
799.112244,313
799.231323,325
799.350281,336
799.469238,320
799.588257,338
799.707153,323
799.826111,336
799.945129,311
800.064087,329
800.183044,339
800.302063,332
800.421021,333
800.539978,328
800.658936,335
800.777893,333
800.896912,322
801.015747,342
801.134705,315
801.253723,317
801.37262,329
801.491638,332
801.610535,321
801.729492,335
801.84845,337
801.967407,342
802.086243,323
802.205261,331
802.324158,326
802.443115,337
802.562073,330
802.680969,341
802.799927,314
802.918762,348
803.037659,319
803.156677,332
803.275574,329
803.39447,333
803.513428,337
803.632263,326
803.751221,333
803.870117,342
803.989014,322
804.107971,339
804.226746,332
804.345642,333
804.4646,316
804.583496,334
804.702393,343
804.821228,328
804.940125,325
805.059021,332
805.177917,331
805.296814,334
805.415649,325
805.534546,346
805.653442,326
805.772278,333
805.891113,325
806.01001,339
806.128906,335
806.247742,328
806.366577,312
806.485413,335
806.604309,331
806.723145,331
806.84198,325
806.960876,324
807.079712,335
807.198486,333
807.317383,327
807.436218,334
807.554993,336
807.673889,342
807.792725,316
807.91156,316
808.030396,346
808.14917,333
808.268005,322
808.386841,329
808.505676,330
808.624451,329
808.743286,327
808.862122,351
808.980896,340
809.099731,339
809.218506,335
809.337341,326
809.456116,325
809.57489,329
809.693726,333
809.8125,328
809.931274,346
810.050049,334
810.168884,318
810.287659,332
810.406372,334
810.525269,339
810.643982,316
810.762756,332
810.881531,328
811.000305,337
811.11908,338
811.237854,338
811.356567,335
811.475403,344
811.594116,335
811.71283,324
811.831604,339
811.950378,339
812.069153,326
812.187927,327
812.30658,314
812.425415,338
812.544128,327
812.662781,333
812.781616,328
812.900269,335
813.019043,323
813.137756,334
813.256531,342
813.375244,334
813.493896,335
813.612671,341
813.731384,341
813.850037,339
813.96875,329
814.087524,336
814.206238,321
814.324951,335
814.443604,343
814.562256,327
814.68103,327
814.799683,328
814.918335,328
815.037109,333
815.155762,331
815.274475,339
815.393188,327
815.511841,337
815.630554,321
815.749146,338
815.867859,325
815.986572,339
816.105164,331
816.223877,337
816.342529,329
816.461182,331
816.579895,329
816.698486,337
816.817139,332
816.935791,322
817.054504,333
817.173096,337
817.291748,321
817.4104,354
817.529053,311
817.647644,349
817.766235,328
817.884949,332
818.00354,313
818.122192,337
818.240845,335
818.359436,317
818.478088,329
818.59668,317
818.715271,306
818.833923,320
818.952515,321
819.071106,329
819.189758,321
819.30835,329
819.426941,326
819.545532,325
819.664124,326
819.782715,323
819.901306,315
820.019897,332
820.138489,317
820.25708,329
820.375671,318
820.494202,314
820.612732,330
820.731384,320
820.849915,320
820.968506,335
821.087097,319
821.205627,313
821.324158,319
821.442749,326
821.561279,324
821.679871,333
821.798401,321
821.916931,336
822.035461,309
822.154053,313
822.272583,322
822.391174,313
822.509583,316
822.628174,309
822.746704,316
822.865234,311
822.983765,318
823.102295,321
823.220825,323
823.339294,327
823.457825,320
823.576355,320
823.694824,302
823.813354,335
823.931885,317
824.050354,311
824.168884,318
824.287354,312
824.405823,316
824.524353,331
824.642822,308
824.761353,336
824.879822,305
824.998291,323
825.116699,317
825.235291,335
825.353699,311
825.472168,323
825.590637,312
825.709106,327
825.827576,318
825.946045,336
826.064453,321
826.182983,307
826.301392,316
826.4198,313
826.53833,319
826.656738,333
826.775208,314
826.893677,320
827.012024,319
827.130493,317
827.248962,313
827.36731,320
827.485779,312
827.604248,315
827.722595,323
827.841064,321
827.959412,318
828.077942,317
828.196289,321
828.314636,309
828.433105,327
828.551514,305
828.669861,311
828.78833,308
828.906677,324
829.025085,318
829.143433,340
829.261841,313
829.38031,305
829.498657,307
829.617004,330
829.735413,324
829.85376,306
829.972107,326
830.090515,314
830.208862,318
830.327209,319
830.445557,319
830.563904,322
830.682312,324
830.800659,319
830.919006,323
831.037354,312
831.155701,318
831.274048,320
831.392395,334
831.51062,325
831.629028,320
831.747314,310
831.865662,315
831.984009,297
832.102356,300
832.220642,315
832.338928,318
832.457275,318
832.575623,320
832.693909,315
832.812134,313
832.930481,321
833.048828,328
833.167114,319
833.2854,318
833.403687,318
833.521973,317
833.640259,317
833.758545,313
833.876831,319
833.995056,318
834.113281,315
834.231628,313
834.349915,309
834.468201,308
834.586426,324
834.704651,315
834.822998,320
834.941162,312
835.059448,316
835.177673,324
835.295959,319
835.414246,326
835.53241,314
835.650635,313
835.768921,322
835.887146,320
836.005371,310
836.123596,328
836.241821,315
836.360046,307
836.478271,306
836.596497,319
836.714722,320
836.832886,330
836.95105,309
837.069336,306
837.1875,316
837.305725,330
837.423889,310
837.542053,325
837.660339,305
837.778503,317
837.896667,311
838.014832,320
838.132996,317
838.25116,310
838.369385,316
838.487488,329
838.605713,306
838.723877,332
838.84198,322
838.960205,319
839.078308,307
839.196472,331
839.314636,315
839.4328,313
839.550964,324
839.669067,325
839.787231,314
839.905396,320
840.023499,319
840.141602,317
840.259766,314
840.377869,318
840.495972,319
840.614136,320
840.732239,315
840.850342,315
840.968445,316
841.086548,304
841.204651,311
841.322754,320
841.440918,305
841.55896,326
841.677002,303
841.795166,310
841.913208,308
842.031311,320
842.149353,315
842.267456,309
842.385498,305
842.503601,309
842.621643,322
842.739746,323
842.857788,312
842.97583,322
843.093933,318
843.211975,318
843.330017,302
843.44812,320
843.566101,305
843.684204,319
843.802246,302
843.920227,318
844.038269,314
844.156311,318
844.274292,309
844.392395,319
844.510376,319
844.628357,321
844.74646,324
844.864441,308
844.982422,300
845.100403,312
845.218384,310
845.336426,312
845.454468,317
845.572449,330
845.69043,313
845.808411,307
845.926453,312
846.044373,311
846.162354,314
846.280396,329
846.398315,312
846.516296,320
846.634216,314
846.752197,315
846.870178,319
846.988098,320
847.106079,321
847.22406,314
847.34198,301
847.4599,324
847.577881,318
847.695801,323
847.813782,311
847.931641,321
848.049561,323
848.167603,326
848.285461,304
848.403381,318
848.521362,309
848.639221,309
848.75708,313
848.875,312
848.99292,310
849.110901,314
849.22876,313
849.34668,319
849.464539,317
849.582458,327
849.700317,299
849.818176,326
849.936096,316
850.053955,313
850.171875,310
850.289673,316
850.407593,318
850.525452,316
850.643311,323
850.761169,306
850.878967,312
850.996887,325
851.114746,311
851.232544,311
851.350403,314
851.468262,325
851.58606,305
851.703979,335
851.821777,320
851.939636,331
852.057434,309
852.175232,328
852.293091,307
852.410889,306
852.528687,329
852.646545,313
852.764343,319
852.88208,319
852.999939,324
853.117676,318
853.235535,306
853.353271,313
853.471069,325
853.588928,326
853.706604,318
853.824402,314
853.9422,321
854.059998,317
854.177734,321
854.295532,322
854.413269,322
854.531006,322
854.648804,321
854.766541,313
854.884277,312
855.002014,315
855.119751,318
855.237549,314
855.355225,317
855.473022,316
855.590698,313
855.708435,313
855.826172,322
855.943848,315
856.061646,332
856.179321,312
856.296997,324
856.414795,330
856.53241,309
856.650085,324
856.767822,312
856.885559,327
857.003174,321
857.120911,319
857.238586,318
857.356201,323
857.473938,324
857.591614,323
857.709351,309
857.826965,323
857.944641,321
858.062317,333
858.179993,314
858.297668,313
858.415283,315
858.532959,313
858.650574,312
858.768188,328
858.885803,319
859.003479,318
859.121094,310
859.23877,328
859.356384,326
859.473999,314
859.591675,317
859.709229,323
859.826843,319
859.944458,324
860.062012,311
860.179626,309
860.297302,319
860.414856,310
860.532471,314
860.650024,312
860.767639,319
860.885193,322
861.002808,311
861.120361,335
861.237976,320
861.35553,330
861.473022,312
861.590698,310
861.708191,319
861.825745,310
861.943298,306
862.060852,324
862.178406,313
862.295959,313
862.413513,314
862.531006,319
862.64856,306
862.766113,330
862.883667,307
863.00116,336
863.118713,299
863.236206,323
863.353699,318
863.471252,324
863.588745,319
863.706177,312
863.82373,312
863.941162,318
864.058716,317
864.176208,308
864.29364,310
864.411194,316
864.528687,311
864.646118,317
864.763611,311
864.881042,319
864.998535,311
865.116028,332
865.233459,308
865.350891,334
865.468384,315
865.585754,318
865.703308,319
865.820679,312
865.938171,317
866.055542,311
866.173035,311
866.290466,331
866.407837,307
866.52533,312
866.6427,327
866.760071,305
866.877563,321
866.994934,321
867.112305,312
867.229736,322
867.347107,322
867.464539,323
867.58197,296
867.699341,309
867.81665,314
867.934082,315
868.051453,309
868.168823,315
868.286194,310
868.403564,325
868.520935,317
868.638306,318
868.755676,306
868.872986,318
868.990295,314
869.107727,322
869.225037,308
869.342346,315
869.459717,316
869.577026,319
869.694336,312
869.811707,313
869.929016,325
870.046326,318
870.163635,310
870.280945,326
870.398254,326
870.515564,317
870.632812,309
870.750183,321
870.867432,311
870.984741,319
871.102051,314
871.219299,316
871.336609,326
871.453918,318
871.571106,320
871.688416,315
871.805664,309
871.922852,325
872.040222,303
872.157471,318
872.274719,311
872.391968,317
872.509155,323
872.626465,311
872.743652,310
872.860962,316
872.978149,315
873.095337,327
873.212646,318
873.329834,329
873.44696,323
873.564209,320
873.681396,318
873.798645,311
873.915894,310
874.03302,307
874.150208,314
874.267456,315
874.384583,306
874.501831,321
874.618958,293
874.736145,327
874.853333,321
874.970459,306
875.087646,314
875.204834,318
875.32196,308
875.439148,306
875.556274,308
875.673401,323
875.790527,319
875.907715,320
876.024841,317
876.141968,313
876.259094,307
876.376282,322
876.493347,324
876.610474,322
876.7276,311
876.844727,333
876.961853,316
877.078918,318
877.195984,311
877.313171,320
877.430237,314
877.547302,324
877.664368,311
877.781433,312
877.898499,303
878.015625,306
878.13269,315
878.249695,305
878.366821,318
878.483887,309
878.600952,321
878.717957,316
878.834961,304
878.952087,326
879.069092,316
879.186157,317
879.303162,313
879.420227,309
879.537231,309
879.654236,314
879.77124,320
879.888306,316
880.005249,305
880.122314,314
880.239319,299
880.356323,317
880.473328,319
880.590271,318
880.707275,308
880.824341,316
880.941284,309
881.058228,322
881.175232,314
881.292236,315
881.40918,308
881.526123,321
881.643066,324
881.760071,320
881.877014,312
881.993958,298
882.11084,327
882.227783,328
882.344727,309
882.46167,331
882.578613,318
882.695618,331
882.812439,311
882.929382,308
883.046326,317
883.163208,313
883.280151,317
883.397034,315
883.513916,324
883.630798,318
883.747742,306
883.864563,309
883.981506,324
884.098389,304
884.21521,315
884.332153,310
884.448975,312
884.565796,320
884.682678,321
884.7995,317
884.916443,316
885.033264,311
885.150085,314
885.266968,312
885.383789,324
885.500671,328
885.617493,329
885.734314,322
885.851196,313
885.967896,331
886.084717,301
886.201599,315
886.318359,314
886.435181,310
886.552002,306
886.668762,323
886.785645,322
886.902344,326
887.019165,313
887.135925,334
887.252747,306
887.369446,326
887.486267,300
887.603027,308
887.719788,309
887.836548,316
887.953247,307
888.070068,317
888.186829,299
888.303528,312
888.420288,318
888.536987,315
888.653687,306
888.770447,326
888.887146,312
889.003967,321
889.120667,318
889.237305,314
889.354065,303
889.470703,318
889.587463,325
889.704163,325
889.820862,308
889.937561,305
890.054199,317
890.170837,327
890.287598,325
890.404236,317
890.520874,309
890.637634,328
890.754211,310
890.87085,315
890.987549,308
891.104187,306
891.220886,308
891.337463,317
891.454102,323
891.57074,316
891.687378,320
891.804077,331
891.920654,317
892.037231,312
892.15387,326
892.270447,323
892.387085,310
892.503723,320
892.6203,328
892.736877,323
892.853516,309
892.970032,314
893.08667,325
893.203186,322
893.319763,305
893.43634,316
893.552917,304
893.669556,322
893.786011,309
893.902588,320
894.019165,321
894.135681,326
894.252197,318
894.368835,320
894.485291,309
894.601868,320
894.718384,308
894.8349,313
894.951355,327
895.067932,311
895.184448,309
895.300964,311
895.417419,320
895.533936,316
895.650452,315
895.766907,311
895.883423,310
895.999878,310
896.116333,319
896.232849,319
896.349304,298
896.465759,321
896.582214,307
896.698669,322
896.815125,309
896.931641,315
897.048035,306
897.164551,317
897.280884,330
897.397339,313
897.513794,295
897.630249,316
897.746582,301
897.863098,325
897.979431,318
898.095886,327
898.212341,308
898.328674,323
898.445129,312
898.561462,319
898.677795,319
898.794312,318
898.910645,304
899.026978,329
899.143433,317
899.259766,319
899.37616,313
899.492493,312
899.608765,313
899.725159,340
899.841553,316
899.957947,323
900.07428,313
900.190552,319
900.306946,313
900.423157,316
900.53949,315
900.655884,300
900.772156,305
900.888489,318
901.004822,310
901.121033,315
901.237366,314
901.353699,323
901.46991,302
901.586304,327
901.702515,320
901.818787,330
901.93512,312
902.051331,316
902.167603,305
902.283875,325
902.400085,312
902.516418,322
902.632629,316
902.74884,321
902.865112,304
902.981384,330
903.097595,318
903.213867,310
903.330017,313
903.446289,316
903.5625,322
903.67865,319
903.794922,307
903.911072,326
904.027344,295
904.143494,314
904.259705,328
904.375916,324
904.492065,309
904.608215,317
904.724426,310
904.840576,327
904.956726,315
905.072876,317
905.189087,318
905.305176,319
905.421387,312
905.537537,317
905.653687,321
905.769775,323
905.885925,301
906.002014,316
906.118164,328
906.234314,319
906.350403,324
906.466492,327
906.582642,311
906.69873,324
906.814758,312
906.930908,326
907.046936,308
907.163086,312
907.279175,308
907.395264,325
907.511353,317
907.62738,312
907.743408,321
907.859497,325
907.975525,314
908.091553,309
908.207703,307
908.32373,321
908.439758,319
908.555786,315
908.671814,317
908.787842,322
908.90387,330
909.019775,313
909.135864,315
909.251892,312
909.367859,330
909.483826,332
909.599854,305
909.715881,326
909.831848,301
909.947815,308
910.063782,315
910.179749,330
910.295776,312
910.411743,303
910.527649,334
910.643616,332
910.759583,319
910.875488,323
910.991455,318
911.107361,318
911.223267,306
911.339294,333
911.4552,336
911.571106,313
911.687073,319
911.802979,311
911.918823,326
912.034729,300
912.150635,309
912.266602,309
912.382446,324
912.498352,319
912.614197,301
912.730103,318
912.846008,314
792.44574,308
792.56488,348
792.68396,408
792.80304,390
792.92218,346
793.041199,301
793.160339,334
793.279419,347
793.398499,330
793.517578,315
793.636658,324
793.755737,338
793.874817,344
793.993896,355
794.112976,331
794.232056,317
794.351074,327
794.470215,342
794.589233,334
794.708313,330
794.827393,334
794.946411,344
795.065552,327
795.18457,335
795.303589,345
795.422668,338
795.541687,318
795.660767,340
795.779846,337
795.898865,328
796.017883,328
796.136963,332
796.255981,325
796.375061,324
796.49408,341
796.613037,331
796.732117,333
796.851135,341
796.970154,332
797.089233,326
797.208191,335
797.327271,336
797.446228,334
797.565186,334
797.684265,331
797.803223,320
797.922241,328
798.04126,337
798.160278,331
798.279297,329
798.398315,328
798.517273,330
798.636292,327
798.75531,338
798.874268,323
798.993286,324
799.112244,325
799.231323,322
799.350281,340
799.469238,329
799.588257,334
799.707153,348
799.826111,326
799.945129,351
800.064087,340
800.183044,331
800.302063,337
800.421021,319
800.539978,329
800.658936,305
800.777893,344
800.896912,315
801.015747,338
801.134705,324
801.253723,329
801.37262,332
801.491638,321
801.610535,330
801.729492,333
801.84845,317
801.967407,339
802.086243,336
802.205261,326
802.324158,328
802.443115,331
802.562073,329
802.680969,331
802.799927,325
802.918762,341
803.037659,334
803.156677,336
803.275574,308
803.39447,332
803.513428,329
803.632263,334
803.751221,324
803.870117,339
803.989014,326
804.107971,336
804.226746,336
804.345642,326
804.4646,323
804.583496,335
804.702393,341
804.821228,338
804.940125,333
805.059021,322
805.177917,335
805.296814,327
805.415649,337
805.534546,341
805.653442,334
805.772278,331
805.891113,331
806.01001,327
806.128906,325
806.247742,322
806.366577,338
806.485413,336
806.604309,325
806.723145,338
806.84198,330
806.960876,339
807.079712,344
807.198486,318
807.317383,342
807.436218,346
807.554993,334
807.673889,324
807.792725,339
807.91156,341
808.030396,329
808.14917,324
808.268005,333
808.386841,314
808.505676,349
808.624451,327
808.743286,333
808.862122,330
808.980896,341
809.099731,331
809.218506,338
809.337341,332
809.456116,333
809.57489,342
809.693726,336
809.8125,325
809.931274,340
810.050049,349
810.168884,320
810.287659,335
810.406372,324
810.525269,318
810.643982,329
810.762756,349
810.881531,344
811.000305,338
811.11908,328
811.237854,328
811.356567,344
811.475403,311
811.594116,330
811.71283,322
811.831604,327
811.950378,342
812.069153,331
812.187927,329
812.30658,324
812.425415,324
812.544128,329
812.662781,348
812.781616,324
812.900269,325
813.019043,346
813.137756,341
813.256531,333
813.375244,321
813.493896,343
813.612671,341
813.731384,336
813.850037,345
813.96875,319
814.087524,333
814.206238,334
814.324951,336
814.443604,331
814.562256,325
814.68103,340
814.799683,334
814.918335,338
815.037109,347
815.155762,329
815.274475,341
815.393188,334
815.511841,342
815.630554,318
815.749146,332
815.867859,332
815.986572,327
816.105164,341
816.223877,320
816.342529,328
816.461182,331
816.579895,334
816.698486,335
816.817139,335
816.935791,331
817.054504,340
817.173096,325
817.291748,338
817.4104,335
817.529053,320
817.647644,325
817.766235,332
817.884949,332
818.00354,326
818.122192,326
818.240845,331
818.359436,320
818.478088,319
818.59668,335
818.715271,320
818.833923,324
818.952515,327
819.071106,325
819.189758,315
819.30835,321
819.426941,313
819.545532,324
819.664124,325
819.782715,326
819.901306,313
820.019897,320
820.138489,317
820.25708,317
820.375671,333
820.494202,313
820.612732,319
820.731384,318
820.849915,318
820.968506,316
821.087097,310
821.205627,327
821.324158,316
821.442749,321
821.561279,340
821.679871,315
821.798401,313
821.916931,306
822.035461,319
822.154053,321
822.272583,315
822.391174,307
822.509583,316
822.628174,320
822.746704,324
822.865234,321
822.983765,315
823.102295,323
823.220825,320
823.339294,329
823.457825,315
823.576355,318
823.694824,320
823.813354,328
823.931885,327
824.050354,324
824.168884,307
824.287354,317
824.405823,320
824.524353,312
824.642822,319
824.761353,337
824.879822,314
824.998291,326
825.116699,330
825.235291,319
825.353699,327
825.472168,322
825.590637,307
825.709106,317
825.827576,323
825.946045,320
826.064453,313
826.182983,321
826.301392,327
826.4198,320
826.53833,313
826.656738,322
826.775208,311
826.893677,315
827.012024,314
827.130493,321
827.248962,309
827.36731,322
827.485779,328
827.604248,303
827.722595,323
827.841064,311
827.959412,311
828.077942,325
828.196289,296
828.314636,330
828.433105,312
828.551514,319
828.669861,329
828.78833,316
828.906677,318
829.025085,321
829.143433,314
829.261841,329
829.38031,310
829.498657,324
829.617004,320
829.735413,325
829.85376,318
829.972107,307
830.090515,317
830.208862,303
830.327209,312
830.445557,323
830.563904,309
830.682312,322
830.800659,314
830.919006,298
831.037354,314
831.155701,319
831.274048,301
831.392395,323
831.51062,311
831.629028,304
831.747314,312
831.865662,316
831.984009,316
832.102356,315
832.220642,306
832.338928,311
832.457275,312
832.575623,323
832.693909,309
832.812134,320
832.930481,311
833.048828,312
833.167114,315
833.2854,313
833.403687,321
833.521973,311
833.640259,312
833.758545,325
833.876831,315
833.995056,325
834.113281,324
834.231628,320
834.349915,313
834.468201,317
834.586426,303
834.704651,333
834.822998,320
834.941162,326
835.059448,321
835.177673,315
835.295959,319
835.414246,318
835.53241,305
835.650635,311
835.768921,313
835.887146,315
836.005371,327
836.123596,310
836.241821,307
836.360046,320
836.478271,312
836.596497,311
836.714722,304
836.832886,320
836.95105,317
837.069336,322
837.1875,328
837.305725,320
837.423889,312
837.542053,334
837.660339,317
837.778503,318
837.896667,326
838.014832,330
838.132996,319
838.25116,318
838.369385,320
838.487488,315
838.605713,315
838.723877,314
838.84198,316
838.960205,335
839.078308,322
839.196472,316
839.314636,318
839.4328,320
839.550964,321
839.669067,320
839.787231,302
839.905396,329
840.023499,320
840.141602,312
840.259766,320
840.377869,312
840.495972,322
840.614136,311
840.732239,329
840.850342,298
840.968445,326
841.086548,322
841.204651,332
841.322754,325
841.440918,305
841.55896,307
841.677002,323
841.795166,311
841.913208,314
842.031311,317
842.149353,309
842.267456,310
842.385498,321
842.503601,311
842.621643,317
842.739746,322
842.857788,320
842.97583,314
843.093933,318
843.211975,314
843.330017,319
843.44812,322
843.566101,312
843.684204,324
843.802246,313
843.920227,314
844.038269,321
844.156311,319
844.274292,306
844.392395,323
844.510376,311
844.628357,325
844.74646,315
844.864441,322
844.982422,304
845.100403,313
845.218384,310
845.336426,301
845.454468,317
845.572449,312
845.69043,312
845.808411,325
845.926453,310
846.044373,326
846.162354,311
846.280396,318
846.398315,318
846.516296,320
846.634216,316
846.752197,324
846.870178,318
846.988098,327
847.106079,317
847.22406,307
847.34198,306
847.4599,294
847.577881,322
847.695801,318
847.813782,321
847.931641,314
848.049561,319
848.167603,321
848.285461,317
848.403381,302
848.521362,319
848.639221,329
848.75708,318
848.875,315
848.99292,316
849.110901,336
849.22876,315
849.34668,322
849.464539,309
849.582458,320
849.700317,306
849.818176,306
849.936096,294
850.053955,306
850.171875,315
850.289673,315
850.407593,312
850.525452,306
850.643311,300
850.761169,325
850.878967,312
850.996887,325
851.114746,306
851.232544,317
851.350403,311
851.468262,314
851.58606,316
851.703979,301
851.821777,308
851.939636,322
852.057434,317
852.175232,318
852.293091,313
852.410889,313
852.528687,309
852.646545,320
852.764343,325
852.88208,327
852.999939,318
853.117676,323
853.235535,321
853.353271,324
853.471069,317
853.588928,316
853.706604,318
853.824402,324
853.9422,311
854.059998,320
854.177734,321
854.295532,312
854.413269,330
854.531006,310
854.648804,324
854.766541,296
854.884277,322
855.002014,301
855.119751,323
855.237549,329
855.355225,320
855.473022,322
855.590698,328
855.708435,317
855.826172,307
855.943848,311
856.061646,318
856.179321,326
856.296997,302
856.414795,330
856.53241,322
856.650085,322
856.767822,320
856.885559,311
857.003174,321
857.120911,320
857.238586,317
857.356201,329
857.473938,312
857.591614,327
857.709351,312
857.826965,319
857.944641,331
858.062317,314
858.179993,309
858.297668,317
858.415283,324
858.532959,336
858.650574,314
858.768188,319
858.885803,309
859.003479,311
859.121094,305
859.23877,308
859.356384,313
859.473999,316
859.591675,315
859.709229,315
859.826843,328
859.944458,322
860.062012,310
860.179626,316
860.297302,311
860.414856,320
860.532471,320
860.650024,314
860.767639,314
860.885193,319
861.002808,314
861.120361,327
861.237976,309
861.35553,311
861.473022,326
861.590698,311
861.708191,307
861.825745,324
861.943298,321
862.060852,312
862.178406,318
862.295959,318
862.413513,318
862.531006,321
862.64856,308
862.766113,313
862.883667,313
863.00116,340
863.118713,319
863.236206,305
863.353699,319
863.471252,318
863.588745,295
863.706177,319
863.82373,312
863.941162,319
864.058716,308
864.176208,334
864.29364,316
864.411194,306
864.528687,310
864.646118,316
864.763611,312
864.881042,323
864.998535,309
865.116028,321
865.233459,313
865.350891,317
865.468384,312
865.585754,310
865.703308,305
865.820679,318
865.938171,313
866.055542,323
866.173035,321
866.290466,330
866.407837,316
866.52533,324
866.6427,323
866.760071,324
866.877563,315
866.994934,316
867.112305,310
867.229736,318
867.347107,318
867.464539,325
867.58197,318
867.699341,311
867.81665,318
867.934082,330
868.051453,311
868.168823,309
868.286194,298
868.403564,306
868.520935,311
868.638306,325
868.755676,318
868.872986,319
868.990295,309
869.107727,315
869.225037,313
869.342346,316
869.459717,313
869.577026,333
869.694336,314
869.811707,317
869.929016,321
870.046326,319
870.163635,310
870.280945,312
870.398254,320
870.515564,317
870.632812,314
870.750183,313
870.867432,317
870.984741,325
871.102051,306
871.219299,323
871.336609,319
871.453918,324
871.571106,313
871.688416,312
871.805664,301
871.922852,316
872.040222,320
872.157471,313
872.274719,318
872.391968,314
872.509155,314
872.626465,313
872.743652,317
872.860962,314
872.978149,310
873.095337,317
873.212646,319
873.329834,319
873.44696,324
873.564209,325
873.681396,316
873.798645,313
873.915894,324
874.03302,319
874.150208,319
874.267456,318
874.384583,310
874.501831,323
874.618958,309
874.736145,310
874.853333,311
874.970459,324
875.087646,312
875.204834,326
875.32196,302
875.439148,319
875.556274,330
875.673401,322
875.790527,301
875.907715,309
876.024841,305
876.141968,306
876.259094,319
876.376282,310
876.493347,316
876.610474,317
876.7276,312
876.844727,307
876.961853,317
877.078918,311
877.195984,311
877.313171,319
877.430237,311
877.547302,311
877.664368,312
877.781433,319
877.898499,297
878.015625,311
878.13269,308
878.249695,315
878.366821,311
878.483887,325
878.600952,312
878.717957,318
878.834961,320
878.952087,309
879.069092,302
879.186157,303
879.303162,321
879.420227,319
879.537231,318
879.654236,316
879.77124,317
879.888306,312
880.005249,319
880.122314,324
880.239319,329
880.356323,320
880.473328,310
880.590271,305
880.707275,312
880.824341,318
880.941284,333
881.058228,308
881.175232,294
881.292236,312
881.40918,310
881.526123,313
881.643066,314
881.760071,314
881.877014,315
881.993958,321
882.11084,312
882.227783,307
882.344727,310
882.46167,326
882.578613,307
882.695618,314
882.812439,319
882.929382,324
883.046326,310
883.163208,317
883.280151,311
883.397034,320
883.513916,312
883.630798,320
883.747742,316
883.864563,318
883.981506,323
884.098389,321
884.21521,308
884.332153,309
884.448975,324
884.565796,312
884.682678,325
884.7995,313
884.916443,322
885.033264,320
885.150085,317
885.266968,309
885.383789,322
885.500671,325
885.617493,318
885.734314,321
885.851196,311
885.967896,317
886.084717,310
886.201599,325
886.318359,313
886.435181,307
886.552002,312
886.668762,327
886.785645,316
886.902344,319
887.019165,308
887.135925,315
887.252747,315
887.369446,320
887.486267,306
887.603027,330
887.719788,307
887.836548,326
887.953247,304
888.070068,321
888.186829,305
888.303528,323
888.420288,312
888.536987,320
888.653687,308
888.770447,319
888.887146,311
889.003967,311
889.120667,327
889.237305,324
889.354065,302
889.470703,329
889.587463,313
889.704163,332
889.820862,311
889.937561,322
890.054199,319
890.170837,322
890.287598,309
890.404236,323
890.520874,321
890.637634,320
890.754211,302
890.87085,326
890.987549,319
891.104187,322
891.220886,318
891.337463,306
891.454102,314
891.57074,330
891.687378,310
891.804077,309
891.920654,315
892.037231,335
892.15387,323
892.270447,318
892.387085,315
892.503723,324
892.6203,315
892.736877,301
892.853516,316
892.970032,323
893.08667,310
893.203186,317
893.319763,318
893.43634,324
893.552917,317
893.669556,322
893.786011,321
893.902588,323
894.019165,305
894.135681,324
894.252197,314
894.368835,312
894.485291,315
894.601868,307
894.718384,308
894.8349,315
894.951355,318
895.067932,303
895.184448,312
895.300964,319
895.417419,309
895.533936,328
895.650452,303
895.766907,322
895.883423,318
895.999878,316
896.116333,321
896.232849,324
896.349304,310
896.465759,314
896.582214,313
896.698669,325
896.815125,306
896.931641,319
897.048035,318
897.164551,317
897.280884,313
897.397339,326
897.513794,310
897.630249,313
897.746582,288
897.863098,314
897.979431,308
898.095886,328
898.212341,309
898.328674,328
898.445129,312
898.561462,317
898.677795,300
898.794312,327
898.910645,306
899.026978,318
899.143433,312
899.259766,330
899.37616,313
899.492493,311
899.608765,328
899.725159,319
899.841553,318
899.957947,306
900.07428,315
900.190552,327
900.306946,322
900.423157,327
900.53949,322
900.655884,313
900.772156,323
900.888489,314
901.004822,305
901.121033,305
901.237366,306
901.353699,316
901.46991,317
901.586304,315
901.702515,306
901.818787,316
901.93512,319
902.051331,313
902.167603,316
902.283875,314
902.400085,324
902.516418,322
902.632629,320
902.74884,307
902.865112,309
902.981384,308
903.097595,309
903.213867,315
903.330017,312
903.446289,313
903.5625,310
903.67865,317
903.794922,316
903.911072,330
904.027344,315
904.143494,305
904.259705,318
904.375916,318
904.492065,312
904.608215,327
904.724426,309
904.840576,317
904.956726,310
905.072876,326
905.189087,317
905.305176,320
905.421387,303
905.537537,302
905.653687,312
905.769775,322
905.885925,298
906.002014,335
906.118164,312
906.234314,316
906.350403,321
906.466492,313
906.582642,324
906.69873,321
906.814758,318
906.930908,319
907.046936,313
907.163086,325
907.279175,328
907.395264,323
907.511353,311
907.62738,322
907.743408,320
907.859497,321
907.975525,315
908.091553,323
908.207703,329
908.32373,326
908.439758,324
908.555786,301
908.671814,308
908.787842,318
908.90387,319
909.019775,327
909.135864,321
909.251892,314
909.367859,309
909.483826,327
909.599854,312
909.715881,327
909.831848,305
909.947815,321
910.063782,324
910.179749,316
910.295776,312
910.411743,318
910.527649,313
910.643616,320
910.759583,300
910.875488,321
910.991455,312
911.107361,328
911.223267,316
911.339294,312
911.4552,312
911.571106,311
911.687073,314
911.802979,311
911.918823,323
912.034729,318
912.150635,308
912.266602,320
912.382446,322
912.498352,323
912.614197,314
912.730103,331
912.846008,312
