792.44574,326
792.56488,373
792.68396,433
792.80304,397
792.92218,349
793.041199,321
793.160339,332
793.279419,364
793.398499,355
793.517578,327
793.636658,333
793.755737,340
793.874817,375
793.993896,357
794.112976,352
794.232056,332
794.351074,352
794.470215,359
794.589233,351
794.708313,347
794.827393,323
794.946411,333
795.065552,332
795.18457,342
795.303589,352
795.422668,335
795.541687,334
795.660767,345
795.779846,337
795.898865,347
796.017883,338
796.136963,324
796.255981,333
796.375061,331
796.49408,331
796.613037,346
796.732117,324
796.851135,323
796.970154,338
797.089233,326
797.208191,341
797.327271,330
797.446228,341
797.565186,332
797.684265,347
797.803223,337
797.922241,328
798.04126,336
798.160278,327
798.279297,330
798.398315,322
798.517273,342
798.636292,325
798.75531,343
798.874268,337
798.993286,321
799.112244,339
799.231323,321
799.350281,341
799.469238,331
799.588257,343
799.707153,318
799.826111,340
799.945129,324
800.064087,331
800.183044,319
800.302063,328
800.421021,331
800.539978,347
800.658936,327
800.777893,337
800.896912,318
801.015747,320
801.134705,317
801.253723,336
801.37262,325
801.491638,316
801.610535,332
801.729492,326
801.84845,325
801.967407,329
802.086243,320
802.205261,323
802.324158,324
802.443115,330
802.562073,339
802.680969,319
802.799927,323
802.918762,320
803.037659,332
803.156677,338
803.275574,312
803.39447,336
803.513428,341
803.632263,323
803.751221,335
803.870117,341
803.989014,324
804.107971,326
804.226746,325
804.345642,328
804.4646,335
804.583496,329
804.702393,328
804.821228,327
804.940125,329
805.059021,329
805.177917,329
805.296814,317
805.415649,326
805.534546,325
805.653442,313
805.772278,329
805.891113,333
806.01001,332
806.128906,321
806.247742,327
806.366577,334
806.485413,330
806.604309,329
806.723145,323
806.84198,315
806.960876,334
807.079712,334
807.198486,340
807.317383,320
807.436218,328
807.554993,327
807.673889,329
807.792725,326
807.91156,329
808.030396,330
808.14917,326
808.268005,324
808.386841,334
808.505676,313
808.624451,340
808.743286,328
808.862122,339
808.980896,326
809.099731,321
809.218506,332
809.337341,308
809.456116,327
809.57489,327
809.693726,326
809.8125,322
809.931274,321
810.050049,343
810.168884,321
810.287659,339
810.406372,312
810.525269,328
810.643982,304
810.762756,322
810.881531,324
811.000305,317
811.11908,318
811.237854,323
811.356567,322
811.475403,320
811.594116,327
811.71283,322
811.831604,328
811.950378,332
812.069153,313
812.187927,323
812.30658,316
812.425415,314
812.544128,320
812.662781,325
812.781616,323
812.900269,345
813.019043,325
813.137756,331
813.256531,339
813.375244,338
813.493896,322
813.612671,322
813.731384,320
813.850037,329
813.96875,330
814.087524,350
814.206238,315
814.324951,323
814.443604,331
814.562256,309
814.68103,326
814.799683,324
814.918335,330
815.037109,331
815.155762,330
815.274475,330
815.393188,329
815.511841,318
815.630554,323
815.749146,333
815.867859,326
815.986572,341
816.105164,335
816.223877,332
816.342529,333
816.461182,322
816.579895,323
816.698486,327
816.817139,334
816.935791,342
817.054504,323
817.173096,326
817.291748,342
817.4104,316
817.529053,324
817.647644,326
817.766235,310
817.884949,331
818.00354,332
818.122192,319
818.240845,319
818.359436,329
818.478088,311
818.59668,316
818.715271,327
818.833923,320
818.952515,320
819.071106,318
819.189758,313
819.30835,319
819.426941,316
819.545532,318
819.664124,330
819.782715,327
819.901306,313
820.019897,317
820.138489,290
820.25708,330
820.375671,329
820.494202,318
820.612732,332
820.731384,331
820.849915,321
820.968506,328
821.087097,307
821.205627,319
821.324158,323
821.442749,318
821.561279,311
821.679871,327
821.798401,318
821.916931,323
822.035461,308
822.154053,311
822.272583,308
822.391174,328
822.509583,316
822.628174,315
822.746704,322
822.865234,321
822.983765,318
823.102295,328
823.220825,323
823.339294,319
823.457825,324
823.576355,328
823.694824,308
823.813354,322
823.931885,314
824.050354,301
824.168884,316
824.287354,325
824.405823,324
824.524353,331
824.642822,323
824.761353,315
824.879822,321
824.998291,333
825.116699,321
825.235291,313
825.353699,321
825.472168,324
825.590637,314
825.709106,318
825.827576,334
825.946045,332
826.064453,308
826.182983,310
826.301392,317
826.4198,314
826.53833,303
826.656738,332
826.775208,318
826.893677,318
827.012024,309
827.130493,336
827.248962,311
827.36731,336
827.485779,328
827.604248,312
827.722595,336
827.841064,312
827.959412,296
828.077942,326
828.196289,323
828.314636,328
828.433105,319
828.551514,329
828.669861,323
828.78833,322
828.906677,309
829.025085,313
829.143433,329
829.261841,323
829.38031,327
829.498657,309
829.617004,313
829.735413,336
829.85376,309
829.972107,329
830.090515,319
830.208862,320
830.327209,322
830.445557,323
830.563904,319
830.682312,333
830.800659,314
830.919006,313
831.037354,319
831.155701,305
831.274048,314
831.392395,322
831.51062,308
831.629028,321
831.747314,317
831.865662,326
831.984009,323
832.102356,320
832.220642,334
832.338928,313
832.457275,324
832.575623,312
832.693909,325
832.812134,329
832.930481,310
833.048828,323
833.167114,306
833.2854,327
833.403687,314
833.521973,326
833.640259,323
833.758545,319
833.876831,320
833.995056,314
834.113281,323
834.231628,317
834.349915,329
834.468201,332
834.586426,325
834.704651,330
834.822998,305
834.941162,317
835.059448,324
835.177673,333
835.295959,322
835.414246,320
835.53241,316
835.650635,342
835.768921,329
835.887146,316
836.005371,320
836.123596,316
836.241821,324
836.360046,307
836.478271,310
836.596497,325
836.714722,325
836.832886,333
836.95105,307
837.069336,326
837.1875,321
837.305725,315
837.423889,318
837.542053,317
837.660339,309
837.778503,318
837.896667,306
838.014832,324
838.132996,326
838.25116,313
838.369385,319
838.487488,319
838.605713,306
838.723877,310
838.84198,316
838.960205,312
839.078308,336
839.196472,320
839.314636,322
839.4328,310
839.550964,337
839.669067,302
839.787231,324
839.905396,328
840.023499,319
840.141602,312
840.259766,315
840.377869,319
840.495972,332
840.614136,308
840.732239,320
840.850342,324
840.968445,311
841.086548,314
841.204651,309
841.322754,318
841.440918,311
841.55896,321
841.677002,320
841.795166,331
841.913208,314
842.031311,321
842.149353,332
842.267456,318
842.385498,307
842.503601,325
842.621643,323
842.739746,319
842.857788,310
842.97583,320
843.093933,313
843.211975,317
843.330017,314
843.44812,330
843.566101,313
843.684204,322
843.802246,316
843.920227,323
844.038269,327
844.156311,327
844.274292,316
844.392395,310
844.510376,311
844.628357,313
844.74646,320
844.864441,324
844.982422,310
845.100403,327
845.218384,326
845.336426,318
845.454468,314
845.572449,316
845.69043,317
845.808411,329
845.926453,301
846.044373,325
846.162354,308
846.280396,322
846.398315,315
846.516296,307
846.634216,321
846.752197,321
846.870178,318
846.988098,307
847.106079,309
847.22406,322
847.34198,322
847.4599,326
847.577881,313
847.695801,314
847.813782,318
847.931641,327
848.049561,312
848.167603,325
848.285461,312
848.403381,330
848.521362,330
848.639221,324
848.75708,321
848.875,312
848.99292,323
849.110901,330
849.22876,315
849.34668,324
849.464539,320
849.582458,308
849.700317,311
849.818176,319
849.936096,326
850.053955,309
850.171875,326
850.289673,323
850.407593,319
850.525452,318
850.643311,312
850.761169,320
850.878967,320
850.996887,315
851.114746,313
851.232544,325
851.350403,321
851.468262,332
851.58606,323
851.703979,326
851.821777,313
851.939636,326
852.057434,307
852.175232,320
852.293091,325
852.410889,311
852.528687,311
852.646545,318
852.764343,323
852.88208,329
852.999939,316
853.117676,329
853.235535,321
853.353271,311
853.471069,322
853.588928,319
853.706604,313
853.824402,310
853.9422,318
854.059998,322
854.177734,318
854.295532,333
854.413269,321
854.531006,329
854.648804,320
854.766541,320
854.884277,332
855.002014,328
855.119751,329
855.237549,309
855.355225,314
855.473022,311
855.590698,332
855.708435,326
855.826172,320
855.943848,323
856.061646,315
856.179321,310
856.296997,328
856.414795,329
856.53241,315
856.650085,340
856.767822,315
856.885559,312
857.003174,326
857.120911,328
857.238586,307
857.356201,326
857.473938,324
857.591614,327
857.709351,311
857.826965,315
857.944641,310
858.062317,326
858.179993,315
858.297668,310
858.415283,312
858.532959,332
858.650574,330
858.768188,325
858.885803,324
859.003479,326
859.121094,318
859.23877,319
859.356384,309
859.473999,322
859.591675,322
859.709229,318
859.826843,315
859.944458,325
860.062012,310
860.179626,316
860.297302,321
860.414856,324
860.532471,313
860.650024,318
860.767639,323
860.885193,328
861.002808,317
861.120361,317
861.237976,327
861.35553,324
861.473022,313
861.590698,318
861.708191,318
861.825745,324
861.943298,329
862.060852,335
862.178406,331
862.295959,331
862.413513,302
862.531006,317
862.64856,306
862.766113,319
862.883667,321
863.00116,332
863.118713,322
863.236206,318
863.353699,319
863.471252,328
863.588745,322
863.706177,318
863.82373,317
863.941162,324
864.058716,310
864.176208,322
864.29364,313
864.411194,323
864.528687,314
864.646118,322
864.763611,315
864.881042,336
864.998535,312
865.116028,319
865.233459,307
865.350891,317
865.468384,315
865.585754,316
865.703308,322
865.820679,327
865.938171,316
866.055542,317
866.173035,311
866.290466,320
866.407837,313
866.52533,305
866.6427,302
866.760071,324
866.877563,312
866.994934,324
867.112305,304
867.229736,317
867.347107,312
867.464539,332
867.58197,324
867.699341,316
867.81665,313
867.934082,312
868.051453,307
868.168823,314
868.286194,312
868.403564,324
868.520935,314
868.638306,309
868.755676,328
868.872986,307
868.990295,325
869.107727,314
869.225037,321
869.342346,324
869.459717,327
869.577026,335
869.694336,323
869.811707,330
869.929016,320
870.046326,315
870.163635,322
870.280945,324
870.398254,312
870.515564,334
870.632812,320
870.750183,328
870.867432,316
870.984741,326
871.102051,320
871.219299,316
871.336609,321
871.453918,324
871.571106,305
871.688416,311
871.805664,310
871.922852,320
872.040222,324
872.157471,322
872.274719,317
872.391968,320
872.509155,331
872.626465,316
872.743652,320
872.860962,320
872.978149,310
873.095337,327
873.212646,307
873.329834,324
873.44696,310
873.564209,315
873.681396,320
873.798645,329
873.915894,323
874.03302,311
874.150208,311
874.267456,324
874.384583,328
874.501831,335
874.618958,326
874.736145,325
874.853333,322
874.970459,324
875.087646,312
875.204834,321
875.32196,316
875.439148,319
875.556274,325
875.673401,326
875.790527,310
875.907715,321
876.024841,318
876.141968,317
876.259094,308
876.376282,315
876.493347,312
876.610474,320
876.7276,319
876.844727,311
876.961853,311
877.078918,322
877.195984,309
877.313171,313
877.430237,311
877.547302,327
877.664368,311
877.781433,332
877.898499,312
878.015625,323
878.13269,325
878.249695,321
878.366821,309
878.483887,313
878.600952,326
878.717957,322
878.834961,311
878.952087,315
879.069092,308
879.186157,326
879.303162,322
879.420227,311
879.537231,315
879.654236,318
879.77124,318
879.888306,314
880.005249,309
880.122314,330
880.239319,305
880.356323,322
880.473328,321
880.590271,316
880.707275,314
880.824341,318
880.941284,321
881.058228,317
881.175232,310
881.292236,327
881.40918,324
881.526123,317
881.643066,316
881.760071,319
881.877014,319
881.993958,327
882.11084,315
882.227783,330
882.344727,313
882.46167,319
882.578613,312
882.695618,315
882.812439,314
882.929382,322
883.046326,313
883.163208,327
883.280151,318
883.397034,310
883.513916,303
883.630798,314
883.747742,327
883.864563,332
883.981506,324
884.098389,310
884.21521,317
884.332153,315
884.448975,309
884.565796,328
884.682678,310
884.7995,315
884.916443,316
885.033264,324
885.150085,317
885.266968,312
885.383789,318
885.500671,320
885.617493,326
885.734314,329
885.851196,314
885.967896,316
886.084717,315
886.201599,344
886.318359,319
886.435181,320
886.552002,322
886.668762,318
886.785645,317
886.902344,335
887.019165,309
887.135925,329
887.252747,324
887.369446,327
887.486267,318
887.603027,326
887.719788,326
887.836548,322
887.953247,322
888.070068,322
888.186829,306
888.303528,318
888.420288,324
888.536987,319
888.653687,313
888.770447,323
888.887146,319
889.003967,321
889.120667,318
889.237305,316
889.354065,315
889.470703,322
889.587463,320
889.704163,323
889.820862,316
889.937561,323
890.054199,311
890.170837,322
890.287598,320
890.404236,330
890.520874,316
890.637634,325
890.754211,316
890.87085,324
890.987549,310
891.104187,312
891.220886,317
891.337463,324
891.454102,324
891.57074,309
891.687378,306
891.804077,313
891.920654,318
892.037231,332
892.15387,316
892.270447,310
892.387085,321
892.503723,314
892.6203,334
892.736877,308
892.853516,310
892.970032,326
893.08667,315
893.203186,328
893.319763,313
893.43634,313
893.552917,310
893.669556,331
893.786011,307
893.902588,320
894.019165,302
894.135681,324
894.252197,300
894.368835,322
894.485291,310
894.601868,309
894.718384,315
894.8349,322
894.951355,315
895.067932,329
895.184448,313
895.300964,318
895.417419,316
895.533936,320
895.650452,312
895.766907,316
895.883423,308
895.999878,305
896.116333,309
896.232849,313
896.349304,309
896.465759,305
896.582214,313
896.698669,318
896.815125,317
896.931641,319
897.048035,304
897.164551,322
897.280884,319
897.397339,317
897.513794,313
897.630249,305
897.746582,313
897.863098,311
897.979431,319
898.095886,318
898.212341,322
898.328674,323
898.445129,304
898.561462,324
898.677795,291
898.794312,331
898.910645,315
899.026978,334
899.143433,310
899.259766,326
899.37616,326
899.492493,316
899.608765,315
899.725159,327
899.841553,304
899.957947,329
900.07428,319
900.190552,326
900.306946,310
900.423157,323
900.53949,311
900.655884,315
900.772156,317
900.888489,329
901.004822,321
901.121033,310
901.237366,302
901.353699,323
901.46991,331
901.586304,309
901.702515,316
901.818787,325
901.93512,295
902.051331,318
902.167603,307
902.283875,315
902.400085,321
902.516418,331
902.632629,302
902.74884,322
902.865112,320
902.981384,334
903.097595,320
903.213867,320
903.330017,324
903.446289,334
903.5625,310
903.67865,313
903.794922,325
903.911072,322
904.027344,320
904.143494,330
904.259705,307
904.375916,330
904.492065,322
904.608215,326
904.724426,313
904.840576,319
904.956726,320
905.072876,311
905.189087,316
905.305176,321
905.421387,321
905.537537,336
905.653687,314
905.769775,315
905.885925,306
906.002014,321
906.118164,328
906.234314,310
906.350403,315
906.466492,316
906.582642,305
906.69873,321
906.814758,317
906.930908,320
907.046936,320
907.163086,325
907.279175,323
907.395264,321
907.511353,313
907.62738,323
907.743408,324
907.859497,322
907.975525,305
908.091553,315
908.207703,300
908.32373,335
908.439758,321
908.555786,319
908.671814,305
908.787842,308
908.90387,320
909.019775,326
909.135864,307
909.251892,335
909.367859,320
909.483826,327
909.599854,317
909.715881,316
909.831848,315
909.947815,318
910.063782,307
910.179749,333
910.295776,315
910.411743,322
910.527649,311
910.643616,331
910.759583,315
910.875488,317
910.991455,314
911.107361,325
911.223267,315
911.339294,317
911.4552,323
911.571106,329
911.687073,314
911.802979,321
911.918823,317
912.034729,334
912.150635,318
912.266602,293
912.382446,311
912.498352,308
912.614197,317
912.730103,325
912.846008,314
792.44574,334
792.56488,373
792.68396,418
792.80304,404
792.92218,358
793.041199,321
793.160339,345
793.279419,351
793.398499,350
793.517578,321
793.636658,356
793.755737,351
793.874817,351
793.993896,354
794.112976,340
794.232056,335
794.351074,343
794.470215,340
794.589233,329
794.708313,337
794.827393,329
794.946411,337
795.065552,347
795.18457,341
795.303589,322
795.422668,343
795.541687,315
795.660767,322
795.779846,345
795.898865,338
796.017883,340
796.136963,341
796.255981,338
796.375061,337
796.49408,343
796.613037,335
796.732117,345
796.851135,331
796.970154,338
797.089233,341
797.208191,331
797.327271,337
797.446228,343
797.565186,336
797.684265,337
797.803223,340
797.922241,322
798.04126,335
798.160278,324
798.279297,325
798.398315,322
798.517273,341
798.636292,331
798.75531,320
798.874268,325
798.993286,336
799.112244,331
799.231323,334
799.350281,324
799.469238,326
799.588257,333
799.707153,333
799.826111,326
799.945129,334
800.064087,323
800.183044,327
800.302063,330
800.421021,327
800.539978,325
800.658936,326
800.777893,335
800.896912,312
801.015747,326
801.134705,334
801.253723,327
801.37262,330
801.491638,317
801.610535,337
801.729492,321
801.84845,322
801.967407,325
802.086243,331
802.205261,333
802.324158,332
802.443115,329
802.562073,324
802.680969,332
802.799927,316
802.918762,332
803.037659,323
803.156677,323
803.275574,323
803.39447,330
803.513428,316
803.632263,334
803.751221,322
803.870117,325
803.989014,336
804.107971,331
804.226746,299
804.345642,324
804.4646,312
804.583496,330
804.702393,326
804.821228,311
804.940125,328
805.059021,323
805.177917,324
805.296814,315
805.415649,316
805.534546,340
805.653442,314
805.772278,330
805.891113,326
806.01001,322
806.128906,336
806.247742,319
806.366577,321
806.485413,310
806.604309,324
806.723145,323
806.84198,309
806.960876,347
807.079712,295
807.198486,328
807.317383,330
807.436218,339
807.554993,326
807.673889,343
807.792725,313
807.91156,340
808.030396,311
808.14917,336
808.268005,308
808.386841,328
808.505676,327
808.624451,332
808.743286,313
808.862122,329
808.980896,331
809.099731,336
809.218506,312
809.337341,320
809.456116,321
809.57489,316
809.693726,326
809.8125,322
809.931274,310
810.050049,320
810.168884,322
810.287659,334
810.406372,313
810.525269,340
810.643982,325
810.762756,330
810.881531,316
811.000305,325
811.11908,314
811.237854,318
811.356567,325
811.475403,320
811.594116,312
811.71283,336
811.831604,328
811.950378,324
812.069153,328
812.187927,324
812.30658,322
812.425415,335
812.544128,330
812.662781,327
812.781616,339
812.900269,341
813.019043,331
813.137756,329
813.256531,303
813.375244,329
813.493896,323
813.612671,326
813.731384,322
813.850037,323
813.96875,322
814.087524,322
814.206238,331
814.324951,330
814.443604,323
814.562256,321
814.68103,333
814.799683,322
814.918335,322
815.037109,330
815.155762,324
815.274475,338
815.393188,326
815.511841,319
815.630554,321
815.749146,340
815.867859,321
815.986572,323
816.105164,314
816.223877,333
816.342529,331
816.461182,325
816.579895,322
816.698486,326
816.817139,319
816.935791,319
817.054504,321
817.173096,332
817.291748,320
817.4104,323
817.529053,316
817.647644,332
817.766235,322
817.884949,327
818.00354,315
818.122192,315
818.240845,317
818.359436,323
818.478088,315
818.59668,316
818.715271,330
818.833923,330
818.952515,312
819.071106,324
819.189758,326
819.30835,321
819.426941,313
819.545532,313
819.664124,327
819.782715,334
819.901306,310
820.019897,321
820.138489,317
820.25708,317
820.375671,315
820.494202,305
820.612732,313
820.731384,322
820.849915,304
820.968506,327
821.087097,311
821.205627,321
821.324158,315
821.442749,317
821.561279,321
821.679871,329
821.798401,325
821.916931,320
822.035461,326
822.154053,325
822.272583,310
822.391174,324
822.509583,318
822.628174,316
822.746704,317
822.865234,315
822.983765,309
823.102295,326
823.220825,304
823.339294,318
823.457825,322
823.576355,322
823.694824,325
823.813354,322
823.931885,311
824.050354,329
824.168884,311
824.287354,324
824.405823,296
824.524353,336
824.642822,314
824.761353,333
824.879822,318
824.998291,329
825.116699,310
825.235291,320
825.353699,330
825.472168,323
825.590637,321
825.709106,323
825.827576,320
825.946045,333
826.064453,317
826.182983,326
826.301392,306
826.4198,323
826.53833,318
826.656738,310
826.775208,324
826.893677,316
827.012024,313
827.130493,315
827.248962,324
827.36731,325
827.485779,312
827.604248,318
827.722595,312
827.841064,326
827.959412,305
828.077942,315
828.196289,313
828.314636,324
828.433105,303
828.551514,326
828.669861,311
828.78833,327
828.906677,317
829.025085,327
829.143433,313
829.261841,304
829.38031,323
829.498657,322
829.617004,308
829.735413,299
829.85376,332
829.972107,318
830.090515,315
830.208862,317
830.327209,309
830.445557,328
830.563904,314
830.682312,319
830.800659,326
830.919006,322
831.037354,314
831.155701,321
831.274048,322
831.392395,313
831.51062,310
831.629028,320
831.747314,311
831.865662,316
831.984009,317
832.102356,327
832.220642,298
832.338928,308
832.457275,309
832.575623,325
832.693909,322
832.812134,333
832.930481,319
833.048828,329
833.167114,305
833.2854,315
833.403687,311
833.521973,313
833.640259,321
833.758545,317
833.876831,324
833.995056,319
834.113281,312
834.231628,327
834.349915,314
834.468201,317
834.586426,315
834.704651,332
834.822998,308
834.941162,318
835.059448,308
835.177673,329
835.295959,319
835.414246,308
835.53241,324
835.650635,312
835.768921,322
835.887146,317
836.005371,318
836.123596,305
836.241821,307
836.360046,321
836.478271,311
836.596497,311
836.714722,308
836.832886,321
836.95105,320
837.069336,327
837.1875,305
837.305725,318
837.423889,314
837.542053,323
837.660339,322
837.778503,323
837.896667,307
838.014832,323
838.132996,312
838.25116,306
838.369385,303
838.487488,312
838.605713,316
838.723877,335
838.84198,331
838.960205,313
839.078308,324
839.196472,309
839.314636,317
839.4328,321
839.550964,310
839.669067,328
839.787231,328
839.905396,321
840.023499,312
840.141602,315
840.259766,312
840.377869,316
840.495972,321
840.614136,316
840.732239,312
840.850342,331
840.968445,305
841.086548,324
841.204651,305
841.322754,335
841.440918,324
841.55896,308
841.677002,316
841.795166,317
841.913208,327
842.031311,325
842.149353,310
842.267456,329
842.385498,320
842.503601,332
842.621643,320
842.739746,323
842.857788,304
842.97583,319
843.093933,303
843.211975,328
843.330017,311
843.44812,327
843.566101,317
843.684204,316
843.802246,323
843.920227,318
844.038269,312
844.156311,333
844.274292,318
844.392395,310
844.510376,313
844.628357,323
844.74646,317
844.864441,313
844.982422,316
845.100403,321
845.218384,307
845.336426,331
845.454468,302
845.572449,324
845.69043,315
845.808411,327
845.926453,314
846.044373,322
846.162354,316
846.280396,310
846.398315,324
846.516296,313
846.634216,326
846.752197,325
846.870178,310
846.988098,321
847.106079,302
847.22406,336
847.34198,314
847.4599,323
847.577881,302
847.695801,320
847.813782,320
847.931641,311
848.049561,308
848.167603,321
848.285461,313
848.403381,320
848.521362,330
848.639221,325
848.75708,310
848.875,315
848.99292,315
849.110901,311
849.22876,319
849.34668,317
849.464539,305
849.582458,316
849.700317,317
849.818176,321
849.936096,314
850.053955,310
850.171875,320
850.289673,315
850.407593,326
850.525452,320
850.643311,314
850.761169,317
850.878967,317
850.996887,306
851.114746,316
851.232544,321
851.350403,316
851.468262,322
851.58606,302
851.703979,337
851.821777,324
851.939636,309
852.057434,316
852.175232,320
852.293091,316
852.410889,335
852.528687,316
852.646545,318
852.764343,311
852.88208,315
852.999939,312
853.117676,318
853.235535,320
853.353271,312
853.471069,310
853.588928,315
853.706604,321
853.824402,330
853.9422,320
854.059998,322
854.177734,318
854.295532,327
854.413269,311
854.531006,321
854.648804,332
854.766541,319
854.884277,308
855.002014,326
855.119751,312
855.237549,315
855.355225,311
855.473022,327
855.590698,319
855.708435,306
855.826172,317
855.943848,321
856.061646,313
856.179321,324
856.296997,302
856.414795,322
856.53241,318
856.650085,323
856.767822,302
856.885559,322
857.003174,312
857.120911,317
857.238586,319
857.356201,323
857.473938,309
857.591614,317
857.709351,321
857.826965,323
857.944641,307
858.062317,317
858.179993,318
858.297668,326
858.415283,322
858.532959,333
858.650574,319
858.768188,325
858.885803,311
859.003479,309
859.121094,330
859.23877,321
859.356384,304
859.473999,327
859.591675,327
859.709229,332
859.826843,319
859.944458,326
860.062012,315
860.179626,331
860.297302,310
860.414856,300
860.532471,317
860.650024,311
860.767639,317
860.885193,310
861.002808,316
861.120361,320
861.237976,312
861.35553,313
861.473022,320
861.590698,321
861.708191,318
861.825745,313
861.943298,319
862.060852,310
862.178406,319
862.295959,316
862.413513,308
862.531006,320
862.64856,314
862.766113,324
862.883667,334
863.00116,315
863.118713,307
863.236206,323
863.353699,320
863.471252,322
863.588745,305
863.706177,334
863.82373,321
863.941162,315
864.058716,308
864.176208,310
864.29364,323
864.411194,331
864.528687,323
864.646118,320
864.763611,309
864.881042,320
864.998535,318
865.116028,334
865.233459,325
865.350891,320
865.468384,318
865.585754,323
865.703308,317
865.820679,312
865.938171,318
866.055542,319
866.173035,313
866.290466,311
866.407837,321
866.52533,309
866.6427,317
866.760071,334
866.877563,311
866.994934,320
867.112305,305
867.229736,322
867.347107,323
867.464539,323
867.58197,314
867.699341,308
867.81665,322
867.934082,313
868.051453,314
868.168823,322
868.286194,317
868.403564,316
868.520935,315
868.638306,318
868.755676,326
868.872986,315
868.990295,320
869.107727,321
869.225037,315
869.342346,322
869.459717,312
869.577026,332
869.694336,323
869.811707,322
869.929016,320
870.046326,313
870.163635,326
870.280945,324
870.398254,321
870.515564,325
870.632812,294
870.750183,308
870.867432,326
870.984741,318
871.102051,335
871.219299,321
871.336609,323
871.453918,310
871.571106,321
871.688416,326
871.805664,320
871.922852,328
872.040222,307
872.157471,328
872.274719,311
872.391968,326
872.509155,316
872.626465,314
872.743652,324
872.860962,323
872.978149,314
873.095337,330
873.212646,315
873.329834,318
873.44696,311
873.564209,323
873.681396,325
873.798645,329
873.915894,312
874.03302,321
874.150208,319
874.267456,327
874.384583,319
874.501831,328
874.618958,326
874.736145,327
874.853333,326
874.970459,316
875.087646,310
875.204834,314
875.32196,319
875.439148,327
875.556274,306
875.673401,320
875.790527,306
875.907715,313
876.024841,325
876.141968,306
876.259094,318
876.376282,318
876.493347,331
876.610474,322
876.7276,314
876.844727,311
876.961853,306
877.078918,331
877.195984,327
877.313171,317
877.430237,314
877.547302,324
877.664368,313
877.781433,324
877.898499,320
878.015625,321
878.13269,329
878.249695,312
878.366821,319
878.483887,332
878.600952,308
878.717957,314
878.834961,306
878.952087,332
879.069092,303
879.186157,306
879.303162,310
879.420227,312
879.537231,310
879.654236,317
879.77124,306
879.888306,317
880.005249,319
880.122314,310
880.239319,318
880.356323,305
880.473328,317
880.590271,321
880.707275,324
880.824341,324
880.941284,319
881.058228,331
881.175232,321
881.292236,329
881.40918,327
881.526123,316
881.643066,324
881.760071,309
881.877014,323
881.993958,326
882.11084,310
882.227783,325
882.344727,312
882.46167,319
882.578613,322
882.695618,331
882.812439,319
882.929382,321
883.046326,311
883.163208,314
883.280151,307
883.397034,313
883.513916,314
883.630798,319
883.747742,328
883.864563,322
883.981506,316
884.098389,313
884.21521,317
884.332153,313
884.448975,314
884.565796,327
884.682678,321
884.7995,320
884.916443,320
885.033264,311
885.150085,324
885.266968,318
885.383789,328
885.500671,341
885.617493,322
885.734314,344
885.851196,308
885.967896,336
886.084717,316
886.201599,324
886.318359,318
886.435181,322
886.552002,319
886.668762,330
886.785645,326
886.902344,336
887.019165,319
887.135925,321
887.252747,327
887.369446,322
887.486267,320
887.603027,312
887.719788,325
887.836548,327
887.953247,318
888.070068,326
888.186829,316
888.303528,323
888.420288,309
888.536987,314
888.653687,309
888.770447,308
888.887146,311
889.003967,327
889.120667,310
889.237305,327
889.354065,325
889.470703,306
889.587463,314
889.704163,317
889.820862,306
889.937561,326
890.054199,321
890.170837,323
890.287598,328
890.404236,319
890.520874,300
890.637634,317
890.754211,320
890.87085,328
890.987549,311
891.104187,318
891.220886,310
891.337463,327
891.454102,309
891.57074,332
891.687378,320
891.804077,317
891.920654,321
892.037231,327
892.15387,320
892.270447,320
892.387085,317
892.503723,332
892.6203,318
892.736877,325
892.853516,315
892.970032,334
893.08667,311
893.203186,317
893.319763,316
893.43634,326
893.552917,301
893.669556,320
893.786011,301
893.902588,310
894.019165,308
894.135681,321
894.252197,309
894.368835,316
894.485291,318
894.601868,310
894.718384,316
894.8349,334
894.951355,313
895.067932,324
895.184448,314
895.300964,316
895.417419,299
895.533936,328
895.650452,310
895.766907,328
895.883423,310
895.999878,334
896.116333,305
896.232849,313
896.349304,325
896.465759,321
896.582214,306
896.698669,312
896.815125,315
896.931641,324
897.048035,298
897.164551,321
897.280884,306
897.397339,315
897.513794,318
897.630249,310
897.746582,306
897.863098,319
897.979431,312
898.095886,310
898.212341,315
898.328674,325
898.445129,319
898.561462,322
898.677795,314
898.794312,324
898.910645,313
899.026978,321
899.143433,303
899.259766,313
899.37616,309
899.492493,313
899.608765,319
899.725159,324
899.841553,304
899.957947,326
900.07428,304
900.190552,321
900.306946,305
900.423157,304
900.53949,318
900.655884,308
900.772156,306
900.888489,311
901.004822,315
901.121033,297
901.237366,305
901.353699,313
901.46991,310
901.586304,305
901.702515,318
901.818787,324
901.93512,308
902.051331,315
902.167603,315
902.283875,326
902.400085,318
902.516418,323
902.632629,312
902.74884,317
902.865112,328
902.981384,323
903.097595,310
903.213867,330
903.330017,314
903.446289,323
903.5625,316
903.67865,319
903.794922,325
903.911072,320
904.027344,313
904.143494,306
904.259705,315
904.375916,328
904.492065,321
904.608215,330
904.724426,312
904.840576,306
904.956726,302
905.072876,312
905.189087,315
905.305176,309
905.421387,316
905.537537,322
905.653687,304
905.769775,308
905.885925,305
906.002014,304
906.118164,317
906.234314,329
906.350403,319
906.466492,323
906.582642,309
906.69873,305
906.814758,316
906.930908,323
907.046936,317
907.163086,313
907.279175,318
907.395264,317
907.511353,307
907.62738,317
907.743408,304
907.859497,309
907.975525,313
908.091553,314
908.207703,311
908.32373,314
908.439758,311
908.555786,321
908.671814,316
908.787842,313
908.90387,314
909.019775,324
909.135864,318
909.251892,313
909.367859,316
909.483826,307
909.599854,321
909.715881,313
909.831848,305
909.947815,315
910.063782,324
910.179749,319
910.295776,306
910.411743,299
910.527649,311
910.643616,314
910.759583,313
910.875488,335
910.991455,318
911.107361,331
911.223267,296
911.339294,319
911.4552,319
911.571106,332
911.687073,317
911.802979,312
911.918823,309
912.034729,313
912.150635,318
912.266602,316
912.382446,313
912.498352,315
912.614197,304
912.730103,326
912.846008,307
792.44574,340
792.56488,367
792.68396,405
792.80304,407
792.92218,364
793.041199,344
793.160339,332
793.279419,355
793.398499,338
793.517578,329
793.636658,333
793.755737,356
793.874817,351
793.993896,359
794.112976,352
794.232056,332
794.351074,334
794.470215,355
794.589233,335
794.708313,322
794.827393,335
794.946411,332
795.065552,350
795.18457,344
795.303589,334
795.422668,343
795.541687,334
795.660767,344
795.779846,331
795.898865,343
796.017883,330
796.136963,336
796.255981,355
796.375061,348
796.49408,328
796.613037,339
796.732117,327
796.851135,332
796.970154,342
797.089233,325
797.208191,337
797.327271,325
797.446228,346
797.565186,327
797.684265,345
797.803223,340
797.922241,327
798.04126,330
798.160278,339
798.279297,332
798.398315,334
798.517273,339
798.636292,334
798.75531,321
798.874268,336
798.993286,350
799.112244,333
799.231323,328
799.350281,332
799.469238,327
799.588257,330
799.707153,330
799.826111,327
799.945129,325
800.064087,337
800.183044,322
800.302063,328
800.421021,331
800.539978,327
800.658936,331
800.777893,320
800.896912,338
801.015747,332
801.134705,329
801.253723,319
801.37262,326
801.491638,329
801.610535,325
801.729492,324
801.84845,318
801.967407,324
802.086243,334
802.205261,333
802.324158,346
802.443115,318
802.562073,315
802.680969,318
802.799927,332
802.918762,318
803.037659,331
803.156677,327
803.275574,332
803.39447,336
803.513428,323
803.632263,319
803.751221,316
803.870117,334
803.989014,323
804.107971,330
804.226746,330
804.345642,321
804.4646,329
804.583496,325
804.702393,332
804.821228,316
804.940125,326
805.059021,316
805.177917,316
805.296814,330
805.415649,329
805.534546,329
805.653442,327
805.772278,331
805.891113,329
806.01001,316
806.128906,325
806.247742,325
806.366577,330
806.485413,330
806.604309,313
806.723145,326
806.84198,325
806.960876,329
807.079712,325
807.198486,321
807.317383,332
807.436218,334
807.554993,332
807.673889,332
807.792725,309
807.91156,334
808.030396,325
808.14917,327
808.268005,326
808.386841,322
808.505676,331
808.624451,315
808.743286,324
808.862122,328
808.980896,324
809.099731,333
809.218506,315
809.337341,324
809.456116,320
809.57489,328
809.693726,330
809.8125,328
809.931274,327
810.050049,316
810.168884,323
810.287659,332
810.406372,330
810.525269,334
810.643982,325
810.762756,326
810.881531,322
811.000305,319
811.11908,334
811.237854,328
811.356567,334
811.475403,316
811.594116,329
811.71283,324
811.831604,323
811.950378,324
812.069153,337
812.187927,318
812.30658,339
812.425415,327
812.544128,339
812.662781,318
812.781616,326
812.900269,324
813.019043,332
813.137756,313
813.256531,331
813.375244,322
813.493896,334
813.612671,321
813.731384,309
813.850037,326
813.96875,330
814.087524,321
814.206238,331
814.324951,319
814.443604,340
814.562256,323
814.68103,326
814.799683,333
814.918335,326
815.037109,335
815.155762,326
815.274475,329
815.393188,329
815.511841,316
815.630554,324
815.749146,327
815.867859,339
815.986572,321
816.105164,308
816.223877,319
816.342529,325
816.461182,325
816.579895,327
816.698486,339
816.817139,333
816.935791,330
817.054504,323
817.173096,322
817.291748,324
817.4104,334
817.529053,317
817.647644,331
817.766235,321
817.884949,324
818.00354,318
818.122192,331
818.240845,325
818.359436,335
818.478088,311
818.59668,323
818.715271,329
818.833923,326
818.952515,327
819.071106,325
819.189758,331
819.30835,327
819.426941,320
819.545532,320
819.664124,318
819.782715,317
819.901306,312
820.019897,327
820.138489,313
820.25708,321
820.375671,332
820.494202,322
820.612732,326
820.731384,315
820.849915,323
820.968506,323
821.087097,328
821.205627,313
821.324158,325
821.442749,322
821.561279,320
821.679871,314
821.798401,319
821.916931,327
822.035461,315
822.154053,321
822.272583,325
822.391174,320
822.509583,327
822.628174,301
822.746704,322
822.865234,327
822.983765,316
823.102295,308
823.220825,319
823.339294,321
823.457825,317
823.576355,324
823.694824,317
823.813354,319
823.931885,322
824.050354,317
824.168884,318
824.287354,322
824.405823,317
824.524353,326
824.642822,321
824.761353,328
824.879822,333
824.998291,322
825.116699,323
825.235291,312
825.353699,335
825.472168,314
825.590637,316
825.709106,308
825.827576,325
825.946045,322
826.064453,327
826.182983,319
826.301392,313
826.4198,315
826.53833,322
826.656738,304
826.775208,320
826.893677,318
827.012024,320
827.130493,328
827.248962,319
827.36731,318
827.485779,319
827.604248,317
827.722595,323
827.841064,319
827.959412,318
828.077942,316
828.196289,322
828.314636,328
828.433105,317
828.551514,314
828.669861,322
828.78833,321
828.906677,338
829.025085,337
829.143433,322
829.261841,322
829.38031,308
829.498657,322
829.617004,319
829.735413,319
829.85376,311
829.972107,316
830.090515,316
830.208862,324
830.327209,314
830.445557,316
830.563904,311
830.682312,311
830.800659,327
830.919006,315
831.037354,315
831.155701,327
831.274048,321
831.392395,320
831.51062,313
831.629028,317
831.747314,329
831.865662,320
831.984009,311
832.102356,313
832.220642,324
832.338928,320
832.457275,314
832.575623,317
832.693909,317
832.812134,317
832.930481,317
833.048828,316
833.167114,326
833.2854,335
833.403687,314
833.521973,304
833.640259,324
833.758545,317
833.876831,319
833.995056,318
834.113281,325
834.231628,322
834.349915,314
834.468201,306
834.586426,305
834.704651,320
834.822998,307
834.941162,324
835.059448,318
835.177673,340
835.295959,321
835.414246,323
835.53241,317
835.650635,320
835.768921,325
835.887146,313
836.005371,320
836.123596,322
836.241821,325
836.360046,314
836.478271,328
836.596497,316
836.714722,321
836.832886,306
836.95105,320
837.069336,321
837.1875,332
837.305725,311
837.423889,313
837.542053,326
837.660339,314
837.778503,330
837.896667,324
838.014832,328
838.132996,313
838.25116,319
838.369385,314
838.487488,322
838.605713,310
838.723877,321
838.84198,322
838.960205,309
839.078308,320
839.196472,323
839.314636,313
839.4328,323
839.550964,307
839.669067,317
839.787231,304
839.905396,318
840.023499,321
840.141602,322
840.259766,328
840.377869,310
840.495972,327
840.614136,313
840.732239,318
840.850342,316
840.968445,322
841.086548,325
841.204651,315
841.322754,324
841.440918,314
841.55896,316
841.677002,327
841.795166,317
841.913208,325
842.031311,314
842.149353,324
842.267456,317
842.385498,326
842.503601,324
842.621643,315
842.739746,324
842.857788,323
842.97583,311
843.093933,335
843.211975,319
843.330017,321
843.44812,318
843.566101,314
843.684204,310
843.802246,321
843.920227,326
844.038269,319
844.156311,325
844.274292,322
844.392395,316
844.510376,327
844.628357,310
844.74646,317
844.864441,316
844.982422,324
845.100403,328
845.218384,327
845.336426,332
845.454468,313
845.572449,322
845.69043,319
845.808411,322
845.926453,319
846.044373,323
846.162354,335
846.280396,332
846.398315,321
846.516296,322
846.634216,301
846.752197,322
846.870178,322
846.988098,314
847.106079,313
847.22406,335
847.34198,325
847.4599,308
847.577881,324
847.695801,306
847.813782,332
847.931641,325
848.049561,323
848.167603,321
848.285461,319
848.403381,312
848.521362,332
848.639221,309
848.75708,310
848.875,313
848.99292,320
849.110901,322
849.22876,320
849.34668,322
849.464539,332
849.582458,326
849.700317,320
849.818176,322
849.936096,322
850.053955,322
850.171875,322
850.289673,329
850.407593,319
850.525452,312
850.643311,333
850.761169,316
850.878967,319
850.996887,320
851.114746,316
851.232544,321
851.350403,323
851.468262,329
851.58606,312
851.703979,310
851.821777,320
851.939636,329
852.057434,327
852.175232,301
852.293091,326
852.410889,324
852.528687,326
852.646545,319
852.764343,325
852.88208,320
852.999939,319
853.117676,325
853.235535,326
853.353271,319
853.471069,332
853.588928,315
853.706604,325
853.824402,311
853.9422,320
854.059998,328
854.177734,320
854.295532,322
854.413269,321
854.531006,327
854.648804,323
854.766541,319
854.884277,315
855.002014,330
855.119751,329
855.237549,317
855.355225,321
855.473022,327
855.590698,314
855.708435,320
855.826172,317
855.943848,325
856.061646,317
856.179321,323
856.296997,315
856.414795,326
856.53241,331
856.650085,318
856.767822,320
856.885559,323
857.003174,324
857.120911,322
857.238586,325
857.356201,325
857.473938,325
857.591614,323
857.709351,324
857.826965,335
857.944641,314
858.062317,314
858.179993,323
858.297668,326
858.415283,321
858.532959,332
858.650574,316
858.768188,335
858.885803,319
859.003479,322
859.121094,325
859.23877,326
859.356384,314
859.473999,317
859.591675,322
859.709229,297
859.826843,305
859.944458,315
860.062012,324
860.179626,314
860.297302,326
860.414856,317
860.532471,324
860.650024,321
860.767639,328
860.885193,320
861.002808,312
861.120361,337
861.237976,326
861.35553,307
861.473022,313
861.590698,303
861.708191,317
861.825745,314
861.943298,328
862.060852,320
862.178406,319
862.295959,319
862.413513,315
862.531006,330
862.64856,313
862.766113,313
862.883667,323
863.00116,297
863.118713,323
863.236206,313
863.353699,314
863.471252,315
863.588745,318
863.706177,310
863.82373,315
863.941162,300
864.058716,328
864.176208,317
864.29364,330
864.411194,309
864.528687,324
864.646118,325
864.763611,309
864.881042,309
864.998535,318
865.116028,315
865.233459,322
865.350891,314
865.468384,314
865.585754,329
865.703308,320
865.820679,318
865.938171,329
866.055542,314
866.173035,308
866.290466,301
866.407837,313
866.52533,303
866.6427,327
866.760071,329
866.877563,326
866.994934,316
867.112305,319
867.229736,307
867.347107,327
867.464539,300
867.58197,316
867.699341,316
867.81665,316
867.934082,318
868.051453,322
868.168823,314
868.286194,311
868.403564,328
868.520935,318
868.638306,308
868.755676,315
868.872986,327
868.990295,332
869.107727,324
869.225037,327
869.342346,330
869.459717,325
869.577026,320
869.694336,332
869.811707,323
869.929016,328
870.046326,312
870.163635,331
870.280945,323
870.398254,317
870.515564,313
870.632812,332
870.750183,313
870.867432,319
870.984741,318
871.102051,332
871.219299,305
871.336609,326
871.453918,315
871.571106,320
871.688416,316
871.805664,311
871.922852,318
872.040222,334
872.157471,326
872.274719,316
872.391968,317
872.509155,333
872.626465,322
872.743652,327
872.860962,320
872.978149,325
873.095337,331
873.212646,326
873.329834,311
873.44696,318
873.564209,326
873.681396,330
873.798645,325
873.915894,325
874.03302,334
874.150208,317
874.267456,321
874.384583,319
874.501831,301
874.618958,334
874.736145,330
874.853333,321
874.970459,322
875.087646,312
875.204834,318
875.32196,324
875.439148,322
875.556274,317
875.673401,324
875.790527,319
875.907715,321
876.024841,315
876.141968,320
876.259094,315
876.376282,332
876.493347,329
876.610474,306
876.7276,326
876.844727,327
876.961853,313
877.078918,318
877.195984,327
877.313171,321
877.430237,327
877.547302,315
877.664368,334
877.781433,318
877.898499,326
878.015625,310
878.13269,321
878.249695,321
878.366821,312
878.483887,318
878.600952,308
878.717957,326
878.834961,317
878.952087,317
879.069092,315
879.186157,319
879.303162,320
879.420227,315
879.537231,323
879.654236,317
879.77124,314
879.888306,314
880.005249,313
880.122314,311
880.239319,320
880.356323,312
880.473328,314
880.590271,324
880.707275,314
880.824341,322
880.941284,331
881.058228,321
881.175232,309
881.292236,312
881.40918,319
881.526123,320
881.643066,305
881.760071,329
881.877014,308
881.993958,310
882.11084,320
882.227783,320
882.344727,326
882.46167,311
882.578613,318
882.695618,317
882.812439,322
882.929382,325
883.046326,333
883.163208,318
883.280151,315
883.397034,313
883.513916,315
883.630798,344
883.747742,306
883.864563,321
883.981506,321
884.098389,296
884.21521,328
884.332153,314
884.448975,313
884.565796,320
884.682678,319
884.7995,315
884.916443,308
885.033264,318
885.150085,334
885.266968,321
885.383789,321
885.500671,317
885.617493,326
885.734314,332
885.851196,322
885.967896,319
886.084717,318
886.201599,320
886.318359,326
886.435181,320
886.552002,332
886.668762,321
886.785645,325
886.902344,314
887.019165,326
887.135925,326
887.252747,337
887.369446,313
887.486267,318
887.603027,325
887.719788,331
887.836548,304
887.953247,316
888.070068,335
888.186829,312
888.303528,299
888.420288,328
888.536987,319
888.653687,325
888.770447,314
888.887146,311
889.003967,325
889.120667,321
889.237305,325
889.354065,316
889.470703,308
889.587463,325
889.704163,311
889.820862,330
889.937561,314
890.054199,321
890.170837,318
890.287598,324
890.404236,316
890.520874,317
890.637634,314
890.754211,307
890.87085,327
890.987549,324
891.104187,315
891.220886,310
891.337463,322
891.454102,324
891.57074,323
891.687378,327
891.804077,315
891.920654,329
892.037231,324
892.15387,314
892.270447,314
892.387085,332
892.503723,318
892.6203,315
892.736877,302
892.853516,327
892.970032,335
893.08667,330
893.203186,306
893.319763,327
893.43634,310
893.552917,322
893.669556,331
893.786011,327
893.902588,335
894.019165,304
894.135681,318
894.252197,310
894.368835,322
894.485291,328
894.601868,318
894.718384,306
894.8349,309
894.951355,302
895.067932,319
895.184448,318
895.300964,316
895.417419,313
895.533936,316
895.650452,322
895.766907,318
895.883423,317
895.999878,316
896.116333,324
896.232849,320
896.349304,330
896.465759,320
896.582214,317
896.698669,314
896.815125,324
896.931641,314
897.048035,324
897.164551,313
897.280884,328
897.397339,325
897.513794,306
897.630249,321
897.746582,323
897.863098,322
897.979431,325
898.095886,307
898.212341,324
898.328674,322
898.445129,319
898.561462,305
898.677795,329
898.794312,323
898.910645,314
899.026978,323
899.143433,316
899.259766,316
899.37616,313
899.492493,323
899.608765,314
899.725159,298
899.841553,311
899.957947,316
900.07428,304
900.190552,310
900.306946,321
900.423157,315
900.53949,324
900.655884,319
900.772156,306
900.888489,312
901.004822,325
901.121033,314
901.237366,333
901.353699,312
901.46991,313
901.586304,316
901.702515,325
901.818787,320
901.93512,316
902.051331,311
902.167603,320
902.283875,314
902.400085,327
902.516418,319
902.632629,309
902.74884,305
902.865112,321
902.981384,323
903.097595,321
903.213867,321
903.330017,328
903.446289,311
903.5625,324
903.67865,319
903.794922,319
903.911072,302
904.027344,345
904.143494,313
904.259705,329
904.375916,327
904.492065,318
904.608215,310
904.724426,325
904.840576,321
904.956726,325
905.072876,314
905.189087,319
905.305176,323
905.421387,304
905.537537,327
905.653687,328
905.769775,318
905.885925,326
906.002014,313
906.118164,324
906.234314,315
906.350403,332
906.466492,307
906.582642,316
906.69873,317
906.814758,326
906.930908,328
907.046936,318
907.163086,320
907.279175,318
907.395264,310
907.511353,316
907.62738,322
907.743408,308
907.859497,316
907.975525,322
908.091553,312
908.207703,313
908.32373,303
908.439758,311
908.555786,319
908.671814,312
908.787842,319
908.90387,318
909.019775,324
909.135864,322
909.251892,320
909.367859,329
909.483826,314
909.599854,325
909.715881,309
909.831848,330
909.947815,322
910.063782,310
910.179749,315
910.295776,318
910.411743,323
910.527649,327
910.643616,317
910.759583,317
910.875488,325
910.991455,317
911.107361,315
911.223267,324
911.339294,327
911.4552,309
911.571106,325
911.687073,316
911.802979,303
911.918823,321
912.034729,313
912.150635,327
912.266602,309
912.382446,314
912.498352,315
912.614197,316
912.730103,326
912.846008,325
