792.44574,328
792.56488,348
792.68396,408
792.80304,379
792.92218,328
793.041199,317
793.160339,326
793.279419,335
793.398499,318
793.517578,311
793.636658,322
793.755737,346
793.874817,348
793.993896,346
794.112976,328
794.232056,344
794.351074,327
794.470215,332
794.589233,320
794.708313,315
794.827393,323
794.946411,334
795.065552,344
795.18457,344
795.303589,341
795.422668,328
795.541687,336
795.660767,329
795.779846,352
795.898865,314
796.017883,337
796.136963,336
796.255981,331
796.375061,316
796.49408,332
796.613037,323
796.732117,331
796.851135,340
796.970154,332
797.089233,337
797.208191,327
797.327271,319
797.446228,353
797.565186,325
797.684265,337
797.803223,322
797.922241,333
798.04126,332
798.160278,347
798.279297,331
798.398315,327
798.517273,332
798.636292,336
798.75531,344
798.874268,330
798.993286,337
799.112244,326
799.231323,337
799.350281,328
799.469238,335
799.588257,333
799.707153,326
799.826111,335
799.945129,336
800.064087,331
800.183044,330
800.302063,334
800.421021,319
800.539978,337
800.658936,324
800.777893,318
800.896912,324
801.015747,322
801.134705,329
801.253723,333
801.37262,337
801.491638,332
801.610535,329
801.729492,321
801.84845,323
801.967407,325
802.086243,310
802.205261,342
802.324158,327
802.443115,331
802.562073,339
802.680969,345
802.799927,340
802.918762,318
803.037659,325
803.156677,335
803.275574,323
803.39447,336
803.513428,322
803.632263,343
803.751221,337
803.870117,340
803.989014,317
804.107971,341
804.226746,325
804.345642,335
804.4646,322
804.583496,332
804.702393,338
804.821228,317
804.940125,326
805.059021,328
805.177917,323
805.296814,338
805.415649,335
805.534546,341
805.653442,334
805.772278,332
805.891113,324
806.01001,349
806.128906,326
806.247742,329
806.366577,346
806.485413,332
806.604309,335
806.723145,316
806.84198,327
806.960876,315
807.079712,332
807.198486,324
807.317383,328
807.436218,343
807.554993,336
807.673889,331
807.792725,334
807.91156,335
808.030396,326
808.14917,340
808.268005,317
808.386841,347
808.505676,351
808.624451,333
808.743286,329
808.862122,344
808.980896,349
809.099731,334
809.218506,336
809.337341,340
809.456116,343
809.57489,334
809.693726,315
809.8125,345
809.931274,350
810.050049,332
810.168884,335
810.287659,339
810.406372,331
810.525269,324
810.643982,331
810.762756,332
810.881531,327
811.000305,325
811.11908,333
811.237854,328
811.356567,332
811.475403,339
811.594116,333
811.71283,330
811.831604,326
811.950378,342
812.069153,337
812.187927,334
812.30658,324
812.425415,341
812.544128,336
812.662781,323
812.781616,338
812.900269,330
813.019043,334
813.137756,336
813.256531,334
813.375244,326
813.493896,324
813.612671,343
813.731384,336
813.850037,328
813.96875,343
814.087524,333
814.206238,331
814.324951,329
814.443604,322
814.562256,327
814.68103,340
814.799683,350
814.918335,333
815.037109,336
815.155762,338
815.274475,330
815.393188,334
815.511841,341
815.630554,322
815.749146,335
815.867859,331
815.986572,337
816.105164,334
816.223877,340
816.342529,339
816.461182,323
816.579895,321
816.698486,332
816.817139,346
816.935791,346
817.054504,340
817.173096,326
817.291748,318
817.4104,330
817.529053,335
817.647644,329
817.766235,314
817.884949,336
818.00354,318
818.122192,326
818.240845,348
818.359436,328
818.478088,327
818.59668,324
818.715271,324
818.833923,313
818.952515,325
819.071106,327
819.189758,323
819.30835,305
819.426941,314
819.545532,310
819.664124,319
819.782715,314
819.901306,327
820.019897,323
820.138489,312
820.25708,324
820.375671,307
820.494202,318
820.612732,314
820.731384,320
820.849915,320
820.968506,320
821.087097,317
821.205627,307
821.324158,333
821.442749,331
821.561279,315
821.679871,326
821.798401,327
821.916931,316
822.035461,331
822.154053,323
822.272583,325
822.391174,315
822.509583,302
822.628174,313
822.746704,316
822.865234,311
822.983765,313
823.102295,313
823.220825,327
823.339294,303
823.457825,316
823.576355,312
823.694824,314
823.813354,308
823.931885,319
824.050354,333
824.168884,321
824.287354,319
824.405823,327
824.524353,324
824.642822,317
824.761353,325
824.879822,331
824.998291,311
825.116699,318
825.235291,314
825.353699,320
825.472168,312
825.590637,317
825.709106,314
825.827576,335
825.946045,319
826.064453,316
826.182983,307
826.301392,326
826.4198,308
826.53833,313
826.656738,326
826.775208,317
826.893677,338
827.012024,322
827.130493,318
827.248962,313
827.36731,325
827.485779,318
827.604248,307
827.722595,323
827.841064,323
827.959412,311
828.077942,312
828.196289,311
828.314636,318
828.433105,318
828.551514,325
828.669861,330
828.78833,308
828.906677,317
829.025085,322
829.143433,315
829.261841,321
829.38031,319
829.498657,316
829.617004,310
829.735413,321
829.85376,316
829.972107,324
830.090515,332
830.208862,309
830.327209,321
830.445557,307
830.563904,320
830.682312,310
830.800659,324
830.919006,313
831.037354,318
831.155701,309
831.274048,323
831.392395,312
831.51062,308
831.629028,313
831.747314,314
831.865662,313
831.984009,321
832.102356,314
832.220642,315
832.338928,323
832.457275,314
832.575623,324
832.693909,322
832.812134,321
832.930481,320
833.048828,326
833.167114,307
833.2854,304
833.403687,327
833.521973,307
833.640259,318
833.758545,319
833.876831,309
833.995056,326
834.113281,324
834.231628,316
834.349915,318
834.468201,320
834.586426,315
834.704651,333
834.822998,313
834.941162,318
835.059448,308
835.177673,318
835.295959,321
835.414246,323
835.53241,317
835.650635,321
835.768921,320
835.887146,320
836.005371,318
836.123596,316
836.241821,316
836.360046,322
836.478271,322
836.596497,328
836.714722,327
836.832886,313
836.95105,323
837.069336,309
837.1875,303
837.305725,318
837.423889,322
837.542053,321
837.660339,305
837.778503,320
837.896667,327
838.014832,307
838.132996,316
838.25116,312
838.369385,311
838.487488,321
838.605713,317
838.723877,317
838.84198,323
838.960205,311
839.078308,321
839.196472,320
839.314636,320
839.4328,320
839.550964,325
839.669067,314
839.787231,323
839.905396,315
840.023499,311
840.141602,322
840.259766,330
840.377869,304
840.495972,314
840.614136,325
840.732239,311
840.850342,317
840.968445,318
841.086548,324
841.204651,315
841.322754,315
841.440918,310
841.55896,315
841.677002,324
841.795166,326
841.913208,302
842.031311,322
842.149353,308
842.267456,325
842.385498,322
842.503601,310
842.621643,328
842.739746,325
842.857788,316
842.97583,309
843.093933,329
843.211975,310
843.330017,327
843.44812,307
843.566101,323
843.684204,322
843.802246,314
843.920227,320
844.038269,304
844.156311,312
844.274292,323
844.392395,330
844.510376,320
844.628357,317
844.74646,304
844.864441,326
844.982422,317
845.100403,319
845.218384,333
845.336426,308
845.454468,312
845.572449,329
845.69043,318
845.808411,323
845.926453,297
846.044373,317
846.162354,305
846.280396,327
846.398315,307
846.516296,321
846.634216,301
846.752197,306
846.870178,312
846.988098,316
847.106079,307
847.22406,328
847.34198,307
847.4599,319
847.577881,308
847.695801,307
847.813782,318
847.931641,318
848.049561,317
848.167603,308
848.285461,319
848.403381,316
848.521362,314
848.639221,314
848.75708,314
848.875,305
848.99292,313
849.110901,317
849.22876,313
849.34668,324
849.464539,321
849.582458,305
849.700317,307
849.818176,317
849.936096,325
850.053955,317
850.171875,324
850.289673,311
850.407593,314
850.525452,313
850.643311,321
850.761169,314
850.878967,331
850.996887,323
851.114746,327
851.232544,316
851.350403,306
851.468262,324
851.58606,312
851.703979,329
851.821777,332
851.939636,321
852.057434,328
852.175232,319
852.293091,317
852.410889,326
852.528687,311
852.646545,316
852.764343,308
852.88208,317
852.999939,311
853.117676,309
853.235535,317
853.353271,315
853.471069,316
853.588928,303
853.706604,311
853.824402,321
853.9422,317
854.059998,335
854.177734,320
854.295532,319
854.413269,312
854.531006,318
854.648804,328
854.766541,307
854.884277,323
855.002014,309
855.119751,319
855.237549,309
855.355225,314
855.473022,330
855.590698,330
855.708435,308
855.826172,303
855.943848,314
856.061646,327
856.179321,320
856.296997,304
856.414795,322
856.53241,311
856.650085,320
856.767822,319
856.885559,315
857.003174,326
857.120911,323
857.238586,319
857.356201,330
857.473938,305
857.591614,324
857.709351,321
857.826965,321
857.944641,318
858.062317,332
858.179993,318
858.297668,313
858.415283,332
858.532959,310
858.650574,310
858.768188,323
858.885803,302
859.003479,323
859.121094,324
859.23877,324
859.356384,306
859.473999,318
859.591675,298
859.709229,320
859.826843,317
859.944458,327
860.062012,326
860.179626,319
860.297302,309
860.414856,308
860.532471,323
860.650024,314
860.767639,308
860.885193,326
861.002808,305
861.120361,314
861.237976,316
861.35553,323
861.473022,316
861.590698,309
861.708191,304
861.825745,319
861.943298,316
862.060852,316
862.178406,329
862.295959,316
862.413513,315
862.531006,308
862.64856,314
862.766113,309
862.883667,319
863.00116,304
863.118713,314
863.236206,315
863.353699,302
863.471252,321
863.588745,303
863.706177,319
863.82373,319
863.941162,319
864.058716,331
864.176208,328
864.29364,314
864.411194,317
864.528687,313
864.646118,319
864.763611,305
864.881042,314
864.998535,309
865.116028,313
865.233459,318
865.350891,323
865.468384,322
865.585754,318
865.703308,310
865.820679,327
865.938171,318
866.055542,323
866.173035,316
866.290466,321
866.407837,306
866.52533,316
866.6427,318
866.760071,318
866.877563,316
866.994934,311
867.112305,313
867.229736,310
867.347107,318
867.464539,318
867.58197,307
867.699341,317
867.81665,307
867.934082,315
868.051453,319
868.168823,313
868.286194,327
868.403564,320
868.520935,312
868.638306,305
868.755676,305
868.872986,328
868.990295,329
869.107727,309
869.225037,318
869.342346,308
869.459717,315
869.577026,319
869.694336,309
869.811707,304
869.929016,316
870.046326,317
870.163635,325
870.280945,313
870.398254,321
870.515564,318
870.632812,326
870.750183,322
870.867432,325
870.984741,320
871.102051,321
871.219299,313
871.336609,316
871.453918,317
871.571106,308
871.688416,318
871.805664,322
871.922852,313
872.040222,313
872.157471,312
872.274719,309
872.391968,330
872.509155,313
872.626465,317
872.743652,308
872.860962,310
872.978149,319
873.095337,317
873.212646,311
873.329834,309
873.44696,317
873.564209,310
873.681396,317
873.798645,312
873.915894,314
874.03302,306
874.150208,331
874.267456,337
874.384583,313
874.501831,309
874.618958,322
874.736145,315
874.853333,313
874.970459,320
875.087646,329
875.204834,315
875.32196,320
875.439148,313
875.556274,315
875.673401,323
875.790527,286
875.907715,310
876.024841,319
876.141968,309
876.259094,319
876.376282,326
876.493347,327
876.610474,335
876.7276,321
876.844727,315
876.961853,308
877.078918,314
877.195984,313
877.313171,320
877.430237,323
877.547302,319
877.664368,323
877.781433,316
877.898499,311
878.015625,314
878.13269,308
878.249695,307
878.366821,333
878.483887,327
878.600952,318
878.717957,315
878.834961,330
878.952087,326
879.069092,320
879.186157,308
879.303162,319
879.420227,303
879.537231,329
879.654236,301
879.77124,310
879.888306,312
880.005249,308
880.122314,315
880.239319,321
880.356323,317
880.473328,325
880.590271,314
880.707275,318
880.824341,323
880.941284,319
881.058228,312
881.175232,316
881.292236,313
881.40918,307
881.526123,312
881.643066,316
881.760071,317
881.877014,335
881.993958,317
882.11084,310
882.227783,305
882.344727,314
882.46167,311
882.578613,310
882.695618,320
882.812439,312
882.929382,316
883.046326,317
883.163208,328
883.280151,321
883.397034,329
883.513916,320
883.630798,321
883.747742,312
883.864563,303
883.981506,326
884.098389,307
884.21521,321
884.332153,306
884.448975,323
884.565796,325
884.682678,304
884.7995,316
884.916443,315
885.033264,322
885.150085,322
885.266968,316
885.383789,321
885.500671,319
885.617493,301
885.734314,329
885.851196,315
885.967896,306
886.084717,303
886.201599,318
886.318359,325
886.435181,316
886.552002,323
886.668762,321
886.785645,312
886.902344,322
887.019165,319
887.135925,312
887.252747,313
887.369446,319
887.486267,328
887.603027,299
887.719788,320
887.836548,319
887.953247,314
888.070068,311
888.186829,316
888.303528,314
888.420288,323
888.536987,310
888.653687,317
888.770447,305
888.887146,332
889.003967,308
889.120667,320
889.237305,309
889.354065,309
889.470703,325
889.587463,320
889.704163,316
889.820862,297
889.937561,302
890.054199,323
890.170837,306
890.287598,333
890.404236,317
890.520874,318
890.637634,314
890.754211,318
890.87085,306
890.987549,317
891.104187,305
891.220886,315
891.337463,319
891.454102,326
891.57074,322
891.687378,311
891.804077,318
891.920654,306
892.037231,319
892.15387,322
892.270447,313
892.387085,321
892.503723,326
892.6203,310
892.736877,323
892.853516,309
892.970032,311
893.08667,318
893.203186,324
893.319763,327
893.43634,317
893.552917,335
893.669556,316
893.786011,321
893.902588,322
894.019165,310
894.135681,321
894.252197,311
894.368835,308
894.485291,318
894.601868,300
894.718384,324
894.8349,315
894.951355,315
895.067932,322
895.184448,308
895.300964,323
895.417419,325
895.533936,306
895.650452,310
895.766907,305
895.883423,320
895.999878,311
896.116333,319
896.232849,302
896.349304,328
896.465759,322
896.582214,307
896.698669,315
896.815125,318
896.931641,305
897.048035,324
897.164551,308
897.280884,316
897.397339,300
897.513794,315
897.630249,316
897.746582,323
897.863098,317
897.979431,321
898.095886,306
898.212341,311
898.328674,317
898.445129,312
898.561462,331
898.677795,320
898.794312,315
898.910645,313
899.026978,303
899.143433,296
899.259766,310
899.37616,309
899.492493,309
899.608765,316
899.725159,308
899.841553,315
899.957947,323
900.07428,325
900.190552,312
900.306946,308
900.423157,312
900.53949,316
900.655884,299
900.772156,331
900.888489,314
901.004822,323
901.121033,309
901.237366,331
901.353699,303
901.46991,323
901.586304,333
901.702515,323
901.818787,323
901.93512,315
902.051331,299
902.167603,326
902.283875,319
902.400085,323
902.516418,310
902.632629,312
902.74884,319
902.865112,326
902.981384,309
903.097595,320
903.213867,315
903.330017,313
903.446289,323
903.5625,322
903.67865,293
903.794922,320
903.911072,323
904.027344,315
904.143494,314
904.259705,320
904.375916,304
904.492065,316
904.608215,319
904.724426,322
904.840576,318
904.956726,316
905.072876,307
905.189087,314
905.305176,321
905.421387,299
905.537537,311
905.653687,314
905.769775,330
905.885925,316
906.002014,315
906.118164,323
906.234314,310
906.350403,321
906.466492,327
906.582642,328
906.69873,315
906.814758,307
906.930908,319
907.046936,316
907.163086,309
907.279175,318
907.395264,316
907.511353,312
907.62738,313
907.743408,317
907.859497,313
907.975525,312
908.091553,313
908.207703,324
908.32373,320
908.439758,315
908.555786,309
908.671814,305
908.787842,322
908.90387,318
909.019775,299
909.135864,322
909.251892,313
909.367859,316
909.483826,317
909.599854,313
909.715881,324
909.831848,324
909.947815,308
910.063782,312
910.179749,316
910.295776,312
910.411743,315
910.527649,324
910.643616,319
910.759583,321
910.875488,315
910.991455,314
911.107361,315
911.223267,318
911.339294,315
911.4552,328
911.571106,317
911.687073,310
911.802979,302
911.918823,319
912.034729,315
912.150635,310
912.266602,321
912.382446,308
912.498352,298
912.614197,310
912.730103,317
912.846008,320
792.44574,307
792.56488,345
792.68396,399
792.80304,385
792.92218,339
793.041199,319
793.160339,321
793.279419,347
793.398499,348
793.517578,307
793.636658,305
793.755737,336
793.874817,357
793.993896,349
794.112976,345
794.232056,343
794.351074,330
794.470215,336
794.589233,326
794.708313,312
794.827393,324
794.946411,328
795.065552,338
795.18457,341
795.303589,334
795.422668,332
795.541687,335
795.660767,331
795.779846,335
795.898865,333
796.017883,320
796.136963,332
796.255981,334
796.375061,328
796.49408,324
796.613037,336
796.732117,327
796.851135,331
796.970154,345
797.089233,314
797.208191,332
797.327271,338
797.446228,338
797.565186,337
797.684265,321
797.803223,334
797.922241,328
798.04126,318
798.160278,330
798.279297,321
798.398315,334
798.517273,321
798.636292,330
798.75531,328
798.874268,335
798.993286,333
799.112244,312
799.231323,343
799.350281,337
799.469238,323
799.588257,329
799.707153,328
799.826111,330
799.945129,327
800.064087,329
800.183044,340
800.302063,331
800.421021,327
800.539978,317
800.658936,327
800.777893,333
800.896912,326
801.015747,330
801.134705,326
801.253723,329
801.37262,328
801.491638,323
801.610535,326
801.729492,331
801.84845,330
801.967407,331
802.086243,327
802.205261,335
802.324158,321
802.443115,319
802.562073,329
802.680969,336
802.799927,328
802.918762,329
803.037659,340
803.156677,327
803.275574,328
803.39447,324
803.513428,331
803.632263,336
803.751221,327
803.870117,337
803.989014,327
804.107971,334
804.226746,330
804.345642,338
804.4646,322
804.583496,340
804.702393,327
804.821228,333
804.940125,330
805.059021,330
805.177917,322
805.296814,319
805.415649,353
805.534546,326
805.653442,327
805.772278,344
805.891113,340
806.01001,319
806.128906,330
806.247742,332
806.366577,336
806.485413,331
806.604309,325
806.723145,338
806.84198,307
806.960876,323
807.079712,329
807.198486,351
807.317383,327
807.436218,329
807.554993,322
807.673889,328
807.792725,336
807.91156,333
808.030396,346
808.14917,332
808.268005,343
808.386841,315
808.505676,335
808.624451,340
808.743286,330
808.862122,320
808.980896,325
809.099731,341
809.218506,338
809.337341,332
809.456116,333
809.57489,340
809.693726,335
809.8125,354
809.931274,330
810.050049,331
810.168884,337
810.287659,328
810.406372,336
810.525269,344
810.643982,340
810.762756,340
810.881531,341
811.000305,348
811.11908,325
811.237854,329
811.356567,329
811.475403,328
811.594116,322
811.71283,339
811.831604,333
811.950378,318
812.069153,333
812.187927,331
812.30658,343
812.425415,339
812.544128,337
812.662781,339
812.781616,327
812.900269,331
813.019043,330
813.137756,345
813.256531,327
813.375244,330
813.493896,338
813.612671,342
813.731384,338
813.850037,344
813.96875,349
814.087524,323
814.206238,350
814.324951,315
814.443604,333
814.562256,338
814.68103,326
814.799683,341
814.918335,318
815.037109,334
815.155762,322
815.274475,337
815.393188,333
815.511841,329
815.630554,342
815.749146,335
815.867859,326
815.986572,331
816.105164,325
816.223877,346
816.342529,326
816.461182,342
816.579895,341
816.698486,331
816.817139,335
816.935791,326
817.054504,345
817.173096,328
817.291748,335
817.4104,332
817.529053,333
817.647644,325
817.766235,337
817.884949,313
818.00354,326
818.122192,321
818.240845,314
818.359436,315
818.478088,319
818.59668,324
818.715271,344
818.833923,327
818.952515,332
819.071106,311
819.189758,330
819.30835,325
819.426941,320
819.545532,322
819.664124,322
819.782715,335
819.901306,325
820.019897,334
820.138489,323
820.25708,326
820.375671,324
820.494202,320
820.612732,332
820.731384,327
820.849915,311
820.968506,325
821.087097,321
821.205627,320
821.324158,322
821.442749,323
821.561279,317
821.679871,321
821.798401,320
821.916931,318
822.035461,330
822.154053,319
822.272583,314
822.391174,321
822.509583,335
822.628174,321
822.746704,320
822.865234,310
822.983765,330
823.102295,325
823.220825,324
823.339294,324
823.457825,306
823.576355,325
823.694824,316
823.813354,323
823.931885,317
824.050354,312
824.168884,338
824.287354,313
824.405823,322
824.524353,330
824.642822,329
824.761353,324
824.879822,323
824.998291,331
825.116699,303
825.235291,317
825.353699,312
825.472168,327
825.590637,320
825.709106,307
825.827576,321
825.946045,312
826.064453,324
826.182983,314
826.301392,314
826.4198,319
826.53833,316
826.656738,318
826.775208,311
826.893677,335
827.012024,320
827.130493,315
827.248962,311
827.36731,312
827.485779,322
827.604248,328
827.722595,301
827.841064,323
827.959412,317
828.077942,318
828.196289,314
828.314636,321
828.433105,312
828.551514,318
828.669861,308
828.78833,304
828.906677,323
829.025085,333
829.143433,316
829.261841,311
829.38031,299
829.498657,306
829.617004,323
829.735413,318
829.85376,312
829.972107,309
830.090515,304
830.208862,319
830.327209,329
830.445557,325
830.563904,325
830.682312,313
830.800659,316
830.919006,318
831.037354,316
831.155701,320
831.274048,318
831.392395,322
831.51062,317
831.629028,324
831.747314,323
831.865662,326
831.984009,315
832.102356,320
832.220642,319
832.338928,306
832.457275,308
832.575623,314
832.693909,301
832.812134,314
832.930481,308
833.048828,311
833.167114,321
833.2854,303
833.403687,323
833.521973,299
833.640259,318
833.758545,320
833.876831,310
833.995056,318
834.113281,325
834.231628,316
834.349915,316
834.468201,315
834.586426,309
834.704651,327
834.822998,329
834.941162,323
835.059448,323
835.177673,318
835.295959,321
835.414246,320
835.53241,327
835.650635,316
835.768921,310
835.887146,326
836.005371,315
836.123596,315
836.241821,326
836.360046,311
836.478271,325
836.596497,325
836.714722,325
836.832886,328
836.95105,321
837.069336,322
837.1875,310
837.305725,304
837.423889,316
837.542053,309
837.660339,324
837.778503,337
837.896667,333
838.014832,310
838.132996,301
838.25116,321
838.369385,342
838.487488,322
838.605713,318
838.723877,325
838.84198,320
838.960205,328
839.078308,324
839.196472,318
839.314636,330
839.4328,305
839.550964,315
839.669067,311
839.787231,321
839.905396,311
840.023499,311
840.141602,318
840.259766,330
840.377869,315
840.495972,323
840.614136,303
840.732239,334
840.850342,310
840.968445,319
841.086548,320
841.204651,324
841.322754,322
841.440918,323
841.55896,307
841.677002,327
841.795166,320
841.913208,320
842.031311,325
842.149353,316
842.267456,326
842.385498,309
842.503601,310
842.621643,314
842.739746,311
842.857788,307
842.97583,302
843.093933,309
843.211975,317
843.330017,306
843.44812,325
843.566101,314
843.684204,311
843.802246,311
843.920227,322
844.038269,321
844.156311,312
844.274292,323
844.392395,323
844.510376,308
844.628357,318
844.74646,318
844.864441,317
844.982422,318
845.100403,312
845.218384,306
845.336426,303
845.454468,319
845.572449,321
845.69043,308
845.808411,304
845.926453,312
846.044373,317
846.162354,303
846.280396,331
846.398315,316
846.516296,319
846.634216,324
846.752197,321
846.870178,323
846.988098,315
847.106079,316
847.22406,309
847.34198,318
847.4599,308
847.577881,324
847.695801,321
847.813782,307
847.931641,307
848.049561,328
848.167603,316
848.285461,305
848.403381,312
848.521362,318
848.639221,319
848.75708,327
848.875,326
848.99292,321
849.110901,316
849.22876,310
849.34668,314
849.464539,313
849.582458,315
849.700317,316
849.818176,304
849.936096,321
850.053955,317
850.171875,315
850.289673,322
850.407593,319
850.525452,319
850.643311,325
850.761169,325
850.878967,319
850.996887,323
851.114746,310
851.232544,326
851.350403,316
851.468262,317
851.58606,316
851.703979,319
851.821777,318
851.939636,317
852.057434,305
852.175232,308
852.293091,314
852.410889,322
852.528687,329
852.646545,319
852.764343,300
852.88208,316
852.999939,312
853.117676,325
853.235535,318
853.353271,305
853.471069,318
853.588928,303
853.706604,323
853.824402,317
853.9422,319
854.059998,321
854.177734,316
854.295532,330
854.413269,315
854.531006,318
854.648804,307
854.766541,329
854.884277,321
855.002014,320
855.119751,310
855.237549,306
855.355225,315
855.473022,311
855.590698,313
855.708435,315
855.826172,321
855.943848,326
856.061646,316
856.179321,314
856.296997,303
856.414795,325
856.53241,302
856.650085,317
856.767822,319
856.885559,312
857.003174,312
857.120911,301
857.238586,317
857.356201,326
857.473938,295
857.591614,322
857.709351,320
857.826965,315
857.944641,316
858.062317,295
858.179993,317
858.297668,313
858.415283,309
858.532959,324
858.650574,328
858.768188,321
858.885803,305
859.003479,311
859.121094,317
859.23877,321
859.356384,315
859.473999,322
859.591675,311
859.709229,315
859.826843,317
859.944458,318
860.062012,313
860.179626,320
860.297302,330
860.414856,312
860.532471,317
860.650024,301
860.767639,314
860.885193,332
861.002808,331
861.120361,321
861.237976,315
861.35553,304
861.473022,315
861.590698,306
861.708191,315
861.825745,315
861.943298,314
862.060852,312
862.178406,317
862.295959,321
862.413513,301
862.531006,314
862.64856,324
862.766113,306
862.883667,318
863.00116,315
863.118713,317
863.236206,312
863.353699,320
863.471252,316
863.588745,313
863.706177,310
863.82373,312
863.941162,312
864.058716,315
864.176208,321
864.29364,322
864.411194,313
864.528687,308
864.646118,318
864.763611,302
864.881042,299
864.998535,315
865.116028,315
865.233459,308
865.350891,315
865.468384,321
865.585754,321
865.703308,309
865.820679,318
865.938171,311
866.055542,313
866.173035,318
866.290466,311
866.407837,318
866.52533,305
866.6427,330
866.760071,305
866.877563,314
866.994934,307
867.112305,326
867.229736,329
867.347107,320
867.464539,315
867.58197,313
867.699341,325
867.81665,330
867.934082,310
868.051453,322
868.168823,322
868.286194,307
868.403564,320
868.520935,326
868.638306,320
868.755676,318
868.872986,321
868.990295,314
869.107727,309
869.225037,312
869.342346,329
869.459717,313
869.577026,318
869.694336,328
869.811707,320
869.929016,332
870.046326,308
870.163635,319
870.280945,289
870.398254,310
870.515564,317
870.632812,306
870.750183,319
870.867432,317
870.984741,307
871.102051,324
871.219299,315
871.336609,318
871.453918,317
871.571106,312
871.688416,324
871.805664,314
871.922852,320
872.040222,332
872.157471,309
872.274719,322
872.391968,303
872.509155,324
872.626465,312
872.743652,317
872.860962,314
872.978149,322
873.095337,322
873.212646,318
873.329834,318
873.44696,312
873.564209,307
873.681396,311
873.798645,322
873.915894,316
874.03302,317
874.150208,313
874.267456,309
874.384583,306
874.501831,315
874.618958,320
874.736145,310
874.853333,321
874.970459,323
875.087646,322
875.204834,297
875.32196,323
875.439148,309
875.556274,310
875.673401,318
875.790527,321
875.907715,304
876.024841,332
876.141968,321
876.259094,324
876.376282,320
876.493347,323
876.610474,316
876.7276,325
876.844727,313
876.961853,325
877.078918,313
877.195984,322
877.313171,316
877.430237,308
877.547302,313
877.664368,305
877.781433,315
877.898499,309
878.015625,309
878.13269,325
878.249695,326
878.366821,306
878.483887,307
878.600952,317
878.717957,322
878.834961,320
878.952087,321
879.069092,310
879.186157,326
879.303162,316
879.420227,317
879.537231,315
879.654236,328
879.77124,322
879.888306,313
880.005249,305
880.122314,334
880.239319,323
880.356323,314
880.473328,320
880.590271,324
880.707275,308
880.824341,320
880.941284,319
881.058228,314
881.175232,322
881.292236,301
881.40918,302
881.526123,308
881.643066,320
881.760071,312
881.877014,313
881.993958,303
882.11084,317
882.227783,319
882.344727,308
882.46167,306
882.578613,309
882.695618,311
882.812439,315
882.929382,316
883.046326,320
883.163208,323
883.280151,307
883.397034,315
883.513916,321
883.630798,320
883.747742,314
883.864563,304
883.981506,322
884.098389,322
884.21521,326
884.332153,321
884.448975,311
884.565796,313
884.682678,321
884.7995,315
884.916443,315
885.033264,294
885.150085,323
885.266968,307
885.383789,327
885.500671,332
885.617493,321
885.734314,318
885.851196,316
885.967896,321
886.084717,320
886.201599,311
886.318359,320
886.435181,310
886.552002,331
886.668762,312
886.785645,320
886.902344,311
887.019165,316
887.135925,317
887.252747,322
887.369446,301
887.486267,305
887.603027,308
887.719788,325
887.836548,312
887.953247,306
888.070068,320
888.186829,309
888.303528,313
888.420288,317
888.536987,318
888.653687,324
888.770447,322
888.887146,320
889.003967,317
889.120667,319
889.237305,318
889.354065,313
889.470703,329
889.587463,314
889.704163,318
889.820862,318
889.937561,317
890.054199,314
890.170837,319
890.287598,323
890.404236,303
890.520874,311
890.637634,312
890.754211,319
890.87085,318
890.987549,311
891.104187,313
891.220886,326
891.337463,309
891.454102,324
891.57074,322
891.687378,312
891.804077,310
891.920654,325
892.037231,304
892.15387,337
892.270447,313
892.387085,329
892.503723,300
892.6203,312
892.736877,333
892.853516,314
892.970032,309
893.08667,323
893.203186,302
893.319763,305
893.43634,312
893.552917,319
893.669556,325
893.786011,323
893.902588,326
894.019165,316
894.135681,319
894.252197,309
894.368835,317
894.485291,312
894.601868,322
894.718384,317
894.8349,319
894.951355,296
895.067932,327
895.184448,323
895.300964,307
895.417419,333
895.533936,318
895.650452,327
895.766907,304
895.883423,320
895.999878,305
896.116333,314
896.232849,322
896.349304,307
896.465759,319
896.582214,321
896.698669,322
896.815125,313
896.931641,315
897.048035,316
897.164551,321
897.280884,308
897.397339,328
897.513794,307
897.630249,326
897.746582,310
897.863098,301
897.979431,320
898.095886,311
898.212341,318
898.328674,315
898.445129,305
898.561462,314
898.677795,321
898.794312,311
898.910645,317
899.026978,310
899.143433,321
899.259766,310
899.37616,323
899.492493,307
899.608765,317
899.725159,323
899.841553,323
899.957947,316
900.07428,325
900.190552,322
900.306946,303
900.423157,335
900.53949,311
900.655884,312
900.772156,318
900.888489,325
901.004822,327
901.121033,306
901.237366,317
901.353699,316
901.46991,321
901.586304,307
901.702515,324
901.818787,316
901.93512,316
902.051331,323
902.167603,304
902.283875,321
902.400085,320
902.516418,314
902.632629,320
902.74884,323
902.865112,317
902.981384,322
903.097595,311
903.213867,322
903.330017,328
903.446289,319
903.5625,321
903.67865,315
903.794922,307
903.911072,307
904.027344,318
904.143494,326
904.259705,323
904.375916,303
904.492065,317
904.608215,313
904.724426,313
904.840576,308
904.956726,319
905.072876,322
905.189087,319
905.305176,296
905.421387,304
905.537537,317
905.653687,303
905.769775,320
905.885925,323
906.002014,307
906.118164,309
906.234314,313
906.350403,327
906.466492,330
906.582642,321
906.69873,306
906.814758,314
906.930908,315
907.046936,316
907.163086,319
907.279175,318
907.395264,303
907.511353,318
907.62738,328
907.743408,323
907.859497,313
907.975525,329
908.091553,336
908.207703,320
908.32373,313
908.439758,312
908.555786,304
908.671814,310
908.787842,316
908.90387,318
909.019775,324
909.135864,320
909.251892,317
909.367859,316
909.483826,316
909.599854,332
909.715881,332
909.831848,328
909.947815,315
910.063782,310
910.179749,324
910.295776,323
910.411743,316
910.527649,311
910.643616,305
910.759583,304
910.875488,306
910.991455,309
911.107361,313
911.223267,314
911.339294,320
911.4552,327
911.571106,320
911.687073,312
911.802979,312
911.918823,325
912.034729,309
912.150635,327
912.266602,312
912.382446,317
912.498352,322
912.614197,316
912.730103,318
912.846008,323
792.44574,309
792.56488,348
792.68396,399
792.80304,379
792.92218,338
793.041199,323
793.160339,329
793.279419,328
793.398499,341
793.517578,316
793.636658,316
793.755737,342
793.874817,343
793.993896,346
794.112976,330
794.232056,336
794.351074,336
794.470215,337
794.589233,335
794.708313,327
794.827393,321
794.946411,327
795.065552,331
795.18457,346
795.303589,337
795.422668,341
795.541687,326
795.660767,322
795.779846,325
795.898865,326
796.017883,313
796.136963,323
796.255981,331
796.375061,328
796.49408,349
796.613037,325
796.732117,338
796.851135,341
796.970154,324
797.089233,326
797.208191,330
797.327271,312
797.446228,330
797.565186,328
797.684265,315
797.803223,330
797.922241,329
798.04126,328
798.160278,321
798.279297,335
798.398315,334
798.517273,339
798.636292,338
798.75531,327
798.874268,342
798.993286,321
799.112244,322
799.231323,324
799.350281,334
799.469238,334
799.588257,325
799.707153,335
799.826111,316
799.945129,326
800.064087,331
800.183044,327
800.302063,322
800.421021,326
800.539978,327
800.658936,331
800.777893,326
800.896912,322
801.015747,335
801.134705,323
801.253723,317
801.37262,332
801.491638,315
801.610535,334
801.729492,327
801.84845,341
801.967407,326
802.086243,336
802.205261,329
802.324158,343
802.443115,324
802.562073,335
802.680969,330
802.799927,323
802.918762,330
803.037659,331
803.156677,333
803.275574,329
803.39447,353
803.513428,323
803.632263,332
803.751221,332
803.870117,326
803.989014,324
804.107971,329
804.226746,328
804.345642,339
804.4646,334
804.583496,332
804.702393,326
804.821228,329
804.940125,316
805.059021,325
805.177917,331
805.296814,326
805.415649,335
805.534546,344
805.653442,341
805.772278,325
805.891113,351
806.01001,334
806.128906,340
806.247742,340
806.366577,315
806.485413,327
806.604309,325
806.723145,321
806.84198,322
806.960876,326
807.079712,322
807.198486,318
807.317383,332
807.436218,329
807.554993,332
807.673889,321
807.792725,326
807.91156,342
808.030396,330
808.14917,347
808.268005,332
808.386841,336
808.505676,327
808.624451,334
808.743286,328
808.862122,344
808.980896,334
809.099731,326
809.218506,324
809.337341,324
809.456116,349
809.57489,337
809.693726,336
809.8125,322
809.931274,341
810.050049,328
810.168884,345
810.287659,336
810.406372,343
810.525269,341
810.643982,336
810.762756,347
810.881531,339
811.000305,341
811.11908,342
811.237854,324
811.356567,329
811.475403,333
811.594116,312
811.71283,338
811.831604,329
811.950378,337
812.069153,337
812.187927,339
812.30658,344
812.425415,329
812.544128,329
812.662781,329
812.781616,319
812.900269,322
813.019043,339
813.137756,323
813.256531,336
813.375244,340
813.493896,319
813.612671,346
813.731384,344
813.850037,330
813.96875,330
814.087524,344
814.206238,337
814.324951,342
814.443604,336
814.562256,333
814.68103,320
814.799683,333
814.918335,330
815.037109,320
815.155762,327
815.274475,335
815.393188,339
815.511841,329
815.630554,331
815.749146,329
815.867859,320
815.986572,324
816.105164,340
816.223877,332
816.342529,322
816.461182,329
816.579895,338
816.698486,326
816.817139,328
816.935791,339
817.054504,339
817.173096,320
817.291748,318
817.4104,327
817.529053,325
817.647644,333
817.766235,329
817.884949,334
818.00354,327
818.122192,333
818.240845,333
818.359436,327
818.478088,331
818.59668,333
818.715271,330
818.833923,324
818.952515,323
819.071106,320
819.189758,316
819.30835,322
819.426941,323
819.545532,312
819.664124,327
819.782715,326
819.901306,322
820.019897,315
820.138489,326
820.25708,321
820.375671,314
820.494202,320
820.612732,324
820.731384,322
820.849915,319
820.968506,322
821.087097,317
821.205627,323
821.324158,324
821.442749,307
821.561279,333
821.679871,297
821.798401,327
821.916931,323
822.035461,320
822.154053,326
822.272583,319
822.391174,322
822.509583,318
822.628174,314
822.746704,312
822.865234,326
822.983765,308
823.102295,328
823.220825,321
823.339294,314
823.457825,303
823.576355,321
823.694824,320
823.813354,330
823.931885,307
824.050354,320
824.168884,330
824.287354,310
824.405823,323
824.524353,310
824.642822,327
824.761353,321
824.879822,321
824.998291,313
825.116699,324
825.235291,307
825.353699,320
825.472168,326
825.590637,321
825.709106,327
825.827576,307
825.946045,310
826.064453,329
826.182983,317
826.301392,320
826.4198,305
826.53833,319
826.656738,306
826.775208,313
826.893677,311
827.012024,328
827.130493,308
827.248962,323
827.36731,299
827.485779,325
827.604248,316
827.722595,324
827.841064,326
827.959412,326
828.077942,314
828.196289,317
828.314636,330
828.433105,328
828.551514,321
828.669861,310
828.78833,321
828.906677,327
829.025085,312
829.143433,319
829.261841,309
829.38031,316
829.498657,303
829.617004,322
829.735413,314
829.85376,318
829.972107,318
830.090515,325
830.208862,315
830.327209,318
830.445557,317
830.563904,308
830.682312,327
830.800659,310
830.919006,321
831.037354,321
831.155701,327
831.274048,326
831.392395,325
831.51062,323
831.629028,319
831.747314,316
831.865662,316
831.984009,309
832.102356,321
832.220642,318
832.338928,316
832.457275,314
832.575623,324
832.693909,314
832.812134,324
832.930481,324
833.048828,312
833.167114,305
833.2854,319
833.403687,305
833.521973,321
833.640259,324
833.758545,320
833.876831,325
833.995056,318
834.113281,322
834.231628,315
834.349915,319
834.468201,316
834.586426,321
834.704651,312
834.822998,317
834.941162,317
835.059448,326
835.177673,317
835.295959,321
835.414246,326
835.53241,309
835.650635,321
835.768921,317
835.887146,327
836.005371,325
836.123596,317
836.241821,317
836.360046,311
836.478271,330
836.596497,318
836.714722,327
836.832886,314
836.95105,333
837.069336,309
837.1875,323
837.305725,317
837.423889,314
837.542053,317
837.660339,310
837.778503,323
837.896667,322
838.014832,310
838.132996,314
838.25116,324
838.369385,328
838.487488,323
838.605713,327
838.723877,323
838.84198,318
838.960205,323
839.078308,321
839.196472,306
839.314636,325
839.4328,318
839.550964,319
839.669067,305
839.787231,323
839.905396,326
840.023499,312
840.141602,328
840.259766,323
840.377869,325
840.495972,320
840.614136,317
840.732239,327
840.850342,300
840.968445,321
841.086548,314
841.204651,311
841.322754,315
841.440918,322
841.55896,314
841.677002,328
841.795166,312
841.913208,317
842.031311,318
842.149353,326
842.267456,306
842.385498,318
842.503601,321
842.621643,310
842.739746,324
842.857788,321
842.97583,320
843.093933,314
843.211975,303
843.330017,315
843.44812,309
843.566101,301
843.684204,315
843.802246,310
843.920227,301
844.038269,317
844.156311,308
844.274292,316
844.392395,307
844.510376,317
844.628357,326
844.74646,311
844.864441,336
844.982422,332
845.100403,321
845.218384,309
845.336426,316
845.454468,315
845.572449,311
845.69043,328
845.808411,304
845.926453,317
846.044373,327
846.162354,319
846.280396,305
846.398315,319
846.516296,318
846.634216,323
846.752197,310
846.870178,317
846.988098,325
847.106079,324
847.22406,307
847.34198,318
847.4599,319
847.577881,314
847.695801,299
847.813782,316
847.931641,313
848.049561,312
848.167603,312
848.285461,326
848.403381,328
848.521362,306
848.639221,322
848.75708,316
848.875,304
848.99292,320
849.110901,305
849.22876,318
849.34668,311
849.464539,319
849.582458,322
849.700317,316
849.818176,319
849.936096,332
850.053955,310
850.171875,304
850.289673,326
850.407593,303
850.525452,319
850.643311,311
850.761169,317
850.878967,318
850.996887,310
851.114746,305
851.232544,323
851.350403,320
851.468262,308
851.58606,307
851.703979,325
851.821777,319
851.939636,306
852.057434,320
852.175232,324
852.293091,307
852.410889,306
852.528687,308
852.646545,322
852.764343,317
852.88208,320
852.999939,314
853.117676,320
853.235535,318
853.353271,307
853.471069,319
853.588928,309
853.706604,325
853.824402,319
853.9422,304
854.059998,308
854.177734,324
854.295532,317
854.413269,310
854.531006,313
854.648804,318
854.766541,308
854.884277,323
855.002014,319
855.119751,308
855.237549,315
855.355225,308
855.473022,323
855.590698,318
855.708435,317
855.826172,318
855.943848,319
856.061646,321
856.179321,307
856.296997,325
856.414795,322
856.53241,309
856.650085,322
856.767822,324
856.885559,334
857.003174,317
857.120911,323
857.238586,327
857.356201,312
857.473938,314
857.591614,312
857.709351,310
857.826965,319
857.944641,313
858.062317,329
858.179993,327
858.297668,316
858.415283,321
858.532959,319
858.650574,325
858.768188,306
858.885803,301
859.003479,311
859.121094,314
859.23877,307
859.356384,321
859.473999,313
859.591675,309
859.709229,323
859.826843,321
859.944458,315
860.062012,322
860.179626,320
860.297302,315
860.414856,301
860.532471,298
860.650024,321
860.767639,322
860.885193,302
861.002808,321
861.120361,308
861.237976,326
861.35553,315
861.473022,317
861.590698,318
861.708191,318
861.825745,312
861.943298,309
862.060852,310
862.178406,318
862.295959,317
862.413513,318
862.531006,317
862.64856,320
862.766113,318
862.883667,323
863.00116,314
863.118713,316
863.236206,322
863.353699,324
863.471252,310
863.588745,309
863.706177,333
863.82373,317
863.941162,326
864.058716,306
864.176208,304
864.29364,322
864.411194,302
864.528687,316
864.646118,323
864.763611,317
864.881042,307
864.998535,298
865.116028,306
865.233459,329
865.350891,312
865.468384,310
865.585754,312
865.703308,323
865.820679,311
865.938171,314
866.055542,325
866.173035,315
866.290466,317
866.407837,323
866.52533,306
866.6427,312
866.760071,322
866.877563,306
866.994934,311
867.112305,337
867.229736,328
867.347107,318
867.464539,317
867.58197,313
867.699341,319
867.81665,309
867.934082,311
868.051453,312
868.168823,314
868.286194,308
868.403564,305
868.520935,321
868.638306,328
868.755676,326
868.872986,304
868.990295,320
869.107727,315
869.225037,310
869.342346,318
869.459717,315
869.577026,313
869.694336,309
869.811707,314
869.929016,314
870.046326,315
870.163635,300
870.280945,312
870.398254,318
870.515564,307
870.632812,327
870.750183,315
870.867432,306
870.984741,318
871.102051,312
871.219299,309
871.336609,324
871.453918,319
871.571106,327
871.688416,311
871.805664,311
871.922852,322
872.040222,312
872.157471,306
872.274719,322
872.391968,310
872.509155,326
872.626465,306
872.743652,320
872.860962,315
872.978149,330
873.095337,330
873.212646,321
873.329834,309
873.44696,318
873.564209,311
873.681396,313
873.798645,297
873.915894,326
874.03302,312
874.150208,315
874.267456,318
874.384583,308
874.501831,310
874.618958,312
874.736145,317
874.853333,322
874.970459,314
875.087646,313
875.204834,313
875.32196,302
875.439148,328
875.556274,324
875.673401,313
875.790527,310
875.907715,305
876.024841,312
876.141968,311
876.259094,315
876.376282,301
876.493347,314
876.610474,310
876.7276,313
876.844727,319
876.961853,309
877.078918,303
877.195984,324
877.313171,310
877.430237,308
877.547302,309
877.664368,300
877.781433,305
877.898499,301
878.015625,319
878.13269,316
878.249695,317
878.366821,325
878.483887,307
878.600952,311
878.717957,321
878.834961,321
878.952087,304
879.069092,305
879.186157,300
879.303162,325
879.420227,312
879.537231,321
879.654236,305
879.77124,313
879.888306,315
880.005249,313
880.122314,311
880.239319,307
880.356323,325
880.473328,317
880.590271,309
880.707275,323
880.824341,316
880.941284,308
881.058228,314
881.175232,321
881.292236,326
881.40918,302
881.526123,315
881.643066,328
881.760071,313
881.877014,324
881.993958,316
882.11084,325
882.227783,310
882.344727,314
882.46167,316
882.578613,312
882.695618,318
882.812439,310
882.929382,308
883.046326,317
883.163208,303
883.280151,318
883.397034,324
883.513916,303
883.630798,321
883.747742,335
883.864563,307
883.981506,326
884.098389,324
884.21521,319
884.332153,304
884.448975,315
884.565796,304
884.682678,315
884.7995,326
884.916443,315
885.033264,323
885.150085,323
885.266968,311
885.383789,312
885.500671,325
885.617493,325
885.734314,319
885.851196,322
885.967896,325
886.084717,326
886.201599,310
886.318359,316
886.435181,315
886.552002,314
886.668762,316
886.785645,331
886.902344,310
887.019165,313
887.135925,325
887.252747,321
887.369446,311
887.486267,320
887.603027,303
887.719788,328
887.836548,315
887.953247,322
888.070068,315
888.186829,313
888.303528,318
888.420288,328
888.536987,315
888.653687,322
888.770447,316
888.887146,304
889.003967,307
889.120667,311
889.237305,315
889.354065,306
889.470703,323
889.587463,315
889.704163,304
889.820862,325
889.937561,311
890.054199,324
890.170837,320
890.287598,306
890.404236,301
890.520874,327
890.637634,316
890.754211,306
890.87085,313
890.987549,311
891.104187,307
891.220886,305
891.337463,321
891.454102,312
891.57074,315
891.687378,307
891.804077,309
891.920654,318
892.037231,324
892.15387,318
892.270447,313
892.387085,316
892.503723,299
892.6203,328
892.736877,306
892.853516,318
892.970032,316
893.08667,321
893.203186,322
893.319763,329
893.43634,304
893.552917,309
893.669556,324
893.786011,332
893.902588,307
894.019165,324
894.135681,315
894.252197,321
894.368835,318
894.485291,307
894.601868,324
894.718384,329
894.8349,315
894.951355,315
895.067932,319
895.184448,312
895.300964,319
895.417419,319
895.533936,325
895.650452,324
895.766907,318
895.883423,312
895.999878,318
896.116333,311
896.232849,311
896.349304,303
896.465759,312
896.582214,330
896.698669,306
896.815125,324
896.931641,320
897.048035,307
897.164551,324
897.280884,320
897.397339,309
897.513794,323
897.630249,313
897.746582,329
897.863098,325
897.979431,309
898.095886,306
898.212341,318
898.328674,311
898.445129,314
898.561462,318
898.677795,314
898.794312,314
898.910645,311
899.026978,321
899.143433,312
899.259766,315
899.37616,319
899.492493,319
899.608765,311
899.725159,305
899.841553,317
899.957947,315
900.07428,322
900.190552,314
900.306946,317
900.423157,306
900.53949,324
900.655884,319
900.772156,339
900.888489,308
901.004822,327
901.121033,325
901.237366,324
901.353699,320
901.46991,317
901.586304,304
901.702515,309
901.818787,309
901.93512,323
902.051331,315
902.167603,312
902.283875,330
902.400085,330
902.516418,327
902.632629,313
902.74884,322
902.865112,318
902.981384,324
903.097595,318
903.213867,302
903.330017,320
903.446289,318
903.5625,323
903.67865,311
903.794922,316
903.911072,315
904.027344,328
904.143494,319
904.259705,312
904.375916,332
904.492065,320
904.608215,309
904.724426,317
904.840576,328
904.956726,325
905.072876,319
905.189087,314
905.305176,309
905.421387,316
905.537537,319
905.653687,319
905.769775,309
905.885925,315
906.002014,308
906.118164,312
906.234314,313
906.350403,315
906.466492,318
906.582642,328
906.69873,317
906.814758,320
906.930908,311
907.046936,309
907.163086,318
907.279175,331
907.395264,301
907.511353,331
907.62738,319
907.743408,317
907.859497,306
907.975525,321
908.091553,305
908.207703,324
908.32373,316
908.439758,312
908.555786,316
908.671814,310
908.787842,297
908.90387,331
909.019775,321
909.135864,311
909.251892,327
909.367859,324
909.483826,311
909.599854,318
909.715881,334
909.831848,308
909.947815,312
910.063782,330
910.179749,305
910.295776,305
910.411743,317
910.527649,310
910.643616,318
910.759583,323
910.875488,307
910.991455,319
911.107361,322
911.223267,329
911.339294,316
911.4552,316
911.571106,312
911.687073,312
911.802979,312
911.918823,322
912.034729,304
912.150635,301
912.266602,316
912.382446,315
912.498352,314
912.614197,313
912.730103,322
912.846008,304
