792.44574,313
792.56488,354
792.68396,392
792.80304,382
792.92218,343
793.041199,311
793.160339,318
793.279419,339
793.398499,331
793.517578,322
793.636658,318
793.755737,328
793.874817,344
793.993896,346
794.112976,332
794.232056,314
794.351074,340
794.470215,330
794.589233,330
794.708313,332
794.827393,341
794.946411,326
795.065552,347
795.18457,337
795.303589,325
795.422668,313
795.541687,346
795.660767,328
795.779846,336
795.898865,308
796.017883,324
796.136963,323
796.255981,335
796.375061,320
796.49408,327
796.613037,327
796.732117,323
796.851135,344
796.970154,313
797.089233,337
797.208191,330
797.327271,319
797.446228,321
797.565186,340
797.684265,327
797.803223,336
797.922241,331
798.04126,318
798.160278,338
798.279297,335
798.398315,330
798.517273,322
798.636292,327
798.75531,320
798.874268,328
798.993286,331
799.112244,323
799.231323,331
799.350281,336
799.469238,322
799.588257,334
799.707153,331
799.826111,349
799.945129,308
800.064087,331
800.183044,329
800.302063,329
800.421021,333
800.539978,341
800.658936,335
800.777893,339
800.896912,323
801.015747,326
801.134705,337
801.253723,334
801.37262,318
801.491638,322
801.610535,321
801.729492,332
801.84845,331
801.967407,333
802.086243,331
802.205261,304
802.324158,333
802.443115,328
802.562073,325
802.680969,326
802.799927,328
802.918762,330
803.037659,326
803.156677,337
803.275574,334
803.39447,332
803.513428,329
803.632263,325
803.751221,338
803.870117,327
803.989014,321
804.107971,332
804.226746,336
804.345642,339
804.4646,322
804.583496,329
804.702393,323
804.821228,332
804.940125,341
805.059021,311
805.177917,333
805.296814,329
805.415649,321
805.534546,334
805.653442,333
805.772278,330
805.891113,327
806.01001,324
806.128906,340
806.247742,330
806.366577,340
806.485413,342
806.604309,326
806.723145,326
806.84198,325
806.960876,326
807.079712,321
807.198486,338
807.317383,326
807.436218,331
807.554993,338
807.673889,333
807.792725,345
807.91156,339
808.030396,330
808.14917,335
808.268005,324
808.386841,335
808.505676,325
808.624451,334
808.743286,333
808.862122,327
808.980896,321
809.099731,331
809.218506,324
809.337341,320
809.456116,337
809.57489,343
809.693726,344
809.8125,330
809.931274,326
810.050049,346
810.168884,342
810.287659,333
810.406372,346
810.525269,340
810.643982,312
810.762756,338
810.881531,322
811.000305,340
811.11908,330
811.237854,337
811.356567,324
811.475403,344
811.594116,330
811.71283,338
811.831604,323
811.950378,329
812.069153,325
812.187927,333
812.30658,328
812.425415,333
812.544128,335
812.662781,335
812.781616,331
812.900269,325
813.019043,334
813.137756,321
813.256531,321
813.375244,339
813.493896,327
813.612671,321
813.731384,321
813.850037,341
813.96875,322
814.087524,341
814.206238,329
814.324951,322
814.443604,327
814.562256,330
814.68103,335
814.799683,324
814.918335,328
815.037109,331
815.155762,337
815.274475,333
815.393188,327
815.511841,322
815.630554,339
815.749146,322
815.867859,322
815.986572,334
816.105164,317
816.223877,332
816.342529,332
816.461182,320
816.579895,332
816.698486,334
816.817139,339
816.935791,339
817.054504,323
817.173096,333
817.291748,319
817.4104,315
817.529053,334
817.647644,322
817.766235,320
817.884949,350
818.00354,335
818.122192,333
818.240845,317
818.359436,317
818.478088,306
818.59668,321
818.715271,330
818.833923,328
818.952515,316
819.071106,317
819.189758,311
819.30835,321
819.426941,297
819.545532,334
819.664124,316
819.782715,320
819.901306,324
820.019897,334
820.138489,315
820.25708,320
820.375671,329
820.494202,319
820.612732,318
820.731384,329
820.849915,312
820.968506,314
821.087097,337
821.205627,311
821.324158,317
821.442749,328
821.561279,313
821.679871,322
821.798401,304
821.916931,331
822.035461,311
822.154053,315
822.272583,331
822.391174,318
822.509583,318
822.628174,307
822.746704,316
822.865234,316
822.983765,308
823.102295,316
823.220825,315
823.339294,309
823.457825,328
823.576355,327
823.694824,321
823.813354,324
823.931885,311
824.050354,316
824.168884,312
824.287354,311
824.405823,324
824.524353,315
824.642822,324
824.761353,314
824.879822,319
824.998291,316
825.116699,324
825.235291,310
825.353699,331
825.472168,322
825.590637,310
825.709106,328
825.827576,304
825.946045,319
826.064453,319
826.182983,314
826.301392,324
826.4198,330
826.53833,317
826.656738,321
826.775208,326
826.893677,318
827.012024,316
827.130493,324
827.248962,307
827.36731,322
827.485779,307
827.604248,316
827.722595,316
827.841064,316
827.959412,330
828.077942,305
828.196289,300
828.314636,314
828.433105,320
828.551514,300
828.669861,305
828.78833,312
828.906677,317
829.025085,310
829.143433,312
829.261841,307
829.38031,312
829.498657,318
829.617004,311
829.735413,333
829.85376,309
829.972107,312
830.090515,306
830.208862,318
830.327209,317
830.445557,316
830.563904,320
830.682312,314
830.800659,304
830.919006,322
831.037354,310
831.155701,314
831.274048,318
831.392395,306
831.51062,302
831.629028,324
831.747314,308
831.865662,325
831.984009,328
832.102356,317
832.220642,314
832.338928,318
832.457275,323
832.575623,327
832.693909,316
832.812134,327
832.930481,313
833.048828,314
833.167114,300
833.2854,309
833.403687,317
833.521973,316
833.640259,314
833.758545,309
833.876831,306
833.995056,316
834.113281,309
834.231628,306
834.349915,317
834.468201,321
834.586426,294
834.704651,327
834.822998,312
834.941162,323
835.059448,316
835.177673,318
835.295959,317
835.414246,310
835.53241,317
835.650635,314
835.768921,316
835.887146,319
836.005371,298
836.123596,341
836.241821,322
836.360046,320
836.478271,317
836.596497,326
836.714722,313
836.832886,326
836.95105,306
837.069336,333
837.1875,297
837.305725,326
837.423889,314
837.542053,314
837.660339,304
837.778503,326
837.896667,308
838.014832,323
838.132996,319
838.25116,320
838.369385,311
838.487488,330
838.605713,309
838.723877,323
838.84198,298
838.960205,323
839.078308,311
839.196472,319
839.314636,323
839.4328,311
839.550964,332
839.669067,322
839.787231,308
839.905396,320
840.023499,317
840.141602,304
840.259766,317
840.377869,316
840.495972,317
840.614136,312
840.732239,315
840.850342,311
840.968445,316
841.086548,321
841.204651,307
841.322754,318
841.440918,313
841.55896,326
841.677002,295
841.795166,317
841.913208,319
842.031311,318
842.149353,318
842.267456,323
842.385498,307
842.503601,324
842.621643,321
842.739746,310
842.857788,316
842.97583,314
843.093933,324
843.211975,326
843.330017,316
843.44812,317
843.566101,305
843.684204,313
843.802246,307
843.920227,312
844.038269,314
844.156311,315
844.274292,320
844.392395,310
844.510376,312
844.628357,316
844.74646,305
844.864441,323
844.982422,316
845.100403,321
845.218384,317
845.336426,303
845.454468,313
845.572449,321
845.69043,322
845.808411,327
845.926453,318
846.044373,319
846.162354,306
846.280396,325
846.398315,306
846.516296,317
846.634216,305
846.752197,308
846.870178,307
846.988098,313
847.106079,309
847.22406,307
847.34198,310
847.4599,327
847.577881,308
847.695801,314
847.813782,334
847.931641,305
848.049561,321
848.167603,322
848.285461,303
848.403381,315
848.521362,312
848.639221,317
848.75708,320
848.875,322
848.99292,313
849.110901,322
849.22876,304
849.34668,329
849.464539,308
849.582458,305
849.700317,312
849.818176,322
849.936096,317
850.053955,312
850.171875,314
850.289673,317
850.407593,313
850.525452,322
850.643311,308
850.761169,328
850.878967,310
850.996887,319
851.114746,315
851.232544,316
851.350403,314
851.468262,310
851.58606,318
851.703979,314
851.821777,308
851.939636,307
852.057434,302
852.175232,321
852.293091,313
852.410889,316
852.528687,318
852.646545,323
852.764343,317
852.88208,314
852.999939,312
853.117676,319
853.235535,308
853.353271,328
853.471069,322
853.588928,315
853.706604,321
853.824402,318
853.9422,312
854.059998,317
854.177734,313
854.295532,332
854.413269,307
854.531006,312
854.648804,310
854.766541,316
854.884277,306
855.002014,314
855.119751,319
855.237549,312
855.355225,313
855.473022,319
855.590698,326
855.708435,328
855.826172,317
855.943848,328
856.061646,317
856.179321,312
856.296997,314
856.414795,309
856.53241,315
856.650085,327
856.767822,315
856.885559,309
857.003174,314
857.120911,328
857.238586,300
857.356201,320
857.473938,321
857.591614,315
857.709351,322
857.826965,319
857.944641,312
858.062317,319
858.179993,316
858.297668,317
858.415283,309
858.532959,322
858.650574,327
858.768188,314
858.885803,312
859.003479,323
859.121094,314
859.23877,325
859.356384,318
859.473999,314
859.591675,314
859.709229,325
859.826843,313
859.944458,306
860.062012,316
860.179626,319
860.297302,311
860.414856,322
860.532471,304
860.650024,319
860.767639,308
860.885193,319
861.002808,313
861.120361,319
861.237976,299
861.35553,315
861.473022,310
861.590698,302
861.708191,315
861.825745,323
861.943298,307
862.060852,325
862.178406,327
862.295959,312
862.413513,307
862.531006,321
862.64856,307
862.766113,309
862.883667,305
863.00116,315
863.118713,323
863.236206,318
863.353699,323
863.471252,315
863.588745,322
863.706177,326
863.82373,309
863.941162,303
864.058716,318
864.176208,319
864.29364,320
864.411194,310
864.528687,314
864.646118,318
864.763611,317
864.881042,312
864.998535,316
865.116028,314
865.233459,318
865.350891,314
865.468384,319
865.585754,309
865.703308,317
865.820679,322
865.938171,305
866.055542,339
866.173035,308
866.290466,322
866.407837,315
866.52533,308
866.6427,325
866.760071,319
866.877563,319
866.994934,309
867.112305,300
867.229736,319
867.347107,326
867.464539,327
867.58197,301
867.699341,312
867.81665,314
867.934082,304
868.051453,322
868.168823,308
868.286194,298
868.403564,325
868.520935,321
868.638306,331
868.755676,318
868.872986,323
868.990295,316
869.107727,318
869.225037,314
869.342346,319
869.459717,311
869.577026,322
869.694336,309
869.811707,314
869.929016,315
870.046326,319
870.163635,313
870.280945,310
870.398254,314
870.515564,307
870.632812,303
870.750183,322
870.867432,306
870.984741,325
871.102051,308
871.219299,310
871.336609,317
871.453918,339
871.571106,318
871.688416,322
871.805664,305
871.922852,327
872.040222,310
872.157471,324
872.274719,310
872.391968,307
872.509155,319
872.626465,314
872.743652,326
872.860962,317
872.978149,301
873.095337,322
873.212646,315
873.329834,312
873.44696,317
873.564209,332
873.681396,315
873.798645,322
873.915894,323
874.03302,321
874.150208,301
874.267456,318
874.384583,308
874.501831,321
874.618958,303
874.736145,322
874.853333,320
874.970459,309
875.087646,326
875.204834,319
875.32196,304
875.439148,315
875.556274,310
875.673401,323
875.790527,314
875.907715,325
876.024841,322
876.141968,317
876.259094,317
876.376282,316
876.493347,309
876.610474,322
876.7276,309
876.844727,322
876.961853,311
877.078918,304
877.195984,321
877.313171,316
877.430237,316
877.547302,311
877.664368,299
877.781433,323
877.898499,305
878.015625,306
878.13269,315
878.249695,328
878.366821,320
878.483887,319
878.600952,304
878.717957,320
878.834961,301
878.952087,319
879.069092,300
879.186157,320
879.303162,319
879.420227,314
879.537231,321
879.654236,318
879.77124,311
879.888306,319
880.005249,306
880.122314,311
880.239319,312
880.356323,309
880.473328,311
880.590271,316
880.707275,321
880.824341,318
880.941284,308
881.058228,316
881.175232,309
881.292236,323
881.40918,313
881.526123,314
881.643066,307
881.760071,314
881.877014,306
881.993958,321
882.11084,317
882.227783,315
882.344727,324
882.46167,321
882.578613,315
882.695618,318
882.812439,312
882.929382,318
883.046326,315
883.163208,304
883.280151,317
883.397034,332
883.513916,306
883.630798,325
883.747742,306
883.864563,319
883.981506,302
884.098389,312
884.21521,314
884.332153,306
884.448975,306
884.565796,324
884.682678,316
884.7995,325
884.916443,313
885.033264,322
885.150085,297
885.266968,314
885.383789,310
885.500671,312
885.617493,316
885.734314,315
885.851196,313
885.967896,313
886.084717,317
886.201599,310
886.318359,317
886.435181,315
886.552002,308
886.668762,315
886.785645,317
886.902344,323
887.019165,312
887.135925,324
887.252747,302
887.369446,333
887.486267,313
887.603027,329
887.719788,322
887.836548,326
887.953247,325
888.070068,310
888.186829,314
888.303528,316
888.420288,305
888.536987,316
888.653687,327
888.770447,316
888.887146,329
889.003967,327
889.120667,301
889.237305,317
889.354065,295
889.470703,327
889.587463,306
889.704163,325
889.820862,315
889.937561,309
890.054199,307
890.170837,314
890.287598,304
890.404236,309
890.520874,317
890.637634,310
890.754211,314
890.87085,317
890.987549,320
891.104187,318
891.220886,319
891.337463,316
891.454102,305
891.57074,314
891.687378,308
891.804077,324
891.920654,312
892.037231,332
892.15387,313
892.270447,319
892.387085,302
892.503723,318
892.6203,305
892.736877,308
892.853516,297
892.970032,319
893.08667,310
893.203186,315
893.319763,314
893.43634,315
893.552917,309
893.669556,321
893.786011,314
893.902588,316
894.019165,308
894.135681,324
894.252197,309
894.368835,314
894.485291,319
894.601868,313
894.718384,311
894.8349,314
894.951355,312
895.067932,306
895.184448,313
895.300964,324
895.417419,304
895.533936,318
895.650452,316
895.766907,313
895.883423,314
895.999878,332
896.116333,314
896.232849,328
896.349304,309
896.465759,310
896.582214,307
896.698669,327
896.815125,326
896.931641,320
897.048035,312
897.164551,311
897.280884,312
897.397339,318
897.513794,307
897.630249,312
897.746582,316
897.863098,322
897.979431,310
898.095886,332
898.212341,309
898.328674,314
898.445129,313
898.561462,304
898.677795,306
898.794312,313
898.910645,308
899.026978,319
899.143433,306
899.259766,306
899.37616,315
899.492493,321
899.608765,305
899.725159,323
899.841553,308
899.957947,318
900.07428,318
900.190552,321
900.306946,315
900.423157,326
900.53949,327
900.655884,312
900.772156,314
900.888489,323
901.004822,303
901.121033,309
901.237366,315
901.353699,316
901.46991,310
901.586304,315
901.702515,308
901.818787,321
901.93512,304
902.051331,334
902.167603,316
902.283875,316
902.400085,301
902.516418,324
902.632629,309
902.74884,327
902.865112,323
902.981384,325
903.097595,326
903.213867,331
903.330017,310
903.446289,337
903.5625,306
903.67865,326
903.794922,315
903.911072,319
904.027344,327
904.143494,320
904.259705,307
904.375916,320
904.492065,303
904.608215,315
904.724426,291
904.840576,317
904.956726,322
905.072876,319
905.189087,313
905.305176,316
905.421387,315
905.537537,311
905.653687,320
905.769775,316
905.885925,302
906.002014,328
906.118164,315
906.234314,316
906.350403,309
906.466492,321
906.582642,314
906.69873,322
906.814758,300
906.930908,312
907.046936,329
907.163086,320
907.279175,301
907.395264,313
907.511353,310
907.62738,299
907.743408,322
907.859497,327
907.975525,295
908.091553,331
908.207703,321
908.32373,327
908.439758,311
908.555786,315
908.671814,309
908.787842,320
908.90387,314
909.019775,318
909.135864,314
909.251892,315
909.367859,313
909.483826,324
909.599854,309
909.715881,319
909.831848,305
909.947815,310
910.063782,311
910.179749,318
910.295776,314
910.411743,317
910.527649,316
910.643616,321
910.759583,313
910.875488,322
910.991455,320
911.107361,312
911.223267,319
911.339294,323
911.4552,312
911.571106,316
911.687073,315
911.802979,314
911.918823,317
912.034729,323
912.150635,304
912.266602,320
912.382446,331
912.498352,312
912.614197,310
912.730103,327
912.846008,308
792.44574,307
792.56488,353
792.68396,388
792.80304,386
792.92218,323
793.041199,318
793.160339,331
793.279419,340
793.398499,328
793.517578,323
793.636658,325
793.755737,332
793.874817,353
793.993896,343
794.112976,333
794.232056,327
794.351074,323
794.470215,325
794.589233,341
794.708313,324
794.827393,334
794.946411,336
795.065552,333
795.18457,343
795.303589,345
795.422668,328
795.541687,326
795.660767,331
795.779846,338
795.898865,333
796.017883,335
796.136963,325
796.255981,348
796.375061,344
796.49408,335
796.613037,326
796.732117,350
796.851135,329
796.970154,339
797.089233,320
797.208191,325
797.327271,320
797.446228,340
797.565186,337
797.684265,334
797.803223,327
797.922241,318
798.04126,341
798.160278,318
798.279297,324
798.398315,329
798.517273,333
798.636292,327
798.75531,321
798.874268,330
798.993286,325
799.112244,327
799.231323,322
799.350281,325
799.469238,329
799.588257,331
799.707153,335
799.826111,327
799.945129,310
800.064087,340
800.183044,336
800.302063,310
800.421021,334
800.539978,336
800.658936,334
800.777893,322
800.896912,322
801.015747,328
801.134705,334
801.253723,335
801.37262,322
801.491638,340
801.610535,328
801.729492,321
801.84845,313
801.967407,330
802.086243,327
802.205261,323
802.324158,320
802.443115,325
802.562073,324
802.680969,328
802.799927,324
802.918762,341
803.037659,328
803.156677,321
803.275574,334
803.39447,327
803.513428,334
803.632263,332
803.751221,330
803.870117,331
803.989014,328
804.107971,327
804.226746,313
804.345642,317
804.4646,336
804.583496,340
804.702393,339
804.821228,323
804.940125,348
805.059021,331
805.177917,319
805.296814,327
805.415649,325
805.534546,332
805.653442,336
805.772278,348
805.891113,330
806.01001,315
806.128906,327
806.247742,331
806.366577,346
806.485413,313
806.604309,336
806.723145,336
806.84198,334
806.960876,342
807.079712,321
807.198486,339
807.317383,352
807.436218,328
807.554993,340
807.673889,335
807.792725,342
807.91156,329
808.030396,326
808.14917,321
808.268005,336
808.386841,337
808.505676,329
808.624451,339
808.743286,321
808.862122,340
808.980896,328
809.099731,338
809.218506,324
809.337341,319
809.456116,338
809.57489,338
809.693726,329
809.8125,337
809.931274,327
810.050049,328
810.168884,336
810.287659,332
810.406372,336
810.525269,346
810.643982,336
810.762756,323
810.881531,326
811.000305,347
811.11908,335
811.237854,324
811.356567,327
811.475403,337
811.594116,339
811.71283,344
811.831604,334
811.950378,339
812.069153,332
812.187927,353
812.30658,353
812.425415,325
812.544128,331
812.662781,317
812.781616,341
812.900269,315
813.019043,332
813.137756,338
813.256531,324
813.375244,331
813.493896,326
813.612671,328
813.731384,317
813.850037,344
813.96875,331
814.087524,331
814.206238,331
814.324951,322
814.443604,335
814.562256,322
814.68103,330
814.799683,331
814.918335,329
815.037109,325
815.155762,331
815.274475,331
815.393188,318
815.511841,330
815.630554,344
815.749146,333
815.867859,343
815.986572,332
816.105164,337
816.223877,312
816.342529,347
816.461182,335
816.579895,330
816.698486,339
816.817139,344
816.935791,346
817.054504,354
817.173096,331
817.291748,324
817.4104,334
817.529053,331
817.647644,325
817.766235,331
817.884949,336
818.00354,335
818.122192,321
818.240845,321
818.359436,334
818.478088,320
818.59668,321
818.715271,318
818.833923,319
818.952515,320
819.071106,323
819.189758,318
819.30835,328
819.426941,321
819.545532,315
819.664124,328
819.782715,323
819.901306,310
820.019897,335
820.138489,312
820.25708,325
820.375671,327
820.494202,326
820.612732,311
820.731384,314
820.849915,314
820.968506,333
821.087097,313
821.205627,319
821.324158,308
821.442749,314
821.561279,332
821.679871,321
821.798401,324
821.916931,323
822.035461,321
822.154053,313
822.272583,311
822.391174,317
822.509583,308
822.628174,320
822.746704,310
822.865234,314
822.983765,317
823.102295,310
823.220825,318
823.339294,328
823.457825,314
823.576355,315
823.694824,324
823.813354,313
823.931885,325
824.050354,324
824.168884,319
824.287354,311
824.405823,326
824.524353,313
824.642822,302
824.761353,319
824.879822,313
824.998291,320
825.116699,322
825.235291,320
825.353699,326
825.472168,315
825.590637,313
825.709106,326
825.827576,314
825.946045,315
826.064453,330
826.182983,320
826.301392,306
826.4198,316
826.53833,333
826.656738,324
826.775208,315
826.893677,304
827.012024,315
827.130493,326
827.248962,329
827.36731,313
827.485779,315
827.604248,320
827.722595,310
827.841064,317
827.959412,305
828.077942,321
828.196289,329
828.314636,319
828.433105,308
828.551514,319
828.669861,310
828.78833,316
828.906677,307
829.025085,334
829.143433,328
829.261841,320
829.38031,315
829.498657,315
829.617004,317
829.735413,315
829.85376,313
829.972107,316
830.090515,317
830.208862,319
830.327209,330
830.445557,320
830.563904,325
830.682312,319
830.800659,328
830.919006,331
831.037354,322
831.155701,325
831.274048,329
831.392395,325
831.51062,315
831.629028,307
831.747314,320
831.865662,317
831.984009,318
832.102356,304
832.220642,312
832.338928,324
832.457275,310
832.575623,317
832.693909,310
832.812134,300
832.930481,323
833.048828,322
833.167114,321
833.2854,314
833.403687,324
833.521973,310
833.640259,318
833.758545,314
833.876831,307
833.995056,318
834.113281,326
834.231628,317
834.349915,308
834.468201,316
834.586426,304
834.704651,318
834.822998,315
834.941162,317
835.059448,317
835.177673,325
835.295959,320
835.414246,322
835.53241,327
835.650635,321
835.768921,330
835.887146,315
836.005371,324
836.123596,322
836.241821,309
836.360046,304
836.478271,310
836.596497,318
836.714722,320
836.832886,312
836.95105,317
837.069336,317
837.1875,315
837.305725,322
837.423889,318
837.542053,324
837.660339,323
837.778503,323
837.896667,320
838.014832,316
838.132996,310
838.25116,326
838.369385,319
838.487488,321
838.605713,326
838.723877,317
838.84198,310
838.960205,319
839.078308,320
839.196472,308
839.314636,324
839.4328,318
839.550964,323
839.669067,316
839.787231,316
839.905396,316
840.023499,302
840.141602,317
840.259766,319
840.377869,321
840.495972,311
840.614136,323
840.732239,312
840.850342,315
840.968445,315
841.086548,329
841.204651,313
841.322754,313
841.440918,314
841.55896,329
841.677002,316
841.795166,310
841.913208,326
842.031311,312
842.149353,319
842.267456,307
842.385498,309
842.503601,316
842.621643,328
842.739746,309
842.857788,303
842.97583,324
843.093933,324
843.211975,320
843.330017,328
843.44812,332
843.566101,329
843.684204,323
843.802246,313
843.920227,326
844.038269,306
844.156311,318
844.274292,319
844.392395,307
844.510376,328
844.628357,310
844.74646,321
844.864441,315
844.982422,326
845.100403,315
845.218384,318
845.336426,324
845.454468,316
845.572449,314
845.69043,305
845.808411,309
845.926453,314
846.044373,318
846.162354,301
846.280396,310
846.398315,308
846.516296,311
846.634216,329
846.752197,312
846.870178,308
846.988098,312
847.106079,322
847.22406,324
847.34198,310
847.4599,314
847.577881,304
847.695801,318
847.813782,320
847.931641,309
848.049561,314
848.167603,312
848.285461,308
848.403381,320
848.521362,306
848.639221,306
848.75708,306
848.875,316
848.99292,318
849.110901,302
849.22876,326
849.34668,298
849.464539,325
849.582458,312
849.700317,320
849.818176,319
849.936096,307
850.053955,332
850.171875,313
850.289673,309
850.407593,321
850.525452,308
850.643311,323
850.761169,315
850.878967,312
850.996887,322
851.114746,321
851.232544,319
851.350403,306
851.468262,316
851.58606,323
851.703979,316
851.821777,330
851.939636,308
852.057434,311
852.175232,305
852.293091,317
852.410889,316
852.528687,321
852.646545,312
852.764343,311
852.88208,312
852.999939,307
853.117676,303
853.235535,312
853.353271,307
853.471069,317
853.588928,312
853.706604,315
853.824402,308
853.9422,314
854.059998,313
854.177734,320
854.295532,326
854.413269,329
854.531006,313
854.648804,324
854.766541,306
854.884277,323
855.002014,322
855.119751,309
855.237549,321
855.355225,318
855.473022,316
855.590698,311
855.708435,317
855.826172,318
855.943848,315
856.061646,324
856.179321,307
856.296997,321
856.414795,308
856.53241,315
856.650085,326
856.767822,318
856.885559,312
857.003174,314
857.120911,318
857.238586,321
857.356201,315
857.473938,313
857.591614,301
857.709351,326
857.826965,317
857.944641,321
858.062317,321
858.179993,315
858.297668,302
858.415283,316
858.532959,322
858.650574,317
858.768188,319
858.885803,310
859.003479,324
859.121094,314
859.23877,320
859.356384,314
859.473999,310
859.591675,323
859.709229,316
859.826843,313
859.944458,312
860.062012,313
860.179626,324
860.297302,322
860.414856,310
860.532471,320
860.650024,331
860.767639,317
860.885193,318
861.002808,321
861.120361,317
861.237976,328
861.35553,310
861.473022,318
861.590698,302
861.708191,326
861.825745,326
861.943298,314
862.060852,309
862.178406,305
862.295959,316
862.413513,324
862.531006,316
862.64856,315
862.766113,321
862.883667,319
863.00116,321
863.118713,314
863.236206,308
863.353699,323
863.471252,298
863.588745,314
863.706177,300
863.82373,319
863.941162,327
864.058716,320
864.176208,319
864.29364,315
864.411194,308
864.528687,322
864.646118,315
864.763611,313
864.881042,331
864.998535,325
865.116028,299
865.233459,321
865.350891,315
865.468384,315
865.585754,297
865.703308,326
865.820679,312
865.938171,320
866.055542,324
866.173035,329
866.290466,319
866.407837,322
866.52533,313
866.6427,337
866.760071,307
866.877563,327
866.994934,308
867.112305,322
867.229736,321
867.347107,318
867.464539,334
867.58197,311
867.699341,312
867.81665,311
867.934082,310
868.051453,336
868.168823,322
868.286194,316
868.403564,311
868.520935,326
868.638306,326
868.755676,324
868.872986,310
868.990295,319
869.107727,308
869.225037,308
869.342346,322
869.459717,319
869.577026,310
869.694336,313
869.811707,321
869.929016,323
870.046326,312
870.163635,325
870.280945,303
870.398254,312
870.515564,320
870.632812,307
870.750183,314
870.867432,313
870.984741,323
871.102051,314
871.219299,321
871.336609,327
871.453918,319
871.571106,331
871.688416,309
871.805664,322
871.922852,317
872.040222,317
872.157471,314
872.274719,303
872.391968,319
872.509155,323
872.626465,312
872.743652,317
872.860962,320
872.978149,298
873.095337,313
873.212646,304
873.329834,304
873.44696,313
873.564209,307
873.681396,313
873.798645,323
873.915894,305
874.03302,321
874.150208,316
874.267456,307
874.384583,306
874.501831,307
874.618958,321
874.736145,329
874.853333,325
874.970459,313
875.087646,323
875.204834,325
875.32196,331
875.439148,323
875.556274,317
875.673401,317
875.790527,311
875.907715,324
876.024841,312
876.141968,304
876.259094,313
876.376282,322
876.493347,311
876.610474,319
876.7276,311
876.844727,307
876.961853,321
877.078918,310
877.195984,317
877.313171,315
877.430237,316
877.547302,308
877.664368,314
877.781433,304
877.898499,310
878.015625,317
878.13269,320
878.249695,311
878.366821,316
878.483887,316
878.600952,308
878.717957,303
878.834961,326
878.952087,321
879.069092,308
879.186157,325
879.303162,319
879.420227,309
879.537231,325
879.654236,305
879.77124,313
879.888306,310
880.005249,323
880.122314,313
880.239319,331
880.356323,321
880.473328,314
880.590271,327
880.707275,323
880.824341,313
880.941284,316
881.058228,320
881.175232,308
881.292236,317
881.40918,315
881.526123,309
881.643066,311
881.760071,326
881.877014,319
881.993958,312
882.11084,320
882.227783,310
882.344727,323
882.46167,318
882.578613,308
882.695618,309
882.812439,303
882.929382,307
883.046326,329
883.163208,316
883.280151,321
883.397034,316
883.513916,317
883.630798,307
883.747742,313
883.864563,312
883.981506,325
884.098389,310
884.21521,308
884.332153,300
884.448975,329
884.565796,316
884.682678,313
884.7995,305
884.916443,326
885.033264,309
885.150085,318
885.266968,310
885.383789,314
885.500671,314
885.617493,313
885.734314,305
885.851196,320
885.967896,320
886.084717,311
886.201599,327
886.318359,323
886.435181,312
886.552002,311
886.668762,319
886.785645,316
886.902344,309
887.019165,313
887.135925,316
887.252747,312
887.369446,309
887.486267,325
887.603027,328
887.719788,318
887.836548,318
887.953247,314
888.070068,308
888.186829,339
888.303528,318
888.420288,312
888.536987,315
888.653687,311
888.770447,313
888.887146,327
889.003967,317
889.120667,323
889.237305,303
889.354065,325
889.470703,323
889.587463,320
889.704163,308
889.820862,319
889.937561,316
890.054199,317
890.170837,316
890.287598,335
890.404236,312
890.520874,330
890.637634,303
890.754211,322
890.87085,312
890.987549,326
891.104187,314
891.220886,325
891.337463,311
891.454102,324
891.57074,307
891.687378,316
891.804077,334
891.920654,316
892.037231,318
892.15387,315
892.270447,321
892.387085,317
892.503723,329
892.6203,323
892.736877,323
892.853516,324
892.970032,313
893.08667,334
893.203186,308
893.319763,321
893.43634,308
893.552917,318
893.669556,309
893.786011,327
893.902588,305
894.019165,319
894.135681,321
894.252197,317
894.368835,313
894.485291,323
894.601868,310
894.718384,310
894.8349,329
894.951355,308
895.067932,310
895.184448,311
895.300964,327
895.417419,324
895.533936,317
895.650452,314
895.766907,299
895.883423,312
895.999878,312
896.116333,321
896.232849,324
896.349304,312
896.465759,311
896.582214,325
896.698669,330
896.815125,306
896.931641,319
897.048035,327
897.164551,314
897.280884,310
897.397339,324
897.513794,326
897.630249,320
897.746582,312
897.863098,321
897.979431,326
898.095886,320
898.212341,332
898.328674,328
898.445129,318
898.561462,318
898.677795,307
898.794312,297
898.910645,311
899.026978,323
899.143433,314
899.259766,305
899.37616,324
899.492493,306
899.608765,306
899.725159,319
899.841553,324
899.957947,327
900.07428,320
900.190552,317
900.306946,308
900.423157,324
900.53949,313
900.655884,310
900.772156,317
900.888489,311
901.004822,323
901.121033,330
901.237366,324
901.353699,310
901.46991,304
901.586304,337
901.702515,313
901.818787,316
901.93512,325
902.051331,318
902.167603,315
902.283875,312
902.400085,317
902.516418,314
902.632629,322
902.74884,314
902.865112,313
902.981384,311
903.097595,319
903.213867,320
903.330017,313
903.446289,318
903.5625,301
903.67865,304
903.794922,305
903.911072,313
904.027344,317
904.143494,308
904.259705,317
904.375916,312
904.492065,328
904.608215,322
904.724426,326
904.840576,317
904.956726,318
905.072876,326
905.189087,311
905.305176,308
905.421387,322
905.537537,310
905.653687,319
905.769775,305
905.885925,307
906.002014,310
906.118164,318
906.234314,308
906.350403,323
906.466492,309
906.582642,326
906.69873,311
906.814758,319
906.930908,315
907.046936,317
907.163086,316
907.279175,318
907.395264,319
907.511353,319
907.62738,309
907.743408,308
907.859497,313
907.975525,318
908.091553,314
908.207703,318
908.32373,325
908.439758,305
908.555786,307
908.671814,312
908.787842,325
908.90387,331
909.019775,316
909.135864,322
909.251892,327
909.367859,326
909.483826,328
909.599854,306
909.715881,330
909.831848,336
909.947815,309
910.063782,318
910.179749,307
910.295776,307
910.411743,314
910.527649,305
910.643616,332
910.759583,324
910.875488,319
910.991455,316
911.107361,332
911.223267,325
911.339294,313
911.4552,326
911.571106,326
911.687073,317
911.802979,322
911.918823,320
912.034729,320
912.150635,308
912.266602,311
912.382446,328
912.498352,307
912.614197,316
912.730103,331
912.846008,328
792.44574,324
792.56488,346
792.68396,396
792.80304,375
792.92218,319
793.041199,317
793.160339,328
793.279419,342
793.398499,326
793.517578,320
793.636658,323
793.755737,330
793.874817,357
793.993896,342
794.112976,324
794.232056,331
794.351074,331
794.470215,320
794.589233,335
794.708313,330
794.827393,330
794.946411,333
795.065552,327
795.18457,331
795.303589,340
795.422668,328
795.541687,337
795.660767,329
795.779846,335
795.898865,341
796.017883,316
796.136963,344
796.255981,328
796.375061,327
796.49408,323
796.613037,324
796.732117,327
796.851135,328
796.970154,327
797.089233,328
797.208191,320
797.327271,331
797.446228,327
797.565186,309
797.684265,331
797.803223,323
797.922241,325
798.04126,322
798.160278,330
798.279297,332
798.398315,327
798.517273,340
798.636292,331
798.75531,334
798.874268,334
798.993286,319
799.112244,325
799.231323,329
799.350281,323
799.469238,322
799.588257,329
799.707153,315
799.826111,311
799.945129,339
800.064087,335
800.183044,336
800.302063,333
800.421021,323
800.539978,320
800.658936,328
800.777893,322
800.896912,323
801.015747,335
801.134705,344
801.253723,329
801.37262,337
801.491638,339
801.610535,331
801.729492,314
801.84845,325
801.967407,320
802.086243,316
802.205261,332
802.324158,334
802.443115,320
802.562073,324
802.680969,326
802.799927,329
802.918762,336
803.037659,332
803.156677,328
803.275574,340
803.39447,318
803.513428,327
803.632263,325
803.751221,340
803.870117,310
803.989014,334
804.107971,316
804.226746,326
804.345642,331
804.4646,342
804.583496,327
804.702393,330
804.821228,332
804.940125,337
805.059021,331
805.177917,326
805.296814,328
805.415649,338
805.534546,342
805.653442,342
805.772278,335
805.891113,332
806.01001,333
806.128906,320
806.247742,342
806.366577,323
806.485413,333
806.604309,328
806.723145,329
806.84198,333
806.960876,334
807.079712,329
807.198486,325
807.317383,329
807.436218,329
807.554993,332
807.673889,331
807.792725,326
807.91156,332
808.030396,333
808.14917,330
808.268005,330
808.386841,354
808.505676,318
808.624451,327
808.743286,344
808.862122,328
808.980896,323
809.099731,326
809.218506,326
809.337341,339
809.456116,335
809.57489,332
809.693726,333
809.8125,328
809.931274,336
810.050049,346
810.168884,335
810.287659,323
810.406372,347
810.525269,323
810.643982,319
810.762756,343
810.881531,331
811.000305,329
811.11908,341
811.237854,327
811.356567,350
811.475403,325
811.594116,347
811.71283,323
811.831604,335
811.950378,338
812.069153,331
812.187927,328
812.30658,351
812.425415,342
812.544128,330
812.662781,326
812.781616,333
812.900269,325
813.019043,340
813.137756,341
813.256531,329
813.375244,329
813.493896,325
813.612671,332
813.731384,327
813.850037,336
813.96875,335
814.087524,326
814.206238,315
814.324951,337
814.443604,321
814.562256,338
814.68103,333
814.799683,339
814.918335,330
815.037109,328
815.155762,318
815.274475,325
815.393188,337
815.511841,310
815.630554,326
815.749146,328
815.867859,340
815.986572,330
816.105164,335
816.223877,331
816.342529,337
816.461182,339
816.579895,307
816.698486,334
816.817139,331
816.935791,334
817.054504,337
817.173096,326
817.291748,330
817.4104,337
817.529053,323
817.647644,321
817.766235,335
817.884949,312
818.00354,323
818.122192,325
818.240845,335
818.359436,314
818.478088,324
818.59668,311
818.715271,318
818.833923,328
818.952515,320
819.071106,325
819.189758,318
819.30835,317
819.426941,322
819.545532,318
819.664124,330
819.782715,315
819.901306,302
820.019897,319
820.138489,322
820.25708,323
820.375671,309
820.494202,333
820.612732,324
820.731384,325
820.849915,322
820.968506,321
821.087097,322
821.205627,330
821.324158,317
821.442749,307
821.561279,316
821.679871,336
821.798401,314
821.916931,305
822.035461,309
822.154053,315
822.272583,322
822.391174,319
822.509583,328
822.628174,323
822.746704,305
822.865234,310
822.983765,308
823.102295,315
823.220825,314
823.339294,319
823.457825,329
823.576355,315
823.694824,322
823.813354,315
823.931885,309
824.050354,333
824.168884,325
824.287354,321
824.405823,325
824.524353,307
824.642822,332
824.761353,317
824.879822,317
824.998291,325
825.116699,309
825.235291,316
825.353699,321
825.472168,313
825.590637,328
825.709106,323
825.827576,313
825.946045,311
826.064453,306
826.182983,317
826.301392,311
826.4198,314
826.53833,316
826.656738,315
826.775208,312
826.893677,324
827.012024,323
827.130493,311
827.248962,324
827.36731,311
827.485779,311
827.604248,309
827.722595,323
827.841064,321
827.959412,318
828.077942,321
828.196289,326
828.314636,324
828.433105,315
828.551514,325
828.669861,305
828.78833,309
828.906677,323
829.025085,306
829.143433,322
829.261841,309
829.38031,322
829.498657,312
829.617004,316
829.735413,301
829.85376,320
829.972107,304
830.090515,325
830.208862,318
830.327209,307
830.445557,308
830.563904,314
830.682312,310
830.800659,322
830.919006,319
831.037354,316
831.155701,323
831.274048,328
831.392395,309
831.51062,320
831.629028,317
831.747314,296
831.865662,318
831.984009,303
832.102356,312
832.220642,317
832.338928,317
832.457275,313
832.575623,314
832.693909,312
832.812134,321
832.930481,311
833.048828,305
833.167114,309
833.2854,318
833.403687,321
833.521973,311
833.640259,325
833.758545,311
833.876831,327
833.995056,318
834.113281,314
834.231628,322
834.349915,314
834.468201,316
834.586426,316
834.704651,326
834.822998,315
834.941162,316
835.059448,327
835.177673,310
835.295959,312
835.414246,320
835.53241,316
835.650635,321
835.768921,312
835.887146,319
836.005371,316
836.123596,303
836.241821,322
836.360046,321
836.478271,313
836.596497,318
836.714722,319
836.832886,307
836.95105,317
837.069336,312
837.1875,320
837.305725,319
837.423889,328
837.542053,306
837.660339,310
837.778503,325
837.896667,347
838.014832,317
838.132996,314
838.25116,310
838.369385,316
838.487488,307
838.605713,322
838.723877,315
838.84198,322
838.960205,308
839.078308,315
839.196472,319
839.314636,316
839.4328,304
839.550964,320
839.669067,325
839.787231,315
839.905396,312
840.023499,313
840.141602,317
840.259766,312
840.377869,326
840.495972,327
840.614136,317
840.732239,325
840.850342,318
840.968445,310
841.086548,298
841.204651,326
841.322754,315
841.440918,320
841.55896,306
841.677002,323
841.795166,328
841.913208,315
842.031311,313
842.149353,314
842.267456,306
842.385498,325
842.503601,316
842.621643,312
842.739746,311
842.857788,320
842.97583,316
843.093933,310
843.211975,314
843.330017,328
843.44812,328
843.566101,320
843.684204,326
843.802246,310
843.920227,326
844.038269,329
844.156311,308
844.274292,312
844.392395,329
844.510376,312
844.628357,313
844.74646,315
844.864441,324
844.982422,300
845.100403,312
845.218384,322
845.336426,303
845.454468,323
845.572449,314
845.69043,316
845.808411,296
845.926453,323
846.044373,305
846.162354,322
846.280396,313
846.398315,326
846.516296,324
846.634216,313
846.752197,314
846.870178,317
846.988098,308
847.106079,322
847.22406,288
847.34198,317
847.4599,314
847.577881,314
847.695801,319
847.813782,319
847.931641,314
848.049561,310
848.167603,324
848.285461,312
848.403381,324
848.521362,313
848.639221,316
848.75708,316
848.875,325
848.99292,311
849.110901,304
849.22876,312
849.34668,308
849.464539,307
849.582458,312
849.700317,323
849.818176,310
849.936096,316
850.053955,308
850.171875,310
850.289673,308
850.407593,324
850.525452,306
850.643311,319
850.761169,325
850.878967,307
850.996887,313
851.114746,324
851.232544,328
851.350403,315
851.468262,319
851.58606,325
851.703979,299
851.821777,322
851.939636,311
852.057434,311
852.175232,326
852.293091,309
852.410889,317
852.528687,308
852.646545,315
852.764343,324
852.88208,300
852.999939,322
853.117676,317
853.235535,317
853.353271,310
853.471069,310
853.588928,318
853.706604,302
853.824402,306
853.9422,316
854.059998,306
854.177734,320
854.295532,311
854.413269,317
854.531006,314
854.648804,310
854.766541,316
854.884277,305
855.002014,312
855.119751,313
855.237549,320
855.355225,316
855.473022,302
855.590698,321
855.708435,318
855.826172,313
855.943848,313
856.061646,304
856.179321,321
856.296997,330
856.414795,306
856.53241,320
856.650085,317
856.767822,322
856.885559,323
857.003174,323
857.120911,315
857.238586,318
857.356201,307
857.473938,311
857.591614,309
857.709351,323
857.826965,308
857.944641,306
858.062317,323
858.179993,311
858.297668,311
858.415283,312
858.532959,315
858.650574,331
858.768188,316
858.885803,316
859.003479,318
859.121094,311
859.23877,320
859.356384,307
859.473999,312
859.591675,311
859.709229,317
859.826843,315
859.944458,311
860.062012,312
860.179626,322
860.297302,322
860.414856,307
860.532471,317
860.650024,321
860.767639,312
860.885193,326
861.002808,322
861.120361,303
861.237976,314
861.35553,303
861.473022,307
861.590698,311
861.708191,311
861.825745,309
861.943298,307
862.060852,317
862.178406,317
862.295959,325
862.413513,319
862.531006,326
862.64856,312
862.766113,310
862.883667,315
863.00116,320
863.118713,321
863.236206,319
863.353699,332
863.471252,309
863.588745,329
863.706177,314
863.82373,301
863.941162,318
864.058716,318
864.176208,325
864.29364,308
864.411194,302
864.528687,318
864.646118,304
864.763611,305
864.881042,317
864.998535,308
865.116028,331
865.233459,314
865.350891,313
865.468384,309
865.585754,296
865.703308,316
865.820679,319
865.938171,322
866.055542,319
866.173035,317
866.290466,318
866.407837,309
866.52533,314
866.6427,315
866.760071,306
866.877563,304
866.994934,310
867.112305,310
867.229736,309
867.347107,301
867.464539,330
867.58197,321
867.699341,313
867.81665,312
867.934082,308
868.051453,320
868.168823,316
868.286194,312
868.403564,316
868.520935,316
868.638306,309
868.755676,319
868.872986,313
868.990295,311
869.107727,312
869.225037,316
869.342346,320
869.459717,327
869.577026,318
869.694336,336
869.811707,311
869.929016,323
870.046326,303
870.163635,312
870.280945,321
870.398254,312
870.515564,303
870.632812,305
870.750183,315
870.867432,317
870.984741,318
871.102051,316
871.219299,323
871.336609,328
871.453918,305
871.571106,314
871.688416,320
871.805664,319
871.922852,317
872.040222,312
872.157471,316
872.274719,321
872.391968,315
872.509155,320
872.626465,319
872.743652,321
872.860962,305
872.978149,316
873.095337,310
873.212646,318
873.329834,320
873.44696,322
873.564209,306
873.681396,326
873.798645,310
873.915894,315
874.03302,315
874.150208,315
874.267456,329
874.384583,312
874.501831,318
874.618958,322
874.736145,307
874.853333,323
874.970459,304
875.087646,314
875.204834,311
875.32196,313
875.439148,321
875.556274,301
875.673401,320
875.790527,321
875.907715,312
876.024841,324
876.141968,308
876.259094,324
876.376282,312
876.493347,323
876.610474,309
876.7276,304
876.844727,323
876.961853,312
877.078918,310
877.195984,310
877.313171,312
877.430237,337
877.547302,319
877.664368,327
877.781433,307
877.898499,319
878.015625,319
878.13269,323
878.249695,322
878.366821,324
878.483887,312
878.600952,316
878.717957,312
878.834961,310
878.952087,314
879.069092,326
879.186157,318
879.303162,315
879.420227,305
879.537231,327
879.654236,303
879.77124,305
879.888306,303
880.005249,328
880.122314,307
880.239319,307
880.356323,304
880.473328,313
880.590271,308
880.707275,321
880.824341,303
880.941284,314
881.058228,319
881.175232,326
881.292236,303
881.40918,312
881.526123,318
881.643066,310
881.760071,309
881.877014,329
881.993958,315
882.11084,317
882.227783,313
882.344727,316
882.46167,315
882.578613,324
882.695618,314
882.812439,321
882.929382,328
883.046326,327
883.163208,322
883.280151,308
883.397034,306
883.513916,320
883.630798,322
883.747742,322
883.864563,319
883.981506,310
884.098389,320
884.21521,317
884.332153,311
884.448975,328
884.565796,319
884.682678,324
884.7995,321
884.916443,312
885.033264,323
885.150085,316
885.266968,315
885.383789,310
885.500671,310
885.617493,315
885.734314,314
885.851196,313
885.967896,316
886.084717,317
886.201599,309
886.318359,309
886.435181,309
886.552002,313
886.668762,312
886.785645,316
886.902344,313
887.019165,329
887.135925,309
887.252747,310
887.369446,312
887.486267,308
887.603027,310
887.719788,305
887.836548,317
887.953247,318
888.070068,312
888.186829,320
888.303528,319
888.420288,332
888.536987,302
888.653687,319
888.770447,318
888.887146,325
889.003967,313
889.120667,327
889.237305,319
889.354065,323
889.470703,311
889.587463,312
889.704163,308
889.820862,329
889.937561,313
890.054199,315
890.170837,321
890.287598,318
890.404236,315
890.520874,316
890.637634,304
890.754211,309
890.87085,320
890.987549,324
891.104187,302
891.220886,310
891.337463,325
891.454102,325
891.57074,303
891.687378,313
891.804077,309
891.920654,326
892.037231,310
892.15387,313
892.270447,314
892.387085,314
892.503723,318
892.6203,310
892.736877,323
892.853516,330
892.970032,314
893.08667,310
893.203186,324
893.319763,310
893.43634,317
893.552917,312
893.669556,310
893.786011,328
893.902588,313
894.019165,330
894.135681,313
894.252197,317
894.368835,307
894.485291,318
894.601868,320
894.718384,318
894.8349,299
894.951355,317
895.067932,314
895.184448,329
895.300964,311
895.417419,311
895.533936,308
895.650452,325
895.766907,322
895.883423,316
895.999878,314
896.116333,314
896.232849,320
896.349304,325
896.465759,305
896.582214,322
896.698669,308
896.815125,311
896.931641,322
897.048035,319
897.164551,311
897.280884,315
897.397339,320
897.513794,320
897.630249,319
897.746582,314
897.863098,309
897.979431,315
898.095886,310
898.212341,310
898.328674,306
898.445129,321
898.561462,309
898.677795,318
898.794312,324
898.910645,317
899.026978,316
899.143433,317
899.259766,318
899.37616,316
899.492493,313
899.608765,331
899.725159,292
899.841553,321
899.957947,311
900.07428,319
900.190552,318
900.306946,315
900.423157,316
900.53949,321
900.655884,321
900.772156,318
900.888489,323
901.004822,331
901.121033,315
901.237366,315
901.353699,316
901.46991,330
901.586304,309
901.702515,309
901.818787,312
901.93512,319
902.051331,307
902.167603,325
902.283875,315
902.400085,318
902.516418,304
902.632629,310
902.74884,318
902.865112,313
902.981384,322
903.097595,309
903.213867,306
903.330017,323
903.446289,314
903.5625,308
903.67865,313
903.794922,323
903.911072,319
904.027344,321
904.143494,307
904.259705,315
904.375916,314
904.492065,324
904.608215,299
904.724426,314
904.840576,317
904.956726,323
905.072876,316
905.189087,304
905.305176,311
905.421387,322
905.537537,313
905.653687,330
905.769775,313
905.885925,324
906.002014,318
906.118164,305
906.234314,322
906.350403,314
906.466492,299
906.582642,323
906.69873,316
906.814758,326
906.930908,313
907.046936,326
907.163086,297
907.279175,314
907.395264,323
907.511353,335
907.62738,320
907.743408,325
907.859497,310
907.975525,323
908.091553,333
908.207703,315
908.32373,321
908.439758,308
908.555786,316
908.671814,331
908.787842,310
908.90387,333
909.019775,306
909.135864,319
909.251892,312
909.367859,320
909.483826,319
909.599854,327
909.715881,313
909.831848,312
909.947815,305
910.063782,315
910.179749,301
910.295776,325
910.411743,318
910.527649,321
910.643616,303
910.759583,319
910.875488,309
910.991455,319
911.107361,310
911.223267,318
911.339294,297
911.4552,327
911.571106,314
911.687073,329
911.802979,310
911.918823,320
912.034729,317
912.150635,325
912.266602,315
912.382446,312
912.498352,288
912.614197,317
912.730103,316
912.846008,319
