792.44574,311
792.56488,356
792.68396,401
792.80304,381
792.92218,338
793.041199,316
793.160339,325
793.279419,349
793.398499,330
793.517578,323
793.636658,330
793.755737,326
793.874817,348
793.993896,341
794.112976,343
794.232056,324
794.351074,320
794.470215,335
794.589233,329
794.708313,319
794.827393,335
794.946411,330
795.065552,328
795.18457,328
795.303589,329
795.422668,339
795.541687,328
795.660767,322
795.779846,337
795.898865,328
796.017883,335
796.136963,331
796.255981,330
796.375061,341
796.49408,328
796.613037,336
796.732117,339
796.851135,328
796.970154,334
797.089233,321
797.208191,329
797.327271,333
797.446228,346
797.565186,338
797.684265,325
797.803223,342
797.922241,316
798.04126,325
798.160278,330
798.279297,332
798.398315,325
798.517273,332
798.636292,329
798.75531,346
798.874268,321
798.993286,327
799.112244,339
799.231323,331
799.350281,334
799.469238,336
799.588257,314
799.707153,324
799.826111,330
799.945129,341
800.064087,334
800.183044,326
800.302063,332
800.421021,321
800.539978,320
800.658936,330
800.777893,337
800.896912,328
801.015747,344
801.134705,323
801.253723,329
801.37262,328
801.491638,333
801.610535,331
801.729492,326
801.84845,322
801.967407,330
802.086243,333
802.205261,331
802.324158,332
802.443115,312
802.562073,335
802.680969,325
802.799927,327
802.918762,326
803.037659,332
803.156677,338
803.275574,338
803.39447,329
803.513428,334
803.632263,320
803.751221,339
803.870117,326
803.989014,329
804.107971,331
804.226746,323
804.345642,336
804.4646,336
804.583496,322
804.702393,334
804.821228,325
804.940125,341
805.059021,345
805.177917,328
805.296814,335
805.415649,320
805.534546,331
805.653442,314
805.772278,338
805.891113,332
806.01001,335
806.128906,340
806.247742,329
806.366577,340
806.485413,328
806.604309,340
806.723145,327
806.84198,345
806.960876,343
807.079712,348
807.198486,330
807.317383,328
807.436218,316
807.554993,331
807.673889,338
807.792725,334
807.91156,338
808.030396,335
808.14917,331
808.268005,326
808.386841,335
808.505676,321
808.624451,338
808.743286,341
808.862122,334
808.980896,316
809.099731,341
809.218506,340
809.337341,351
809.456116,339
809.57489,330
809.693726,326
809.8125,318
809.931274,336
810.050049,328
810.168884,337
810.287659,340
810.406372,331
810.525269,335
810.643982,326
810.762756,336
810.881531,331
811.000305,335
811.11908,334
811.237854,343
811.356567,327
811.475403,324
811.594116,326
811.71283,350
811.831604,342
811.950378,327
812.069153,338
812.187927,341
812.30658,317
812.425415,330
812.544128,335
812.662781,341
812.781616,335
812.900269,338
813.019043,338
813.137756,324
813.256531,342
813.375244,324
813.493896,338
813.612671,331
813.731384,329
813.850037,328
813.96875,333
814.087524,331
814.206238,328
814.324951,334
814.443604,317
814.562256,348
814.68103,331
814.799683,333
814.918335,318
815.037109,340
815.155762,319
815.274475,344
815.393188,349
815.511841,323
815.630554,335
815.749146,345
815.867859,339
815.986572,322
816.105164,314
816.223877,336
816.342529,344
816.461182,332
816.579895,326
816.698486,329
816.817139,336
816.935791,337
817.054504,337
817.173096,329
817.291748,321
817.4104,330
817.529053,324
817.647644,358
817.766235,318
817.884949,330
818.00354,338
818.122192,313
818.240845,345
818.359436,316
818.478088,341
818.59668,317
818.715271,325
818.833923,331
818.952515,318
819.071106,320
819.189758,316
819.30835,318
819.426941,317
819.545532,322
819.664124,312
819.782715,326
819.901306,312
820.019897,326
820.138489,327
820.25708,327
820.375671,329
820.494202,322
820.612732,331
820.731384,315
820.849915,309
820.968506,321
821.087097,321
821.205627,320
821.324158,312
821.442749,317
821.561279,327
821.679871,313
821.798401,307
821.916931,328
822.035461,304
822.154053,326
822.272583,313
822.391174,333
822.509583,318
822.628174,321
822.746704,323
822.865234,313
822.983765,323
823.102295,318
823.220825,326
823.339294,309
823.457825,327
823.576355,314
823.694824,324
823.813354,323
823.931885,308
824.050354,319
824.168884,329
824.287354,328
824.405823,314
824.524353,319
824.642822,318
824.761353,312
824.879822,332
824.998291,320
825.116699,317
825.235291,322
825.353699,320
825.472168,329
825.590637,329
825.709106,313
825.827576,308
825.946045,319
826.064453,306
826.182983,316
826.301392,322
826.4198,306
826.53833,315
826.656738,313
826.775208,318
826.893677,320
827.012024,316
827.130493,314
827.248962,308
827.36731,318
827.485779,317
827.604248,318
827.722595,323
827.841064,333
827.959412,308
828.077942,327
828.196289,316
828.314636,323
828.433105,315
828.551514,310
828.669861,315
828.78833,327
828.906677,322
829.025085,314
829.143433,320
829.261841,304
829.38031,313
829.498657,331
829.617004,319
829.735413,317
829.85376,324
829.972107,310
830.090515,325
830.208862,325
830.327209,314
830.445557,326
830.563904,321
830.682312,313
830.800659,312
830.919006,302
831.037354,319
831.155701,305
831.274048,315
831.392395,316
831.51062,311
831.629028,311
831.747314,308
831.865662,313
831.984009,311
832.102356,323
832.220642,317
832.338928,318
832.457275,324
832.575623,330
832.693909,319
832.812134,321
832.930481,311
833.048828,327
833.167114,311
833.2854,322
833.403687,329
833.521973,317
833.640259,308
833.758545,316
833.876831,311
833.995056,326
834.113281,303
834.231628,317
834.349915,320
834.468201,306
834.586426,332
834.704651,324
834.822998,317
834.941162,324
835.059448,308
835.177673,322
835.295959,310
835.414246,314
835.53241,310
835.650635,323
835.768921,320
835.887146,321
836.005371,323
836.123596,311
836.241821,329
836.360046,316
836.478271,307
836.596497,318
836.714722,317
836.832886,317
836.95105,320
837.069336,331
837.1875,315
837.305725,310
837.423889,314
837.542053,320
837.660339,320
837.778503,322
837.896667,307
838.014832,309
838.132996,311
838.25116,327
838.369385,312
838.487488,314
838.605713,305
838.723877,321
838.84198,320
838.960205,318
839.078308,333
839.196472,313
839.314636,318
839.4328,312
839.550964,317
839.669067,321
839.787231,328
839.905396,317
840.023499,327
840.141602,322
840.259766,317
840.377869,313
840.495972,312
840.614136,315
840.732239,316
840.850342,313
840.968445,310
841.086548,319
841.204651,308
841.322754,317
841.440918,317
841.55896,321
841.677002,314
841.795166,307
841.913208,314
842.031311,314
842.149353,327
842.267456,320
842.385498,316
842.503601,312
842.621643,322
842.739746,312
842.857788,321
842.97583,333
843.093933,318
843.211975,324
843.330017,320
843.44812,313
843.566101,323
843.684204,318
843.802246,309
843.920227,318
844.038269,304
844.156311,310
844.274292,309
844.392395,307
844.510376,310
844.628357,319
844.74646,315
844.864441,327
844.982422,320
845.100403,323
845.218384,317
845.336426,314
845.454468,313
845.572449,328
845.69043,309
845.808411,313
845.926453,313
846.044373,317
846.162354,321
846.280396,336
846.398315,313
846.516296,318
846.634216,319
846.752197,323
846.870178,313
846.988098,316
847.106079,304
847.22406,319
847.34198,329
847.4599,313
847.577881,329
847.695801,298
847.813782,312
847.931641,315
848.049561,311
848.167603,323
848.285461,318
848.403381,318
848.521362,327
848.639221,311
848.75708,312
848.875,306
848.99292,313
849.110901,318
849.22876,313
849.34668,318
849.464539,310
849.582458,311
849.700317,310
849.818176,309
849.936096,320
850.053955,318
850.171875,302
850.289673,314
850.407593,302
850.525452,323
850.643311,328
850.761169,326
850.878967,308
850.996887,308
851.114746,323
851.232544,321
851.350403,318
851.468262,315
851.58606,323
851.703979,330
851.821777,303
851.939636,319
852.057434,318
852.175232,319
852.293091,299
852.410889,335
852.528687,316
852.646545,330
852.764343,315
852.88208,334
852.999939,318
853.117676,319
853.235535,323
853.353271,309
853.471069,308
853.588928,303
853.706604,317
853.824402,306
853.9422,320
854.059998,312
854.177734,315
854.295532,326
854.413269,308
854.531006,318
854.648804,328
854.766541,305
854.884277,328
855.002014,328
855.119751,310
855.237549,314
855.355225,311
855.473022,318
855.590698,326
855.708435,328
855.826172,310
855.943848,306
856.061646,305
856.179321,313
856.296997,326
856.414795,318
856.53241,322
856.650085,318
856.767822,328
856.885559,309
857.003174,323
857.120911,320
857.238586,313
857.356201,311
857.473938,323
857.591614,321
857.709351,319
857.826965,319
857.944641,320
858.062317,317
858.179993,308
858.297668,325
858.415283,321
858.532959,327
858.650574,299
858.768188,319
858.885803,308
859.003479,326
859.121094,320
859.23877,318
859.356384,308
859.473999,327
859.591675,311
859.709229,320
859.826843,305
859.944458,312
860.062012,313
860.179626,316
860.297302,310
860.414856,326
860.532471,324
860.650024,310
860.767639,307
860.885193,320
861.002808,317
861.120361,319
861.237976,316
861.35553,311
861.473022,330
861.590698,311
861.708191,313
861.825745,315
861.943298,322
862.060852,329
862.178406,314
862.295959,318
862.413513,321
862.531006,317
862.64856,299
862.766113,316
862.883667,319
863.00116,307
863.118713,319
863.236206,335
863.353699,307
863.471252,324
863.588745,321
863.706177,311
863.82373,308
863.941162,310
864.058716,305
864.176208,332
864.29364,318
864.411194,313
864.528687,299
864.646118,318
864.763611,308
864.881042,312
864.998535,312
865.116028,327
865.233459,314
865.350891,326
865.468384,305
865.585754,320
865.703308,320
865.820679,315
865.938171,323
866.055542,328
866.173035,321
866.290466,304
866.407837,310
866.52533,317
866.6427,324
866.760071,328
866.877563,320
866.994934,325
867.112305,317
867.229736,320
867.347107,321
867.464539,309
867.58197,308
867.699341,309
867.81665,318
867.934082,328
868.051453,308
868.168823,320
868.286194,323
868.403564,316
868.520935,316
868.638306,301
868.755676,315
868.872986,324
868.990295,306
869.107727,319
869.225037,306
869.342346,316
869.459717,320
869.577026,319
869.694336,323
869.811707,317
869.929016,305
870.046326,319
870.163635,313
870.280945,324
870.398254,315
870.515564,319
870.632812,327
870.750183,331
870.867432,316
870.984741,321
871.102051,312
871.219299,320
871.336609,304
871.453918,314
871.571106,305
871.688416,321
871.805664,314
871.922852,303
872.040222,310
872.157471,315
872.274719,320
872.391968,331
872.509155,318
872.626465,323
872.743652,303
872.860962,310
872.978149,324
873.095337,320
873.212646,313
873.329834,311
873.44696,319
873.564209,316
873.681396,312
873.798645,319
873.915894,305
874.03302,315
874.150208,304
874.267456,328
874.384583,320
874.501831,311
874.618958,305
874.736145,321
874.853333,303
874.970459,319
875.087646,315
875.204834,324
875.32196,316
875.439148,324
875.556274,316
875.673401,312
875.790527,324
875.907715,317
876.024841,311
876.141968,312
876.259094,319
876.376282,323
876.493347,316
876.610474,321
876.7276,317
876.844727,315
876.961853,323
877.078918,314
877.195984,317
877.313171,330
877.430237,310
877.547302,323
877.664368,314
877.781433,315
877.898499,321
878.015625,307
878.13269,315
878.249695,310
878.366821,312
878.483887,313
878.600952,318
878.717957,323
878.834961,321
878.952087,330
879.069092,319
879.186157,320
879.303162,316
879.420227,308
879.537231,321
879.654236,328
879.77124,306
879.888306,319
880.005249,321
880.122314,332
880.239319,315
880.356323,327
880.473328,319
880.590271,313
880.707275,327
880.824341,320
880.941284,315
881.058228,322
881.175232,301
881.292236,319
881.40918,317
881.526123,328
881.643066,323
881.760071,315
881.877014,309
881.993958,309
882.11084,306
882.227783,318
882.344727,314
882.46167,329
882.578613,308
882.695618,319
882.812439,295
882.929382,312
883.046326,311
883.163208,312
883.280151,305
883.397034,323
883.513916,317
883.630798,330
883.747742,323
883.864563,314
883.981506,322
884.098389,306
884.21521,322
884.332153,320
884.448975,306
884.565796,320
884.682678,318
884.7995,330
884.916443,322
885.033264,305
885.150085,317
885.266968,322
885.383789,312
885.500671,322
885.617493,312
885.734314,319
885.851196,314
885.967896,313
886.084717,318
886.201599,320
886.318359,320
886.435181,323
886.552002,317
886.668762,319
886.785645,316
886.902344,315
887.019165,311
887.135925,324
887.252747,316
887.369446,321
887.486267,311
887.603027,311
887.719788,324
887.836548,312
887.953247,317
888.070068,318
888.186829,320
888.303528,310
888.420288,318
888.536987,303
888.653687,330
888.770447,337
888.887146,321
889.003967,324
889.120667,309
889.237305,317
889.354065,311
889.470703,340
889.587463,307
889.704163,313
889.820862,303
889.937561,313
890.054199,330
890.170837,317
890.287598,309
890.404236,329
890.520874,314
890.637634,322
890.754211,310
890.87085,312
890.987549,326
891.104187,319
891.220886,320
891.337463,332
891.454102,310
891.57074,324
891.687378,312
891.804077,314
891.920654,312
892.037231,309
892.15387,313
892.270447,322
892.387085,307
892.503723,324
892.6203,313
892.736877,322
892.853516,311
892.970032,305
893.08667,316
893.203186,308
893.319763,299
893.43634,309
893.552917,314
893.669556,329
893.786011,310
893.902588,322
894.019165,322
894.135681,326
894.252197,314
894.368835,321
894.485291,311
894.601868,320
894.718384,314
894.8349,319
894.951355,324
895.067932,316
895.184448,311
895.300964,321
895.417419,322
895.533936,314
895.650452,319
895.766907,318
895.883423,317
895.999878,326
896.116333,303
896.232849,318
896.349304,319
896.465759,323
896.582214,310
896.698669,306
896.815125,318
896.931641,327
897.048035,311
897.164551,328
897.280884,317
897.397339,327
897.513794,309
897.630249,323
897.746582,307
897.863098,313
897.979431,324
898.095886,320
898.212341,321
898.328674,333
898.445129,312
898.561462,304
898.677795,301
898.794312,320
898.910645,315
899.026978,322
899.143433,309
899.259766,323
899.37616,324
899.492493,305
899.608765,315
899.725159,325
899.841553,316
899.957947,326
900.07428,314
900.190552,316
900.306946,318
900.423157,322
900.53949,318
900.655884,315
900.772156,315
900.888489,313
901.004822,316
901.121033,313
901.237366,314
901.353699,309
901.46991,313
901.586304,320
901.702515,318
901.818787,309
901.93512,328
902.051331,331
902.167603,310
902.283875,314
902.400085,325
902.516418,314
902.632629,311
902.74884,312
902.865112,316
902.981384,320
903.097595,315
903.213867,324
903.330017,314
903.446289,314
903.5625,316
903.67865,314
903.794922,307
903.911072,330
904.027344,319
904.143494,322
904.259705,308
904.375916,305
904.492065,318
904.608215,319
904.724426,321
904.840576,326
904.956726,311
905.072876,323
905.189087,310
905.305176,329
905.421387,320
905.537537,313
905.653687,320
905.769775,316
905.885925,319
906.002014,317
906.118164,318
906.234314,325
906.350403,319
906.466492,312
906.582642,326
906.69873,321
906.814758,307
906.930908,327
907.046936,311
907.163086,306
907.279175,307
907.395264,321
907.511353,309
907.62738,310
907.743408,316
907.859497,325
907.975525,314
908.091553,324
908.207703,313
908.32373,322
908.439758,308
908.555786,322
908.671814,311
908.787842,325
908.90387,306
909.019775,339
909.135864,323
909.251892,320
909.367859,306
909.483826,310
909.599854,316
909.715881,306
909.831848,324
909.947815,323
910.063782,333
910.179749,305
910.295776,320
910.411743,318
910.527649,307
910.643616,315
910.759583,322
910.875488,311
910.991455,322
911.107361,304
911.223267,316
911.339294,313
911.4552,308
911.571106,312
911.687073,316
911.802979,316
911.918823,321
912.034729,323
912.150635,307
912.266602,319
912.382446,312
912.498352,312
912.614197,312
912.730103,319
912.846008,321
792.44574,322
792.56488,364
792.68396,394
792.80304,390
792.92218,344
793.041199,317
793.160339,316
793.279419,327
793.398499,342
793.517578,308
793.636658,320
793.755737,334
793.874817,360
793.993896,345
794.112976,336
794.232056,329
794.351074,320
794.470215,329
794.589233,331
794.708313,316
794.827393,312
794.946411,335
795.065552,343
795.18457,324
795.303589,327
795.422668,333
795.541687,332
795.660767,330
795.779846,343
795.898865,314
796.017883,341
796.136963,326
796.255981,343
796.375061,337
796.49408,334
796.613037,318
796.732117,346
796.851135,327
796.970154,327
797.089233,310
797.208191,327
797.327271,329
797.446228,340
797.565186,328
797.684265,330
797.803223,334
797.922241,336
798.04126,338
798.160278,326
798.279297,338
798.398315,341
798.517273,341
798.636292,330
798.75531,327
798.874268,320
798.993286,345
799.112244,328
799.231323,330
799.350281,320
799.469238,334
799.588257,321
799.707153,333
799.826111,336
799.945129,329
800.064087,327
800.183044,310
800.302063,330
800.421021,336
800.539978,334
800.658936,328
800.777893,328
800.896912,318
801.015747,333
801.134705,318
801.253723,322
801.37262,340
801.491638,325
801.610535,337
801.729492,327
801.84845,329
801.967407,329
802.086243,334
802.205261,331
802.324158,340
802.443115,318
802.562073,319
802.680969,336
802.799927,341
802.918762,335
803.037659,326
803.156677,328
803.275574,335
803.39447,324
803.513428,346
803.632263,317
803.751221,322
803.870117,346
803.989014,345
804.107971,329
804.226746,332
804.345642,328
804.4646,327
804.583496,319
804.702393,337
804.821228,324
804.940125,319
805.059021,330
805.177917,327
805.296814,323
805.415649,335
805.534546,329
805.653442,340
805.772278,330
805.891113,322
806.01001,326
806.128906,327
806.247742,335
806.366577,329
806.485413,325
806.604309,346
806.723145,324
806.84198,339
806.960876,346
807.079712,333
807.198486,343
807.317383,322
807.436218,335
807.554993,328
807.673889,336
807.792725,307
807.91156,340
808.030396,340
808.14917,329
808.268005,320
808.386841,328
808.505676,329
808.624451,322
808.743286,338
808.862122,336
808.980896,333
809.099731,345
809.218506,343
809.337341,324
809.456116,321
809.57489,326
809.693726,326
809.8125,337
809.931274,337
810.050049,334
810.168884,324
810.287659,318
810.406372,323
810.525269,330
810.643982,321
810.762756,335
810.881531,329
811.000305,333
811.11908,328
811.237854,325
811.356567,341
811.475403,333
811.594116,338
811.71283,341
811.831604,343
811.950378,342
812.069153,322
812.187927,331
812.30658,335
812.425415,334
812.544128,325
812.662781,335
812.781616,337
812.900269,347
813.019043,342
813.137756,334
813.256531,329
813.375244,343
813.493896,320
813.612671,342
813.731384,315
813.850037,336
813.96875,328
814.087524,332
814.206238,317
814.324951,339
814.443604,325
814.562256,333
814.68103,335
814.799683,331
814.918335,346
815.037109,335
815.155762,340
815.274475,334
815.393188,320
815.511841,349
815.630554,328
815.749146,339
815.867859,328
815.986572,340
816.105164,344
816.223877,319
816.342529,334
816.461182,336
816.579895,333
816.698486,331
816.817139,327
816.935791,330
817.054504,330
817.173096,332
817.291748,337
817.4104,325
817.529053,342
817.647644,323
817.766235,311
817.884949,327
818.00354,314
818.122192,350
818.240845,329
818.359436,312
818.478088,330
818.59668,322
818.715271,322
818.833923,316
818.952515,339
819.071106,312
819.189758,316
819.30835,320
819.426941,320
819.545532,328
819.664124,314
819.782715,324
819.901306,311
820.019897,335
820.138489,317
820.25708,326
820.375671,306
820.494202,326
820.612732,312
820.731384,321
820.849915,315
820.968506,317
821.087097,326
821.205627,325
821.324158,328
821.442749,327
821.561279,318
821.679871,331
821.798401,331
821.916931,319
822.035461,326
822.154053,317
822.272583,311
822.391174,322
822.509583,307
822.628174,319
822.746704,316
822.865234,319
822.983765,312
823.102295,318
823.220825,314
823.339294,326
823.457825,313
823.576355,321
823.694824,321
823.813354,326
823.931885,325
824.050354,305
824.168884,315
824.287354,314
824.405823,309
824.524353,321
824.642822,324
824.761353,334
824.879822,316
824.998291,310
825.116699,324
825.235291,319
825.353699,311
825.472168,311
825.590637,332
825.709106,327
825.827576,327
825.946045,322
826.064453,324
826.182983,321
826.301392,318
826.4198,326
826.53833,317
826.656738,312
826.775208,301
826.893677,325
827.012024,311
827.130493,326
827.248962,309
827.36731,312
827.485779,310
827.604248,323
827.722595,317
827.841064,321
827.959412,315
828.077942,319
828.196289,315
828.314636,308
828.433105,318
828.551514,318
828.669861,322
828.78833,312
828.906677,314
829.025085,305
829.143433,316
829.261841,306
829.38031,307
829.498657,331
829.617004,314
829.735413,325
829.85376,307
829.972107,310
830.090515,304
830.208862,314
830.327209,315
830.445557,309
830.563904,313
830.682312,328
830.800659,336
830.919006,323
831.037354,317
831.155701,326
831.274048,324
831.392395,312
831.51062,323
831.629028,326
831.747314,305
831.865662,305
831.984009,311
832.102356,308
832.220642,306
832.338928,314
832.457275,317
832.575623,320
832.693909,328
832.812134,325
832.930481,325
833.048828,311
833.167114,314
833.2854,321
833.403687,319
833.521973,309
833.640259,309
833.758545,316
833.876831,317
833.995056,330
834.113281,326
834.231628,324
834.349915,308
834.468201,313
834.586426,310
834.704651,329
834.822998,325
834.941162,322
835.059448,323
835.177673,325
835.295959,304
835.414246,318
835.53241,322
835.650635,313
835.768921,297
835.887146,313
836.005371,304
836.123596,327
836.241821,313
836.360046,315
836.478271,301
836.596497,326
836.714722,305
836.832886,333
836.95105,325
837.069336,326
837.1875,317
837.305725,323
837.423889,322
837.542053,330
837.660339,315
837.778503,325
837.896667,320
838.014832,320
838.132996,336
838.25116,327
838.369385,303
838.487488,308
838.605713,322
838.723877,325
838.84198,314
838.960205,310
839.078308,312
839.196472,311
839.314636,320
839.4328,323
839.550964,312
839.669067,322
839.787231,295
839.905396,317
840.023499,321
840.141602,314
840.259766,311
840.377869,320
840.495972,304
840.614136,322
840.732239,306
840.850342,317
840.968445,314
841.086548,321
841.204651,311
841.322754,324
841.440918,322
841.55896,319
841.677002,315
841.795166,328
841.913208,319
842.031311,322
842.149353,328
842.267456,318
842.385498,329
842.503601,314
842.621643,312
842.739746,315
842.857788,313
842.97583,325
843.093933,316
843.211975,324
843.330017,307
843.44812,303
843.566101,309
843.684204,316
843.802246,321
843.920227,327
844.038269,303
844.156311,313
844.274292,314
844.392395,310
844.510376,313
844.628357,314
844.74646,317
844.864441,333
844.982422,305
845.100403,315
845.218384,311
845.336426,321
845.454468,320
845.572449,328
845.69043,315
845.808411,311
845.926453,317
846.044373,302
846.162354,317
846.280396,328
846.398315,313
846.516296,319
846.634216,314
846.752197,321
846.870178,317
846.988098,322
847.106079,310
847.22406,324
847.34198,310
847.4599,304
847.577881,314
847.695801,315
847.813782,334
847.931641,303
848.049561,309
848.167603,326
848.285461,317
848.403381,329
848.521362,326
848.639221,328
848.75708,306
848.875,317
848.99292,323
849.110901,306
849.22876,322
849.34668,325
849.464539,301
849.582458,321
849.700317,294
849.818176,318
849.936096,310
850.053955,324
850.171875,307
850.289673,315
850.407593,317
850.525452,310
850.643311,319
850.761169,315
850.878967,317
850.996887,309
851.114746,320
851.232544,318
851.350403,327
851.468262,311
851.58606,320
851.703979,320
851.821777,315
851.939636,319
852.057434,310
852.175232,316
852.293091,309
852.410889,320
852.528687,311
852.646545,325
852.764343,316
852.88208,329
852.999939,315
853.117676,307
853.235535,306
853.353271,319
853.471069,304
853.588928,325
853.706604,322
853.824402,310
853.9422,314
854.059998,330
854.177734,306
854.295532,316
854.413269,307
854.531006,314
854.648804,301
854.766541,324
854.884277,320
855.002014,322
855.119751,316
855.237549,328
855.355225,318
855.473022,326
855.590698,314
855.708435,327
855.826172,315
855.943848,329
856.061646,307
856.179321,306
856.296997,308
856.414795,312
856.53241,327
856.650085,335
856.767822,322
856.885559,321
857.003174,307
857.120911,322
857.238586,324
857.356201,311
857.473938,314
857.591614,318
857.709351,323
857.826965,318
857.944641,323
858.062317,319
858.179993,306
858.297668,306
858.415283,313
858.532959,311
858.650574,322
858.768188,326
858.885803,316
859.003479,318
859.121094,311
859.23877,302
859.356384,318
859.473999,319
859.591675,311
859.709229,321
859.826843,314
859.944458,319
860.062012,316
860.179626,310
860.297302,312
860.414856,316
860.532471,307
860.650024,322
860.767639,308
860.885193,327
861.002808,307
861.120361,329
861.237976,320
861.35553,313
861.473022,317
861.590698,321
861.708191,322
861.825745,319
861.943298,307
862.060852,327
862.178406,314
862.295959,304
862.413513,317
862.531006,315
862.64856,322
862.766113,315
862.883667,316
863.00116,321
863.118713,300
863.236206,306
863.353699,313
863.471252,315
863.588745,314
863.706177,313
863.82373,315
863.941162,312
864.058716,299
864.176208,319
864.29364,319
864.411194,320
864.528687,309
864.646118,311
864.763611,309
864.881042,305
864.998535,313
865.116028,335
865.233459,301
865.350891,323
865.468384,321
865.585754,307
865.703308,321
865.820679,317
865.938171,322
866.055542,310
866.173035,301
866.290466,309
866.407837,306
866.52533,325
866.6427,306
866.760071,314
866.877563,310
866.994934,318
867.112305,321
867.229736,320
867.347107,315
867.464539,322
867.58197,317
867.699341,308
867.81665,322
867.934082,320
868.051453,307
868.168823,315
868.286194,305
868.403564,335
868.520935,310
868.638306,320
868.755676,304
868.872986,325
868.990295,314
869.107727,328
869.225037,316
869.342346,315
869.459717,308
869.577026,313
869.694336,318
869.811707,326
869.929016,312
870.046326,320
870.163635,311
870.280945,309
870.398254,313
870.515564,319
870.632812,314
870.750183,313
870.867432,305
870.984741,320
871.102051,309
871.219299,322
871.336609,314
871.453918,307
871.571106,313
871.688416,312
871.805664,307
871.922852,322
872.040222,314
872.157471,328
872.274719,312
872.391968,310
872.509155,312
872.626465,306
872.743652,331
872.860962,311
872.978149,310
873.095337,315
873.212646,326
873.329834,318
873.44696,306
873.564209,322
873.681396,323
873.798645,317
873.915894,316
874.03302,308
874.150208,307
874.267456,313
874.384583,309
874.501831,311
874.618958,298
874.736145,321
874.853333,315
874.970459,303
875.087646,317
875.204834,315
875.32196,320
875.439148,314
875.556274,315
875.673401,323
875.790527,299
875.907715,319
876.024841,315
876.141968,310
876.259094,323
876.376282,316
876.493347,326
876.610474,325
876.7276,307
876.844727,316
876.961853,315
877.078918,314
877.195984,314
877.313171,322
877.430237,319
877.547302,322
877.664368,333
877.781433,320
877.898499,307
878.015625,328
878.13269,312
878.249695,315
878.366821,311
878.483887,309
878.600952,318
878.717957,313
878.834961,315
878.952087,321
879.069092,304
879.186157,333
879.303162,298
879.420227,307
879.537231,325
879.654236,318
879.77124,322
879.888306,329
880.005249,304
880.122314,308
880.239319,316
880.356323,332
880.473328,303
880.590271,313
880.707275,309
880.824341,317
880.941284,313
881.058228,307
881.175232,313
881.292236,322
881.40918,308
881.526123,318
881.643066,312
881.760071,318
881.877014,299
881.993958,314
882.11084,333
882.227783,312
882.344727,305
882.46167,316
882.578613,300
882.695618,329
882.812439,308
882.929382,326
883.046326,315
883.163208,317
883.280151,317
883.397034,316
883.513916,311
883.630798,319
883.747742,320
883.864563,315
883.981506,303
884.098389,311
884.21521,307
884.332153,315
884.448975,315
884.565796,316
884.682678,310
884.7995,323
884.916443,314
885.033264,311
885.150085,325
885.266968,316
885.383789,315
885.500671,314
885.617493,318
885.734314,316
885.851196,316
885.967896,317
886.084717,319
886.201599,321
886.318359,315
886.435181,310
886.552002,313
886.668762,307
886.785645,313
886.902344,321
887.019165,303
887.135925,330
887.252747,310
887.369446,322
887.486267,312
887.603027,317
887.719788,311
887.836548,310
887.953247,313
888.070068,316
888.186829,319
888.303528,336
888.420288,311
888.536987,325
888.653687,309
888.770447,318
888.887146,315
889.003967,311
889.120667,319
889.237305,313
889.354065,316
889.470703,309
889.587463,301
889.704163,324
889.820862,313
889.937561,317
890.054199,305
890.170837,310
890.287598,314
890.404236,323
890.520874,317
890.637634,321
890.754211,318
890.87085,313
890.987549,309
891.104187,323
891.220886,312
891.337463,315
891.454102,304
891.57074,312
891.687378,311
891.804077,312
891.920654,311
892.037231,318
892.15387,300
892.270447,319
892.387085,307
892.503723,309
892.6203,311
892.736877,303
892.853516,311
892.970032,326
893.08667,306
893.203186,321
893.319763,301
893.43634,322
893.552917,322
893.669556,312
893.786011,328
893.902588,323
894.019165,305
894.135681,321
894.252197,322
894.368835,317
894.485291,316
894.601868,321
894.718384,310
894.8349,324
894.951355,319
895.067932,322
895.184448,318
895.300964,317
895.417419,305
895.533936,318
895.650452,304
895.766907,319
895.883423,325
895.999878,305
896.116333,307
896.232849,321
896.349304,314
896.465759,309
896.582214,299
896.698669,326
896.815125,307
896.931641,304
897.048035,315
897.164551,326
897.280884,314
897.397339,319
897.513794,313
897.630249,327
897.746582,319
897.863098,324
897.979431,315
898.095886,328
898.212341,309
898.328674,301
898.445129,315
898.561462,315
898.677795,308
898.794312,321
898.910645,323
899.026978,316
899.143433,311
899.259766,332
899.37616,316
899.492493,310
899.608765,318
899.725159,314
899.841553,313
899.957947,322
900.07428,320
900.190552,326
900.306946,317
900.423157,319
900.53949,323
900.655884,322
900.772156,316
900.888489,319
901.004822,322
901.121033,308
901.237366,325
901.353699,313
901.46991,313
901.586304,317
901.702515,302
901.818787,314
901.93512,316
902.051331,306
902.167603,299
902.283875,327
902.400085,312
902.516418,321
902.632629,308
902.74884,328
902.865112,317
902.981384,318
903.097595,327
903.213867,320
903.330017,304
903.446289,308
903.5625,298
903.67865,318
903.794922,313
903.911072,305
904.027344,318
904.143494,329
904.259705,316
904.375916,316
904.492065,315
904.608215,317
904.724426,313
904.840576,311
904.956726,302
905.072876,339
905.189087,320
905.305176,316
905.421387,307
905.537537,314
905.653687,312
905.769775,332
905.885925,312
906.002014,317
906.118164,322
906.234314,325
906.350403,307
906.466492,313
906.582642,312
906.69873,323
906.814758,318
906.930908,315
907.046936,322
907.163086,323
907.279175,303
907.395264,317
907.511353,319
907.62738,334
907.743408,316
907.859497,321
907.975525,328
908.091553,325
908.207703,306
908.32373,329
908.439758,318
908.555786,320
908.671814,315
908.787842,314
908.90387,330
909.019775,321
909.135864,327
909.251892,316
909.367859,312
909.483826,324
909.599854,307
909.715881,321
909.831848,312
909.947815,313
910.063782,311
910.179749,316
910.295776,318
910.411743,320
910.527649,328
910.643616,321
910.759583,317
910.875488,322
910.991455,306
911.107361,315
911.223267,313
911.339294,321
911.4552,317
911.571106,328
911.687073,308
911.802979,317
911.918823,310
912.034729,322
912.150635,317
912.266602,317
912.382446,325
912.498352,308
912.614197,305
912.730103,309
912.846008,320
792.44574,309
792.56488,344
792.68396,395
792.80304,377
792.92218,332
793.041199,306
793.160339,334
793.279419,335
793.398499,324
793.517578,311
793.636658,322
793.755737,335
793.874817,356
793.993896,350
794.112976,324
794.232056,330
794.351074,325
794.470215,338
794.589233,331
794.708313,334
794.827393,339
794.946411,324
795.065552,327
795.18457,337
795.303589,333
795.422668,337
795.541687,336
795.660767,352
795.779846,324
795.898865,319
796.017883,337
796.136963,326
796.255981,335
796.375061,330
796.49408,328
796.613037,326
796.732117,331
796.851135,334
796.970154,319
797.089233,318
797.208191,326
797.327271,334
797.446228,332
797.565186,344
797.684265,320
797.803223,320
797.922241,331
798.04126,319
798.160278,336
798.279297,331
798.398315,321
798.517273,335
798.636292,332
798.75531,319
798.874268,320
798.993286,342
799.112244,339
799.231323,327
799.350281,321
799.469238,321
799.588257,335
799.707153,329
799.826111,331
799.945129,314
800.064087,326
800.183044,334
800.302063,339
800.421021,339
800.539978,337
800.658936,320
800.777893,328
800.896912,333
801.015747,347
801.134705,316
801.253723,343
801.37262,329
801.491638,326
801.610535,343
801.729492,335
801.84845,331
801.967407,344
802.086243,322
802.205261,322
802.324158,338
802.443115,321
802.562073,343
802.680969,323
802.799927,328
802.918762,341
803.037659,338
803.156677,336
803.275574,323
803.39447,327
803.513428,320
803.632263,339
803.751221,322
803.870117,350
803.989014,327
804.107971,333
804.226746,338
804.345642,315
804.4646,338
804.583496,340
804.702393,339
804.821228,330
804.940125,345
805.059021,317
805.177917,333
805.296814,332
805.415649,336
805.534546,314
805.653442,351
805.772278,326
805.891113,347
806.01001,333
806.128906,346
806.247742,352
806.366577,329
806.485413,327
806.604309,324
806.723145,332
806.84198,342
806.960876,327
807.079712,324
807.198486,327
807.317383,338
807.436218,337
807.554993,317
807.673889,347
807.792725,335
807.91156,336
808.030396,325
808.14917,340
808.268005,329
808.386841,356
808.505676,321
808.624451,329
808.743286,318
808.862122,324
808.980896,333
809.099731,323
809.218506,339
809.337341,353
809.456116,338
809.57489,329
809.693726,349
809.8125,342
809.931274,328
810.050049,352
810.168884,336
810.287659,324
810.406372,339
810.525269,324
810.643982,345
810.762756,320
810.881531,336
811.000305,348
811.11908,333
811.237854,338
811.356567,342
811.475403,334
811.594116,336
811.71283,335
811.831604,324
811.950378,339
812.069153,326
812.187927,323
812.30658,359
812.425415,335
812.544128,330
812.662781,330
812.781616,346
812.900269,343
813.019043,337
813.137756,333
813.256531,342
813.375244,331
813.493896,328
813.612671,329
813.731384,330
813.850037,332
813.96875,344
814.087524,334
814.206238,328
814.324951,322
814.443604,334
814.562256,339
814.68103,329
814.799683,328
814.918335,336
815.037109,337
815.155762,343
815.274475,325
815.393188,319
815.511841,337
815.630554,334
815.749146,338
815.867859,348
815.986572,332
816.105164,320
816.223877,329
816.342529,332
816.461182,337
816.579895,332
816.698486,337
816.817139,319
816.935791,346
817.054504,338
817.173096,332
817.291748,332
817.4104,323
817.529053,337
817.647644,323
817.766235,325
817.884949,339
818.00354,333
818.122192,329
818.240845,324
818.359436,329
818.478088,316
818.59668,321
818.715271,322
818.833923,319
818.952515,337
819.071106,313
819.189758,317
819.30835,322
819.426941,331
819.545532,318
819.664124,328
819.782715,320
819.901306,334
820.019897,319
820.138489,322
820.25708,330
820.375671,332
820.494202,310
820.612732,324
820.731384,317
820.849915,321
820.968506,330
821.087097,324
821.205627,317
821.324158,319
821.442749,320
821.561279,328
821.679871,316
821.798401,317
821.916931,317
822.035461,320
822.154053,333
822.272583,321
822.391174,329
822.509583,316
822.628174,313
822.746704,307
822.865234,312
822.983765,302
823.102295,323
823.220825,326
823.339294,311
823.457825,325
823.576355,310
823.694824,322
823.813354,318
823.931885,328
824.050354,313
824.168884,327
824.287354,312
824.405823,303
824.524353,318
824.642822,313
824.761353,321
824.879822,321
824.998291,324
825.116699,316
825.235291,320
825.353699,319
825.472168,303
825.590637,315
825.709106,306
825.827576,332
825.946045,320
826.064453,310
826.182983,322
826.301392,329
826.4198,325
826.53833,314
826.656738,321
826.775208,315
826.893677,327
827.012024,314
827.130493,332
827.248962,328
827.36731,317
827.485779,319
827.604248,331
827.722595,321
827.841064,309
827.959412,313
828.077942,330
828.196289,321
828.314636,314
828.433105,306
828.551514,324
828.669861,328
828.78833,305
828.906677,312
829.025085,324
829.143433,328
829.261841,319
829.38031,328
829.498657,315
829.617004,321
829.735413,322
829.85376,313
829.972107,317
830.090515,316
830.208862,317
830.327209,329
830.445557,310
830.563904,324
830.682312,314
830.800659,324
830.919006,330
831.037354,318
831.155701,323
831.274048,328
831.392395,311
831.51062,321
831.629028,312
831.747314,328
831.865662,322
831.984009,320
832.102356,323
832.220642,314
832.338928,305
832.457275,314
832.575623,301
832.693909,324
832.812134,299
832.930481,317
833.048828,310
833.167114,318
833.2854,316
833.403687,320
833.521973,311
833.640259,304
833.758545,307
833.876831,322
833.995056,307
834.113281,319
834.231628,323
834.349915,322
834.468201,309
834.586426,316
834.704651,311
834.822998,328
834.941162,320
835.059448,327
835.177673,316
835.295959,317
835.414246,306
835.53241,326
835.650635,299
835.768921,335
835.887146,305
836.005371,327
836.123596,323
836.241821,331
836.360046,304
836.478271,330
836.596497,320
836.714722,313
836.832886,318
836.95105,321
837.069336,321
837.1875,316
837.305725,313
837.423889,312
837.542053,325
837.660339,320
837.778503,319
837.896667,306
838.014832,328
838.132996,318
838.25116,337
838.369385,312
838.487488,314
838.605713,313
838.723877,313
838.84198,332
838.960205,314
839.078308,306
839.196472,297
839.314636,318
839.4328,318
839.550964,314
839.669067,307
839.787231,321
839.905396,316
840.023499,317
840.141602,311
840.259766,313
840.377869,313
840.495972,313
840.614136,333
840.732239,319
840.850342,328
840.968445,319
841.086548,311
841.204651,320
841.322754,315
841.440918,326
841.55896,317
841.677002,315
841.795166,323
841.913208,329
842.031311,328
842.149353,322
842.267456,326
842.385498,316
842.503601,318
842.621643,324
842.739746,318
842.857788,306
842.97583,314
843.093933,333
843.211975,299
843.330017,316
843.44812,319
843.566101,318
843.684204,307
843.802246,321
843.920227,308
844.038269,318
844.156311,314
844.274292,319
844.392395,326
844.510376,309
844.628357,306
844.74646,319
844.864441,319
844.982422,321
845.100403,315
845.218384,326
845.336426,313
845.454468,314
845.572449,318
845.69043,310
845.808411,306
845.926453,329
846.044373,321
846.162354,319
846.280396,311
846.398315,322
846.516296,324
846.634216,309
846.752197,311
846.870178,315
846.988098,329
847.106079,327
847.22406,323
847.34198,310
847.4599,307
847.577881,321
847.695801,322
847.813782,329
847.931641,305
848.049561,310
848.167603,317
848.285461,313
848.403381,308
848.521362,308
848.639221,308
848.75708,323
848.875,310
848.99292,318
849.110901,315
849.22876,317
849.34668,329
849.464539,303
849.582458,311
849.700317,315
849.818176,318
849.936096,314
850.053955,323
850.171875,325
850.289673,321
850.407593,308
850.525452,321
850.643311,313
850.761169,326
850.878967,325
850.996887,320
851.114746,307
851.232544,327
851.350403,305
851.468262,319
851.58606,316
851.703979,327
851.821777,327
851.939636,319
852.057434,315
852.175232,330
852.293091,324
852.410889,320
852.528687,311
852.646545,329
852.764343,319
852.88208,314
852.999939,324
853.117676,316
853.235535,313
853.353271,319
853.471069,312
853.588928,308
853.706604,316
853.824402,308
853.9422,320
854.059998,304
854.177734,324
854.295532,313
854.413269,312
854.531006,313
854.648804,317
854.766541,322
854.884277,323
855.002014,313
855.119751,307
855.237549,319
855.355225,323
855.473022,313
855.590698,313
855.708435,312
855.826172,311
855.943848,313
856.061646,314
856.179321,307
856.296997,319
856.414795,315
856.53241,317
856.650085,324
856.767822,313
856.885559,307
857.003174,317
857.120911,316
857.238586,320
857.356201,306
857.473938,313
857.591614,314
857.709351,319
857.826965,316
857.944641,311
858.062317,306
858.179993,315
858.297668,318
858.415283,313
858.532959,316
858.650574,298
858.768188,318
858.885803,324
859.003479,310
859.121094,301
859.23877,312
859.356384,311
859.473999,322
859.591675,326
859.709229,311
859.826843,330
859.944458,307
860.062012,332
860.179626,315
860.297302,304
860.414856,321
860.532471,315
860.650024,316
860.767639,314
860.885193,321
861.002808,311
861.120361,316
861.237976,317
861.35553,320
861.473022,308
861.590698,314
861.708191,327
861.825745,307
861.943298,331
862.060852,308
862.178406,312
862.295959,318
862.413513,317
862.531006,326
862.64856,314
862.766113,312
862.883667,318
863.00116,311
863.118713,325
863.236206,310
863.353699,319
863.471252,321
863.588745,319
863.706177,308
863.82373,324
863.941162,308
864.058716,326
864.176208,322
864.29364,303
864.411194,306
864.528687,323
864.646118,317
864.763611,316
864.881042,317
864.998535,331
865.116028,308
865.233459,318
865.350891,312
865.468384,313
865.585754,310
865.703308,324
865.820679,306
865.938171,318
866.055542,308
866.173035,307
866.290466,316
866.407837,316
866.52533,313
866.6427,301
866.760071,315
866.877563,325
866.994934,310
867.112305,332
867.229736,304
867.347107,323
867.464539,311
867.58197,321
867.699341,308
867.81665,321
867.934082,308
868.051453,313
868.168823,303
868.286194,319
868.403564,320
868.520935,309
868.638306,301
868.755676,312
868.872986,326
868.990295,312
869.107727,314
869.225037,324
869.342346,320
869.459717,337
869.577026,319
869.694336,327
869.811707,310
869.929016,324
870.046326,311
870.163635,308
870.280945,305
870.398254,317
870.515564,311
870.632812,317
870.750183,318
870.867432,297
870.984741,313
871.102051,314
871.219299,313
871.336609,319
871.453918,314
871.571106,319
871.688416,311
871.805664,317
871.922852,314
872.040222,318
872.157471,312
872.274719,306
872.391968,312
872.509155,310
872.626465,306
872.743652,311
872.860962,315
872.978149,332
873.095337,316
873.212646,316
873.329834,312
873.44696,319
873.564209,309
873.681396,314
873.798645,313
873.915894,312
874.03302,305
874.150208,316
874.267456,331
874.384583,308
874.501831,327
874.618958,324
874.736145,314
874.853333,312
874.970459,316
875.087646,318
875.204834,322
875.32196,315
875.439148,334
875.556274,309
875.673401,318
875.790527,322
875.907715,306
876.024841,318
876.141968,317
876.259094,310
876.376282,306
876.493347,329
876.610474,308
876.7276,315
876.844727,319
876.961853,314
877.078918,305
877.195984,315
877.313171,298
877.430237,334
877.547302,312
877.664368,324
877.781433,320
877.898499,318
878.015625,320
878.13269,305
878.249695,326
878.366821,316
878.483887,311
878.600952,320
878.717957,303
878.834961,324
878.952087,304
879.069092,322
879.186157,317
879.303162,323
879.420227,314
879.537231,312
879.654236,312
879.77124,318
879.888306,299
880.005249,328
880.122314,317
880.239319,317
880.356323,308
880.473328,333
880.590271,318
880.707275,305
880.824341,324
880.941284,322
881.058228,320
881.175232,318
881.292236,308
881.40918,320
881.526123,296
881.643066,309
881.760071,311
881.877014,317
881.993958,313
882.11084,314
882.227783,319
882.344727,315
882.46167,311
882.578613,315
882.695618,311
882.812439,314
882.929382,306
883.046326,316
883.163208,308
883.280151,319
883.397034,311
883.513916,308
883.630798,316
883.747742,324
883.864563,318
883.981506,317
884.098389,315
884.21521,305
884.332153,316
884.448975,319
884.565796,299
884.682678,318
884.7995,323
884.916443,316
885.033264,324
885.150085,310
885.266968,314
885.383789,313
885.500671,310
885.617493,312
885.734314,310
885.851196,328
885.967896,319
886.084717,306
886.201599,323
886.318359,310
886.435181,312
886.552002,319
886.668762,314
886.785645,319
886.902344,312
887.019165,304
887.135925,318
887.252747,309
887.369446,308
887.486267,327
887.603027,310
887.719788,316
887.836548,321
887.953247,312
888.070068,307
888.186829,322
888.303528,312
888.420288,317
888.536987,316
888.653687,301
888.770447,319
888.887146,313
889.003967,302
889.120667,319
889.237305,306
889.354065,320
889.470703,326
889.587463,320
889.704163,311
889.820862,312
889.937561,309
890.054199,302
890.170837,319
890.287598,332
890.404236,321
890.520874,315
890.637634,324
890.754211,327
890.87085,323
890.987549,314
891.104187,302
891.220886,315
891.337463,307
891.454102,314
891.57074,308
891.687378,317
891.804077,319
891.920654,311
892.037231,319
892.15387,310
892.270447,323
892.387085,321
892.503723,304
892.6203,312
892.736877,317
892.853516,323
892.970032,323
893.08667,317
893.203186,312
893.319763,306
893.43634,319
893.552917,314
893.669556,302
893.786011,316
893.902588,306
894.019165,317
894.135681,307
894.252197,307
894.368835,325
894.485291,321
894.601868,311
894.718384,316
894.8349,312
894.951355,307
895.067932,321
895.184448,316
895.300964,306
895.417419,318
895.533936,315
895.650452,303
895.766907,315
895.883423,307
895.999878,319
896.116333,320
896.232849,320
896.349304,319
896.465759,315
896.582214,306
896.698669,303
896.815125,314
896.931641,319
897.048035,318
897.164551,317
897.280884,318
897.397339,315
897.513794,330
897.630249,323
897.746582,329
897.863098,313
897.979431,318
898.095886,322
898.212341,318
898.328674,302
898.445129,310
898.561462,323
898.677795,330
898.794312,313
898.910645,320
899.026978,320
899.143433,306
899.259766,317
899.37616,313
899.492493,313
899.608765,326
899.725159,322
899.841553,319
899.957947,324
900.07428,312
900.190552,325
900.306946,306
900.423157,330
900.53949,328
900.655884,305
900.772156,318
900.888489,308
901.004822,317
901.121033,306
901.237366,325
901.353699,329
901.46991,322
901.586304,332
901.702515,308
901.818787,301
901.93512,321
902.051331,308
902.167603,324
902.283875,308
902.400085,319
902.516418,320
902.632629,315
902.74884,317
902.865112,324
902.981384,304
903.097595,313
903.213867,316
903.330017,319
903.446289,307
903.5625,313
903.67865,325
903.794922,331
903.911072,325
904.027344,309
904.143494,315
904.259705,319
904.375916,333
904.492065,319
904.608215,309
904.724426,320
904.840576,310
904.956726,319
905.072876,317
905.189087,320
905.305176,310
905.421387,328
905.537537,317
905.653687,304
905.769775,311
905.885925,322
906.002014,317
906.118164,320
906.234314,316
906.350403,309
906.466492,309
906.582642,314
906.69873,309
906.814758,320
906.930908,335
907.046936,331
907.163086,299
907.279175,316
907.395264,310
907.511353,316
907.62738,314
907.743408,321
907.859497,308
907.975525,314
908.091553,312
908.207703,323
908.32373,318
908.439758,319
908.555786,315
908.671814,312
908.787842,313
908.90387,315
909.019775,324
909.135864,313
909.251892,318
909.367859,300
909.483826,326
909.599854,316
909.715881,316
909.831848,321
909.947815,305
910.063782,314
910.179749,322
910.295776,322
910.411743,318
910.527649,310
910.643616,308
910.759583,331
910.875488,313
910.991455,316
911.107361,308
911.223267,320
911.339294,314
911.4552,320
911.571106,319
911.687073,316
911.802979,329
911.918823,311
912.034729,328
912.150635,307
912.266602,315
912.382446,324
912.498352,309
912.614197,315
912.730103,316
912.846008,333
