792.44574,364
792.56488,400
792.68396,457
792.80304,432
792.92218,361
793.041199,349
793.160339,364
793.279419,357
793.398499,367
793.517578,361
793.636658,348
793.755737,367
793.874817,388
793.993896,370
794.112976,347
794.232056,345
794.351074,342
794.470215,346
794.589233,350
794.708313,354
794.827393,345
794.946411,331
795.065552,358
795.18457,347
795.303589,355
795.422668,352
795.541687,349
795.660767,350
795.779846,344
795.898865,356
796.017883,343
796.136963,349
796.255981,354
796.375061,332
796.49408,355
796.613037,342
796.732117,336
796.851135,343
796.970154,334
797.089233,327
797.208191,345
797.327271,336
797.446228,346
797.565186,334
797.684265,327
797.803223,350
797.922241,323
798.04126,330
798.160278,330
798.279297,331
798.398315,338
798.517273,322
798.636292,329
798.75531,337
798.874268,346
798.993286,332
799.112244,336
799.231323,336
799.350281,341
799.469238,328
799.588257,323
799.707153,329
799.826111,317
799.945129,330
800.064087,337
800.183044,330
800.302063,341
800.421021,328
800.539978,327
800.658936,334
800.777893,341
800.896912,343
801.015747,334
801.134705,342
801.253723,328
801.37262,338
801.491638,329
801.610535,337
801.729492,335
801.84845,324
801.967407,330
802.086243,340
802.205261,327
802.324158,336
802.443115,336
802.562073,320
802.680969,339
802.799927,333
802.918762,340
803.037659,350
803.156677,332
803.275574,322
803.39447,332
803.513428,327
803.632263,333
803.751221,325
803.870117,332
803.989014,331
804.107971,333
804.226746,334
804.345642,323
804.4646,333
804.583496,333
804.702393,322
804.821228,331
804.940125,334
805.059021,325
805.177917,332
805.296814,334
805.415649,318
805.534546,343
805.653442,318
805.772278,329
805.891113,339
806.01001,328
806.128906,316
806.247742,319
806.366577,325
806.485413,332
806.604309,323
806.723145,327
806.84198,323
806.960876,324
807.079712,332
807.198486,316
807.317383,322
807.436218,319
807.554993,326
807.673889,322
807.792725,335
807.91156,324
808.030396,319
808.14917,349
808.268005,326
808.386841,331
808.505676,333
808.624451,329
808.743286,321
808.862122,334
808.980896,326
809.099731,327
809.218506,316
809.337341,317
809.456116,323
809.57489,327
809.693726,341
809.8125,323
809.931274,329
810.050049,328
810.168884,328
810.287659,339
810.406372,327
810.525269,324
810.643982,316
810.762756,320
810.881531,324
811.000305,322
811.11908,314
811.237854,325
811.356567,321
811.475403,324
811.594116,326
811.71283,322
811.831604,321
811.950378,323
812.069153,315
812.187927,326
812.30658,336
812.425415,321
812.544128,320
812.662781,351
812.781616,317
812.900269,340
813.019043,326
813.137756,332
813.256531,317
813.375244,325
813.493896,310
813.612671,313
813.731384,326
813.850037,325
813.96875,331
814.087524,322
814.206238,319
814.324951,328
814.443604,337
814.562256,327
814.68103,329
814.799683,321
814.918335,322
815.037109,316
815.155762,323
815.274475,317
815.393188,324
815.511841,322
815.630554,329
815.749146,313
815.867859,324
815.986572,323
816.105164,336
816.223877,312
816.342529,334
816.461182,326
816.579895,339
816.698486,332
816.817139,322
816.935791,331
817.054504,324
817.173096,339
817.291748,328
817.4104,326
817.529053,317
817.647644,324
817.766235,328
817.884949,329
818.00354,326
818.122192,334
818.240845,334
818.359436,322
818.478088,327
818.59668,322
818.715271,308
818.833923,321
818.952515,318
819.071106,329
819.189758,323
819.30835,319
819.426941,321
819.545532,328
819.664124,330
819.782715,331
819.901306,325
820.019897,332
820.138489,320
820.25708,323
820.375671,322
820.494202,335
820.612732,308
820.731384,317
820.849915,329
820.968506,325
821.087097,325
821.205627,324
821.324158,324
821.442749,326
821.561279,310
821.679871,306
821.798401,334
821.916931,316
822.035461,324
822.154053,321
822.272583,324
822.391174,319
822.509583,321
822.628174,322
822.746704,333
822.865234,308
822.983765,327
823.102295,318
823.220825,336
823.339294,327
823.457825,315
823.576355,342
823.694824,308
823.813354,326
823.931885,302
824.050354,315
824.168884,329
824.287354,331
824.405823,327
824.524353,321
824.642822,320
824.761353,309
824.879822,333
824.998291,333
825.116699,335
825.235291,318
825.353699,318
825.472168,321
825.590637,329
825.709106,324
825.827576,331
825.946045,317
826.064453,327
826.182983,320
826.301392,309
826.4198,334
826.53833,327
826.656738,315
826.775208,312
826.893677,324
827.012024,324
827.130493,315
827.248962,326
827.36731,312
827.485779,317
827.604248,307
827.722595,316
827.841064,320
827.959412,323
828.077942,336
828.196289,327
828.314636,315
828.433105,317
828.551514,321
828.669861,327
828.78833,327
828.906677,329
829.025085,307
829.143433,339
829.261841,320
829.38031,329
829.498657,310
829.617004,322
829.735413,315
829.85376,334
829.972107,316
830.090515,321
830.208862,325
830.327209,316
830.445557,325
830.563904,308
830.682312,311
830.800659,339
830.919006,318
831.037354,329
831.155701,317
831.274048,337
831.392395,319
831.51062,329
831.629028,323
831.747314,309
831.865662,328
831.984009,307
832.102356,324
832.220642,327
832.338928,317
832.457275,322
832.575623,316
832.693909,317
832.812134,308
832.930481,323
833.048828,320
833.167114,314
833.2854,329
833.403687,322
833.521973,319
833.640259,304
833.758545,313
833.876831,314
833.995056,320
834.113281,323
834.231628,327
834.349915,312
834.468201,328
834.586426,323
834.704651,308
834.822998,325
834.941162,325
835.059448,324
835.177673,320
835.295959,332
835.414246,304
835.53241,323
835.650635,306
835.768921,318
835.887146,316
836.005371,320
836.123596,321
836.241821,334
836.360046,307
836.478271,321
836.596497,317
836.714722,313
836.832886,326
836.95105,321
837.069336,313
837.1875,323
837.305725,317
837.423889,317
837.542053,315
837.660339,332
837.778503,323
837.896667,321
838.014832,326
838.132996,324
838.25116,322
838.369385,321
838.487488,309
838.605713,315
838.723877,322
838.84198,331
838.960205,316
839.078308,316
839.196472,319
839.314636,312
839.4328,324
839.550964,322
839.669067,331
839.787231,310
839.905396,307
840.023499,326
840.141602,335
840.259766,326
840.377869,324
840.495972,309
840.614136,309
840.732239,324
840.850342,319
840.968445,327
841.086548,321
841.204651,323
841.322754,323
841.440918,325
841.55896,328
841.677002,320
841.795166,333
841.913208,319
842.031311,325
842.149353,329
842.267456,316
842.385498,326
842.503601,321
842.621643,324
842.739746,310
842.857788,337
842.97583,328
843.093933,322
843.211975,328
843.330017,317
843.44812,323
843.566101,314
843.684204,321
843.802246,321
843.920227,318
844.038269,322
844.156311,318
844.274292,334
844.392395,324
844.510376,317
844.628357,317
844.74646,324
844.864441,320
844.982422,316
845.100403,327
845.218384,324
845.336426,321
845.454468,330
845.572449,329
845.69043,314
845.808411,326
845.926453,320
846.044373,327
846.162354,312
846.280396,313
846.398315,322
846.516296,324
846.634216,327
846.752197,311
846.870178,329
846.988098,320
847.106079,327
847.22406,323
847.34198,325
847.4599,320
847.577881,333
847.695801,324
847.813782,321
847.931641,321
848.049561,324
848.167603,319
848.285461,322
848.403381,316
848.521362,333
848.639221,312
848.75708,320
848.875,323
848.99292,315
849.110901,310
849.22876,344
849.34668,319
849.464539,311
849.582458,324
849.700317,322
849.818176,335
849.936096,324
850.053955,321
850.171875,327
850.289673,324
850.407593,324
850.525452,322
850.643311,308
850.761169,315
850.878967,317
850.996887,327
851.114746,334
851.232544,324
851.350403,321
851.468262,313
851.58606,339
851.703979,309
851.821777,324
851.939636,327
852.057434,315
852.175232,314
852.293091,324
852.410889,324
852.528687,326
852.646545,338
852.764343,329
852.88208,317
852.999939,320
853.117676,330
853.235535,309
853.353271,313
853.471069,323
853.588928,325
853.706604,336
853.824402,326
853.9422,332
854.059998,311
854.177734,321
854.295532,328
854.413269,330
854.531006,325
854.648804,328
854.766541,326
854.884277,315
855.002014,315
855.119751,313
855.237549,325
855.355225,336
855.473022,311
855.590698,323
855.708435,320
855.826172,332
855.943848,329
856.061646,316
856.179321,315
856.296997,320
856.414795,327
856.53241,315
856.650085,314
856.767822,334
856.885559,324
857.003174,327
857.120911,313
857.238586,326
857.356201,324
857.473938,317
857.591614,314
857.709351,314
857.826965,324
857.944641,313
858.062317,312
858.179993,323
858.297668,332
858.415283,322
858.532959,320
858.650574,315
858.768188,327
858.885803,326
859.003479,325
859.121094,329
859.23877,317
859.356384,326
859.473999,324
859.591675,311
859.709229,313
859.826843,334
859.944458,305
860.062012,315
860.179626,323
860.297302,317
860.414856,317
860.532471,338
860.650024,302
860.767639,319
860.885193,323
861.002808,312
861.120361,318
861.237976,309
861.35553,319
861.473022,319
861.590698,319
861.708191,326
861.825745,327
861.943298,329
862.060852,327
862.178406,324
862.295959,316
862.413513,324
862.531006,321
862.64856,329
862.766113,311
862.883667,339
863.00116,323
863.118713,318
863.236206,324
863.353699,331
863.471252,311
863.588745,338
863.706177,307
863.82373,321
863.941162,324
864.058716,330
864.176208,324
864.29364,318
864.411194,311
864.528687,321
864.646118,315
864.763611,329
864.881042,323
864.998535,312
865.116028,320
865.233459,326
865.350891,305
865.468384,308
865.585754,318
865.703308,320
865.820679,319
865.938171,313
866.055542,318
866.173035,327
866.290466,317
866.407837,330
866.52533,303
866.6427,329
866.760071,314
866.877563,314
866.994934,314
867.112305,319
867.229736,325
867.347107,315
867.464539,321
867.58197,323
867.699341,321
867.81665,326
867.934082,320
868.051453,317
868.168823,317
868.286194,314
868.403564,320
868.520935,316
868.638306,308
868.755676,318
868.872986,312
868.990295,320
869.107727,319
869.225037,331
869.342346,322
869.459717,325
869.577026,324
869.694336,322
869.811707,321
869.929016,330
870.046326,303
870.163635,326
870.280945,324
870.398254,333
870.515564,326
870.632812,319
870.750183,314
870.867432,313
870.984741,315
871.102051,324
871.219299,317
871.336609,326
871.453918,317
871.571106,312
871.688416,317
871.805664,326
871.922852,324
872.040222,316
872.157471,317
872.274719,332
872.391968,323
872.509155,332
872.626465,309
872.743652,321
872.860962,323
872.978149,320
873.095337,325
873.212646,339
873.329834,320
873.44696,323
873.564209,313
873.681396,325
873.798645,318
873.915894,333
874.03302,312
874.150208,308
874.267456,327
874.384583,311
874.501831,327
874.618958,332
874.736145,316
874.853333,336
874.970459,334
875.087646,329
875.204834,327
875.32196,325
875.439148,327
875.556274,317
875.673401,333
875.790527,329
875.907715,305
876.024841,327
876.141968,319
876.259094,325
876.376282,322
876.493347,323
876.610474,326
876.7276,322
876.844727,333
876.961853,337
877.078918,319
877.195984,307
877.313171,312
877.430237,333
877.547302,321
877.664368,316
877.781433,325
877.898499,313
878.015625,326
878.13269,328
878.249695,317
878.366821,324
878.483887,312
878.600952,331
878.717957,310
878.834961,321
878.952087,313
879.069092,320
879.186157,316
879.303162,317
879.420227,320
879.537231,321
879.654236,327
879.77124,322
879.888306,321
880.005249,322
880.122314,312
880.239319,301
880.356323,320
880.473328,326
880.590271,319
880.707275,318
880.824341,317
880.941284,314
881.058228,314
881.175232,322
881.292236,307
881.40918,323
881.526123,310
881.643066,312
881.760071,323
881.877014,317
881.993958,319
882.11084,330
882.227783,314
882.344727,330
882.46167,330
882.578613,328
882.695618,315
882.812439,304
882.929382,307
883.046326,317
883.163208,305
883.280151,317
883.397034,319
883.513916,312
883.630798,311
883.747742,315
883.864563,308
883.981506,319
884.098389,317
884.21521,325
884.332153,321
884.448975,310
884.565796,316
884.682678,329
884.7995,315
884.916443,335
885.033264,319
885.150085,332
885.266968,333
885.383789,333
885.500671,329
885.617493,331
885.734314,322
885.851196,323
885.967896,324
886.084717,349
886.201599,328
886.318359,324
886.435181,324
886.552002,336
886.668762,330
886.785645,336
886.902344,312
887.019165,323
887.135925,325
887.252747,323
887.369446,330
887.486267,319
887.603027,311
887.719788,330
887.836548,325
887.953247,333
888.070068,317
888.186829,331
888.303528,308
888.420288,323
888.536987,325
888.653687,321
888.770447,318
888.887146,326
889.003967,322
889.120667,324
889.237305,311
889.354065,314
889.470703,329
889.587463,318
889.704163,314
889.820862,331
889.937561,328
890.054199,321
890.170837,308
890.287598,310
890.404236,318
890.520874,322
890.637634,327
890.754211,328
890.87085,318
890.987549,332
891.104187,327
891.220886,326
891.337463,313
891.454102,320
891.57074,328
891.687378,308
891.804077,339
891.920654,320
892.037231,304
892.15387,318
892.270447,309
892.387085,332
892.503723,313
892.6203,320
892.736877,332
892.853516,311
892.970032,308
893.08667,325
893.203186,306
893.319763,310
893.43634,310
893.552917,321
893.669556,314
893.786011,322
893.902588,317
894.019165,322
894.135681,320
894.252197,324
894.368835,315
894.485291,322
894.601868,310
894.718384,319
894.8349,312
894.951355,328
895.067932,300
895.184448,326
895.300964,326
895.417419,325
895.533936,315
895.650452,326
895.766907,317
895.883423,321
895.999878,326
896.116333,311
896.232849,333
896.349304,326
896.465759,315
896.582214,309
896.698669,302
896.815125,320
896.931641,313
897.048035,315
897.164551,323
897.280884,316
897.397339,303
897.513794,302
897.630249,306
897.746582,313
897.863098,313
897.979431,330
898.095886,322
898.212341,328
898.328674,322
898.445129,321
898.561462,322
898.677795,325
898.794312,320
898.910645,317
899.026978,324
899.143433,326
899.259766,323
899.37616,314
899.492493,307
899.608765,315
899.725159,318
899.841553,319
899.957947,315
900.07428,321
900.190552,316
900.306946,312
900.423157,313
900.53949,317
900.655884,300
900.772156,321
900.888489,309
901.004822,309
901.121033,325
901.237366,302
901.353699,319
901.46991,322
901.586304,315
901.702515,309
901.818787,305
901.93512,330
902.051331,324
902.167603,321
902.283875,320
902.400085,316
902.516418,316
902.632629,314
902.74884,319
902.865112,332
902.981384,325
903.097595,332
903.213867,333
903.330017,314
903.446289,318
903.5625,324
903.67865,328
903.794922,312
903.911072,299
904.027344,335
904.143494,315
904.259705,321
904.375916,328
904.492065,312
904.608215,324
904.724426,312
904.840576,311
904.956726,329
905.072876,310
905.189087,323
905.305176,311
905.421387,315
905.537537,308
905.653687,318
905.769775,316
905.885925,307
906.002014,310
906.118164,322
906.234314,311
906.350403,320
906.466492,319
906.582642,323
906.69873,316
906.814758,315
906.930908,317
907.046936,315
907.163086,308
907.279175,322
907.395264,309
907.511353,341
907.62738,314
907.743408,318
907.859497,306
907.975525,326
908.091553,313
908.207703,324
908.32373,306
908.439758,310
908.555786,313
908.671814,329
908.787842,311
908.90387,321
909.019775,314
909.135864,314
909.251892,327
909.367859,312
909.483826,310
909.599854,318
909.715881,315
909.831848,320
909.947815,307
910.063782,311
910.179749,320
910.295776,300
910.411743,322
910.527649,328
910.643616,326
910.759583,321
910.875488,316
910.991455,314
911.107361,299
911.223267,327
911.339294,327
911.4552,333
911.571106,319
911.687073,316
911.802979,316
911.918823,322
912.034729,306
912.150635,327
912.266602,317
912.382446,320
912.498352,305
912.614197,319
912.730103,322
912.846008,329
792.44574,369
792.56488,382
792.68396,443
792.80304,410
792.92218,380
793.041199,356
793.160339,360
793.279419,375
793.398499,376
793.517578,348
793.636658,355
793.755737,359
793.874817,379
793.993896,371
794.112976,355
794.232056,345
794.351074,323
794.470215,363
794.589233,359
794.708313,346
794.827393,345
794.946411,360
795.065552,371
795.18457,359
795.303589,351
795.422668,348
795.541687,352
795.660767,352
795.779846,354
795.898865,330
796.017883,350
796.136963,351
796.255981,333
796.375061,356
796.49408,345
796.613037,348
796.732117,353
796.851135,345
796.970154,338
797.089233,339
797.208191,340
797.327271,345
797.446228,323
797.565186,331
797.684265,352
797.803223,345
797.922241,332
798.04126,329
798.160278,339
798.279297,319
798.398315,348
798.517273,329
798.636292,328
798.75531,327
798.874268,333
798.993286,332
799.112244,336
799.231323,338
799.350281,334
799.469238,341
799.588257,341
799.707153,340
799.826111,326
799.945129,342
800.064087,323
800.183044,342
800.302063,329
800.421021,337
800.539978,325
800.658936,341
800.777893,339
800.896912,333
801.015747,334
801.134705,328
801.253723,318
801.37262,341
801.491638,327
801.610535,342
801.729492,324
801.84845,320
801.967407,326
802.086243,332
802.205261,326
802.324158,335
802.443115,328
802.562073,337
802.680969,342
802.799927,335
802.918762,338
803.037659,332
803.156677,334
803.275574,318
803.39447,344
803.513428,331
803.632263,332
803.751221,338
803.870117,322
803.989014,333
804.107971,319
804.226746,329
804.345642,325
804.4646,328
804.583496,340
804.702393,326
804.821228,318
804.940125,333
805.059021,328
805.177917,309
805.296814,334
805.415649,331
805.534546,348
805.653442,312
805.772278,328
805.891113,319
806.01001,330
806.128906,332
806.247742,324
806.366577,338
806.485413,320
806.604309,333
806.723145,323
806.84198,333
806.960876,334
807.079712,323
807.198486,317
807.317383,325
807.436218,328
807.554993,322
807.673889,338
807.792725,338
807.91156,337
808.030396,335
808.14917,337
808.268005,310
808.386841,316
808.505676,332
808.624451,321
808.743286,336
808.862122,334
808.980896,315
809.099731,333
809.218506,328
809.337341,328
809.456116,325
809.57489,312
809.693726,334
809.8125,331
809.931274,322
810.050049,339
810.168884,322
810.287659,339
810.406372,317
810.525269,329
810.643982,330
810.762756,313
810.881531,327
811.000305,322
811.11908,321
811.237854,319
811.356567,337
811.475403,331
811.594116,333
811.71283,331
811.831604,330
811.950378,329
812.069153,324
812.187927,335
812.30658,332
812.425415,327
812.544128,327
812.662781,323
812.781616,335
812.900269,324
813.019043,319
813.137756,330
813.256531,323
813.375244,327
813.493896,322
813.612671,324
813.731384,305
813.850037,324
813.96875,319
814.087524,329
814.206238,333
814.324951,311
814.443604,331
814.562256,323
814.68103,326
814.799683,329
814.918335,313
815.037109,335
815.155762,320
815.274475,314
815.393188,312
815.511841,319
815.630554,314
815.749146,327
815.867859,318
815.986572,321
816.105164,314
816.223877,322
816.342529,315
816.461182,330
816.579895,329
816.698486,312
816.817139,330
816.935791,332
817.054504,321
817.173096,342
817.291748,323
817.4104,327
817.529053,320
817.647644,314
817.766235,319
817.884949,330
818.00354,314
818.122192,333
818.240845,318
818.359436,331
818.478088,313
818.59668,328
818.715271,327
818.833923,333
818.952515,308
819.071106,306
819.189758,322
819.30835,318
819.426941,318
819.545532,327
819.664124,320
819.782715,312
819.901306,317
820.019897,319
820.138489,339
820.25708,309
820.375671,323
820.494202,317
820.612732,332
820.731384,329
820.849915,320
820.968506,335
821.087097,322
821.205627,316
821.324158,316
821.442749,334
821.561279,307
821.679871,320
821.798401,318
821.916931,326
822.035461,303
822.154053,318
822.272583,315
822.391174,320
822.509583,321
822.628174,329
822.746704,317
822.865234,331
822.983765,322
823.102295,330
823.220825,319
823.339294,320
823.457825,318
823.576355,327
823.694824,323
823.813354,328
823.931885,318
824.050354,316
824.168884,321
824.287354,327
824.405823,311
824.524353,322
824.642822,324
824.761353,335
824.879822,316
824.998291,320
825.116699,324
825.235291,314
825.353699,322
825.472168,329
825.590637,322
825.709106,321
825.827576,316
825.946045,314
826.064453,333
826.182983,322
826.301392,319
826.4198,315
826.53833,317
826.656738,318
826.775208,319
826.893677,322
827.012024,321
827.130493,323
827.248962,316
827.36731,322
827.485779,324
827.604248,332
827.722595,316
827.841064,330
827.959412,318
828.077942,333
828.196289,327
828.314636,319
828.433105,330
828.551514,332
828.669861,316
828.78833,317
828.906677,308
829.025085,322
829.143433,319
829.261841,317
829.38031,303
829.498657,332
829.617004,315
829.735413,312
829.85376,329
829.972107,331
830.090515,307
830.208862,322
830.327209,312
830.445557,321
830.563904,315
830.682312,330
830.800659,313
830.919006,322
831.037354,338
831.155701,317
831.274048,327
831.392395,327
831.51062,313
831.629028,318
831.747314,314
831.865662,319
831.984009,326
832.102356,328
832.220642,306
832.338928,320
832.457275,318
832.575623,321
832.693909,319
832.812134,322
832.930481,322
833.048828,330
833.167114,317
833.2854,333
833.403687,313
833.521973,318
833.640259,315
833.758545,327
833.876831,309
833.995056,333
834.113281,311
834.231628,335
834.349915,307
834.468201,314
834.586426,338
834.704651,331
834.822998,313
834.941162,319
835.059448,312
835.177673,323
835.295959,323
835.414246,320
835.53241,309
835.650635,304
835.768921,305
835.887146,306
836.005371,317
836.123596,332
836.241821,319
836.360046,310
836.478271,325
836.596497,308
836.714722,325
836.832886,323
836.95105,317
837.069336,310
837.1875,334
837.305725,313
837.423889,312
837.542053,332
837.660339,319
837.778503,318
837.896667,313
838.014832,331
838.132996,313
838.25116,330
838.369385,324
838.487488,319
838.605713,303
838.723877,318
838.84198,322
838.960205,308
839.078308,322
839.196472,308
839.314636,324
839.4328,322
839.550964,328
839.669067,316
839.787231,317
839.905396,337
840.023499,329
840.141602,331
840.259766,318
840.377869,311
840.495972,333
840.614136,315
840.732239,317
840.850342,321
840.968445,321
841.086548,320
841.204651,316
841.322754,340
841.440918,327
841.55896,324
841.677002,336
841.795166,326
841.913208,324
842.031311,337
842.149353,327
842.267456,326
842.385498,339
842.503601,325
842.621643,329
842.739746,329
842.857788,318
842.97583,318
843.093933,331
843.211975,335
843.330017,320
843.44812,340
843.566101,318
843.684204,314
843.802246,324
843.920227,330
844.038269,327
844.156311,328
844.274292,313
844.392395,324
844.510376,324
844.628357,333
844.74646,324
844.864441,327
844.982422,327
845.100403,334
845.218384,318
845.336426,326
845.454468,319
845.572449,328
845.69043,330
845.808411,324
845.926453,326
846.044373,324
846.162354,329
846.280396,311
846.398315,326
846.516296,328
846.634216,319
846.752197,314
846.870178,315
846.988098,331
847.106079,327
847.22406,320
847.34198,336
847.4599,321
847.577881,317
847.695801,319
847.813782,317
847.931641,318
848.049561,320
848.167603,329
848.285461,314
848.403381,316
848.521362,322
848.639221,319
848.75708,318
848.875,328
848.99292,326
849.110901,329
849.22876,313
849.34668,320
849.464539,321
849.582458,327
849.700317,318
849.818176,320
849.936096,337
850.053955,327
850.171875,313
850.289673,314
850.407593,319
850.525452,325
850.643311,323
850.761169,338
850.878967,322
850.996887,326
851.114746,332
851.232544,333
851.350403,306
851.468262,320
851.58606,318
851.703979,323
851.821777,318
851.939636,334
852.057434,312
852.175232,338
852.293091,335
852.410889,317
852.528687,338
852.646545,330
852.764343,328
852.88208,319
852.999939,325
853.117676,321
853.235535,321
853.353271,331
853.471069,326
853.588928,336
853.706604,318
853.824402,328
853.9422,317
854.059998,331
854.177734,334
854.295532,329
854.413269,321
854.531006,323
854.648804,323
854.766541,320
854.884277,325
855.002014,333
855.119751,315
855.237549,324
855.355225,319
855.473022,320
855.590698,310
855.708435,320
855.826172,324
855.943848,318
856.061646,316
856.179321,328
856.296997,312
856.414795,333
856.53241,316
856.650085,316
856.767822,332
856.885559,333
857.003174,320
857.120911,325
857.238586,332
857.356201,322
857.473938,314
857.591614,320
857.709351,314
857.826965,322
857.944641,329
858.062317,334
858.179993,330
858.297668,331
858.415283,336
858.532959,332
858.650574,316
858.768188,344
858.885803,312
859.003479,319
859.121094,316
859.23877,323
859.356384,316
859.473999,337
859.591675,321
859.709229,318
859.826843,317
859.944458,331
860.062012,317
860.179626,333
860.297302,324
860.414856,331
860.532471,340
860.650024,335
860.767639,316
860.885193,303
861.002808,327
861.120361,334
861.237976,316
861.35553,317
861.473022,308
861.590698,315
861.708191,315
861.825745,319
861.943298,331
862.060852,332
862.178406,312
862.295959,315
862.413513,325
862.531006,329
862.64856,326
862.766113,323
862.883667,338
863.00116,328
863.118713,322
863.236206,324
863.353699,324
863.471252,332
863.588745,315
863.706177,310
863.82373,323
863.941162,323
864.058716,310
864.176208,324
864.29364,314
864.411194,316
864.528687,305
864.646118,330
864.763611,325
864.881042,323
864.998535,309
865.116028,325
865.233459,316
865.350891,311
865.468384,319
865.585754,321
865.703308,312
865.820679,319
865.938171,318
866.055542,309
866.173035,324
866.290466,335
866.407837,309
866.52533,326
866.6427,309
866.760071,317
866.877563,321
866.994934,330
867.112305,313
867.229736,321
867.347107,323
867.464539,330
867.58197,318
867.699341,327
867.81665,315
867.934082,319
868.051453,304
868.168823,337
868.286194,314
868.403564,337
868.520935,310
868.638306,323
868.755676,318
868.872986,324
868.990295,329
869.107727,323
869.225037,319
869.342346,321
869.459717,314
869.577026,332
869.694336,318
869.811707,338
869.929016,322
870.046326,316
870.163635,318
870.280945,323
870.398254,329
870.515564,327
870.632812,307
870.750183,337
870.867432,326
870.984741,331
871.102051,322
871.219299,336
871.336609,337
871.453918,339
871.571106,327
871.688416,327
871.805664,313
871.922852,331
872.040222,323
872.157471,341
872.274719,314
872.391968,319
872.509155,326
872.626465,326
872.743652,311
872.860962,328
872.978149,309
873.095337,323
873.212646,333
873.329834,320
873.44696,327
873.564209,318
873.681396,317
873.798645,325
873.915894,323
874.03302,335
874.150208,322
874.267456,315
874.384583,317
874.501831,329
874.618958,320
874.736145,324
874.853333,317
874.970459,335
875.087646,313
875.204834,329
875.32196,332
875.439148,313
875.556274,322
875.673401,319
875.790527,318
875.907715,324
876.024841,321
876.141968,316
876.259094,325
876.376282,330
876.493347,301
876.610474,336
876.7276,318
876.844727,331
876.961853,324
877.078918,337
877.195984,320
877.313171,315
877.430237,315
877.547302,334
877.664368,304
877.781433,324
877.898499,318
878.015625,322
878.13269,316
878.249695,334
878.366821,322
878.483887,316
878.600952,309
878.717957,325
878.834961,319
878.952087,336
879.069092,316
879.186157,320
879.303162,316
879.420227,318
879.537231,327
879.654236,299
879.77124,327
879.888306,314
880.005249,322
880.122314,327
880.239319,329
880.356323,321
880.473328,331
880.590271,302
880.707275,313
880.824341,328
880.941284,310
881.058228,318
881.175232,317
881.292236,321
881.40918,316
881.526123,325
881.643066,326
881.760071,329
881.877014,316
881.993958,333
882.11084,320
882.227783,329
882.344727,308
882.46167,328
882.578613,318
882.695618,324
882.812439,328
882.929382,327
883.046326,316
883.163208,330
883.280151,312
883.397034,322
883.513916,324
883.630798,324
883.747742,313
883.864563,318
883.981506,321
884.098389,314
884.21521,317
884.332153,330
884.448975,318
884.565796,323
884.682678,323
884.7995,328
884.916443,317
885.033264,316
885.150085,340
885.266968,332
885.383789,334
885.500671,338
885.617493,327
885.734314,329
885.851196,334
885.967896,334
886.084717,340
886.201599,325
886.318359,326
886.435181,342
886.552002,330
886.668762,335
886.785645,332
886.902344,328
887.019165,323
887.135925,326
887.252747,319
887.369446,335
887.486267,318
887.603027,321
887.719788,319
887.836548,327
887.953247,322
888.070068,322
888.186829,326
888.303528,323
888.420288,326
888.536987,327
888.653687,313
888.770447,320
888.887146,319
889.003967,327
889.120667,306
889.237305,334
889.354065,306
889.470703,327
889.587463,323
889.704163,319
889.820862,319
889.937561,327
890.054199,304
890.170837,329
890.287598,308
890.404236,333
890.520874,310
890.637634,306
890.754211,312
890.87085,324
890.987549,320
891.104187,320
891.220886,312
891.337463,326
891.454102,319
891.57074,337
891.687378,313
891.804077,318
891.920654,316
892.037231,321
892.15387,319
892.270447,317
892.387085,325
892.503723,325
892.6203,317
892.736877,327
892.853516,314
892.970032,330
893.08667,318
893.203186,333
893.319763,324
893.43634,313
893.552917,322
893.669556,314
893.786011,314
893.902588,326
894.019165,321
894.135681,321
894.252197,315
894.368835,316
894.485291,323
894.601868,319
894.718384,317
894.8349,314
894.951355,310
895.067932,325
895.184448,308
895.300964,328
895.417419,319
895.533936,315
895.650452,306
895.766907,313
895.883423,313
895.999878,315
896.116333,314
896.232849,319
896.349304,316
896.465759,329
896.582214,319
896.698669,314
896.815125,314
896.931641,317
897.048035,310
897.164551,307
897.280884,314
897.397339,320
897.513794,304
897.630249,322
897.746582,322
897.863098,311
897.979431,330
898.095886,324
898.212341,331
898.328674,313
898.445129,313
898.561462,323
898.677795,314
898.794312,319
898.910645,322
899.026978,326
899.143433,319
899.259766,309
899.37616,314
899.492493,326
899.608765,309
899.725159,332
899.841553,303
899.957947,325
900.07428,324
900.190552,325
900.306946,307
900.423157,325
900.53949,325
900.655884,318
900.772156,299
900.888489,333
901.004822,315
901.121033,333
901.237366,314
901.353699,320
901.46991,330
901.586304,327
901.702515,308
901.818787,337
901.93512,325
902.051331,321
902.167603,318
902.283875,334
902.400085,329
902.516418,318
902.632629,327
902.74884,336
902.865112,322
902.981384,333
903.097595,324
903.213867,331
903.330017,321
903.446289,318
903.5625,323
903.67865,317
903.794922,332
903.911072,324
904.027344,315
904.143494,315
904.259705,299
904.375916,336
904.492065,321
904.608215,333
904.724426,309
904.840576,327
904.956726,336
905.072876,329
905.189087,307
905.305176,324
905.421387,314
905.537537,329
905.653687,318
905.769775,313
905.885925,325
906.002014,326
906.118164,324
906.234314,330
906.350403,309
906.466492,319
906.582642,326
906.69873,315
906.814758,319
906.930908,328
907.046936,336
907.163086,335
907.279175,314
907.395264,329
907.511353,326
907.62738,314
907.743408,319
907.859497,320
907.975525,307
908.091553,322
908.207703,318
908.32373,321
908.439758,308
908.555786,313
908.671814,320
908.787842,316
908.90387,317
909.019775,329
909.135864,320
909.251892,311
909.367859,319
909.483826,332
909.599854,323
909.715881,324
909.831848,309
909.947815,315
910.063782,315
910.179749,328
910.295776,318
910.411743,324
910.527649,318
910.643616,321
910.759583,326
910.875488,311
910.991455,330
911.107361,319
911.223267,322
911.339294,311
911.4552,308
911.571106,323
911.687073,316
911.802979,329
911.918823,313
912.034729,316
912.150635,319
912.266602,333
912.382446,304
912.498352,316
912.614197,310
912.730103,319
912.846008,314
792.44574,364
792.56488,379
792.68396,441
792.80304,432
792.92218,366
793.041199,358
793.160339,345
793.279419,374
793.398499,373
793.517578,335
793.636658,340
793.755737,358
793.874817,376
793.993896,369
794.112976,347
794.232056,343
794.351074,349
794.470215,360
794.589233,353
794.708313,347
794.827393,342
794.946411,347
795.065552,370
795.18457,358
795.303589,352
795.422668,342
795.541687,344
795.660767,351
795.779846,357
795.898865,347
796.017883,348
796.136963,344
796.255981,336
796.375061,343
796.49408,351
796.613037,335
796.732117,359
796.851135,327
796.970154,343
797.089233,339
797.208191,335
797.327271,322
797.446228,344
797.565186,343
797.684265,355
797.803223,339
797.922241,342
798.04126,322
798.160278,353
798.279297,331
798.398315,324
798.517273,342
798.636292,325
798.75531,342
798.874268,328
798.993286,322
799.112244,323
799.231323,336
799.350281,334
799.469238,333
799.588257,320
799.707153,334
799.826111,326
799.945129,330
800.064087,332
800.183044,324
800.302063,335
800.421021,336
800.539978,325
800.658936,332
800.777893,339
800.896912,323
801.015747,345
801.134705,339
801.253723,328
801.37262,331
801.491638,327
801.610535,318
801.729492,333
801.84845,335
801.967407,338
802.086243,335
802.205261,331
802.324158,338
802.443115,315
802.562073,341
802.680969,323
802.799927,313
802.918762,341
803.037659,323
803.156677,324
803.275574,334
803.39447,330
803.513428,335
803.632263,330
803.751221,327
803.870117,331
803.989014,329
804.107971,329
804.226746,323
804.345642,324
804.4646,314
804.583496,330
804.702393,309
804.821228,338
804.940125,328
805.059021,341
805.177917,324
805.296814,327
805.415649,326
805.534546,326
805.653442,325
805.772278,313
805.891113,322
806.01001,331
806.128906,329
806.247742,320
806.366577,311
806.485413,336
806.604309,328
806.723145,332
806.84198,325
806.960876,330
807.079712,331
807.198486,328
807.317383,326
807.436218,324
807.554993,330
807.673889,313
807.792725,333
807.91156,312
808.030396,328
808.14917,319
808.268005,328
808.386841,319
808.505676,312
808.624451,323
808.743286,327
808.862122,324
808.980896,316
809.099731,339
809.218506,317
809.337341,319
809.456116,331
809.57489,330
809.693726,320
809.8125,321
809.931274,315
810.050049,315
810.168884,327
810.287659,322
810.406372,336
810.525269,328
810.643982,322
810.762756,328
810.881531,321
811.000305,318
811.11908,324
811.237854,323
811.356567,319
811.475403,327
811.594116,318
811.71283,325
811.831604,326
811.950378,317
812.069153,323
812.187927,322
812.30658,330
812.425415,329
812.544128,339
812.662781,331
812.781616,319
812.900269,331
813.019043,327
813.137756,321
813.256531,332
813.375244,321
813.493896,328
813.612671,336
813.731384,324
813.850037,326
813.96875,326
814.087524,305
814.206238,318
814.324951,331
814.443604,324
814.562256,323
814.68103,325
814.799683,317
814.918335,326
815.037109,334
815.155762,319
815.274475,326
815.393188,327
815.511841,317
815.630554,311
815.749146,310
815.867859,322
815.986572,311
816.105164,336
816.223877,318
816.342529,315
816.461182,320
816.579895,322
816.698486,320
816.817139,314
816.935791,341
817.054504,317
817.173096,335
817.291748,330
817.4104,318
817.529053,320
817.647644,319
817.766235,323
817.884949,316
818.00354,336
818.122192,315
818.240845,314
818.359436,320
818.478088,332
818.59668,319
818.715271,329
818.833923,326
818.952515,323
819.071106,335
819.189758,306
819.30835,317
819.426941,326
819.545532,324
819.664124,324
819.782715,331
819.901306,321
820.019897,318
820.138489,314
820.25708,330
820.375671,313
820.494202,327
820.612732,312
820.731384,318
820.849915,328
820.968506,309
821.087097,325
821.205627,308
821.324158,329
821.442749,322
821.561279,315
821.679871,321
821.798401,329
821.916931,326
822.035461,315
822.154053,336
822.272583,315
822.391174,325
822.509583,324
822.628174,328
822.746704,316
822.865234,316
822.983765,312
823.102295,316
823.220825,328
823.339294,309
823.457825,312
823.576355,316
823.694824,311
823.813354,312
823.931885,322
824.050354,314
824.168884,325
824.287354,329
824.405823,334
824.524353,322
824.642822,320
824.761353,328
824.879822,319
824.998291,321
825.116699,316
825.235291,313
825.353699,319
825.472168,318
825.590637,330
825.709106,312
825.827576,316
825.946045,321
826.064453,318
826.182983,319
826.301392,324
826.4198,318
826.53833,321
826.656738,328
826.775208,309
826.893677,325
827.012024,331
827.130493,318
827.248962,318
827.36731,319
827.485779,315
827.604248,326
827.722595,304
827.841064,325
827.959412,320
828.077942,315
828.196289,316
828.314636,319
828.433105,328
828.551514,323
828.669861,316
828.78833,327
828.906677,313
829.025085,326
829.143433,297
829.261841,321
829.38031,307
829.498657,329
829.617004,330
829.735413,315
829.85376,319
829.972107,319
830.090515,326
830.208862,320
830.327209,305
830.445557,306
830.563904,317
830.682312,312
830.800659,318
830.919006,322
831.037354,316
831.155701,328
831.274048,316
831.392395,326
831.51062,327
831.629028,317
831.747314,318
831.865662,320
831.984009,325
832.102356,322
832.220642,325
832.338928,309
832.457275,323
832.575623,308
832.693909,318
832.812134,316
832.930481,302
833.048828,329
833.167114,319
833.2854,316
833.403687,314
833.521973,304
833.640259,316
833.758545,313
833.876831,304
833.995056,324
834.113281,322
834.231628,320
834.349915,316
834.468201,310
834.586426,319
834.704651,329
834.822998,311
834.941162,325
835.059448,313
835.177673,326
835.295959,309
835.414246,314
835.53241,306
835.650635,318
835.768921,321
835.887146,300
836.005371,318
836.123596,318
836.241821,308
836.360046,326
836.478271,312
836.596497,329
836.714722,315
836.832886,324
836.95105,302
837.069336,333
837.1875,325
837.305725,325
837.423889,309
837.542053,318
837.660339,326
837.778503,323
837.896667,324
838.014832,322
838.132996,321
838.25116,322
838.369385,319
838.487488,329
838.605713,316
838.723877,322
838.84198,322
838.960205,319
839.078308,316
839.196472,312
839.314636,319
839.4328,315
839.550964,318
839.669067,321
839.787231,331
839.905396,319
840.023499,318
840.141602,325
840.259766,333
840.377869,323
840.495972,323
840.614136,327
840.732239,316
840.850342,336
840.968445,308
841.086548,332
841.204651,318
841.322754,327
841.440918,324
841.55896,326
841.677002,328
841.795166,327
841.913208,329
842.031311,326
842.149353,321
842.267456,315
842.385498,314
842.503601,328
842.621643,310
842.739746,323
842.857788,318
842.97583,323
843.093933,304
843.211975,333
843.330017,322
843.44812,329
843.566101,317
843.684204,325
843.802246,319
843.920227,323
844.038269,325
844.156311,326
844.274292,320
844.392395,317
844.510376,313
844.628357,329
844.74646,331
844.864441,333
844.982422,321
845.100403,325
845.218384,315
845.336426,329
845.454468,312
845.572449,332
845.69043,317
845.808411,306
845.926453,322
846.044373,318
846.162354,317
846.280396,334
846.398315,332
846.516296,329
846.634216,309
846.752197,332
846.870178,322
846.988098,319
847.106079,313
847.22406,319
847.34198,331
847.4599,320
847.577881,319
847.695801,317
847.813782,326
847.931641,324
848.049561,325
848.167603,319
848.285461,315
848.403381,338
848.521362,311
848.639221,328
848.75708,320
848.875,326
848.99292,307
849.110901,319
849.22876,325
849.34668,323
849.464539,324
849.582458,317
849.700317,315
849.818176,326
849.936096,308
850.053955,334
850.171875,326
850.289673,318
850.407593,331
850.525452,311
850.643311,309
850.761169,328
850.878967,306
850.996887,317
851.114746,312
851.232544,334
851.350403,316
851.468262,332
851.58606,312
851.703979,328
851.821777,326
851.939636,322
852.057434,307
852.175232,329
852.293091,329
852.410889,341
852.528687,321
852.646545,321
852.764343,321
852.88208,322
852.999939,318
853.117676,326
853.235535,311
853.353271,322
853.471069,311
853.588928,322
853.706604,303
853.824402,322
853.9422,318
854.059998,324
854.177734,312
854.295532,312
854.413269,322
854.531006,316
854.648804,327
854.766541,330
854.884277,329
855.002014,315
855.119751,322
855.237549,320
855.355225,316
855.473022,317
855.590698,329
855.708435,320
855.826172,330
855.943848,319
856.061646,319
856.179321,332
856.296997,322
856.414795,326
856.53241,319
856.650085,342
856.767822,326
856.885559,330
857.003174,319
857.120911,333
857.238586,315
857.356201,341
857.473938,309
857.591614,323
857.709351,305
857.826965,325
857.944641,318
858.062317,328
858.179993,313
858.297668,329
858.415283,312
858.532959,320
858.650574,310
858.768188,318
858.885803,339
859.003479,329
859.121094,327
859.23877,322
859.356384,318
859.473999,329
859.591675,316
859.709229,323
859.826843,320
859.944458,306
860.062012,322
860.179626,311
860.297302,332
860.414856,325
860.532471,312
860.650024,332
860.767639,312
860.885193,320
861.002808,323
861.120361,321
861.237976,323
861.35553,320
861.473022,338
861.590698,321
861.708191,303
861.825745,323
861.943298,315
862.060852,318
862.178406,330
862.295959,319
862.413513,309
862.531006,320
862.64856,316
862.766113,318
862.883667,319
863.00116,326
863.118713,331
863.236206,329
863.353699,328
863.471252,318
863.588745,325
863.706177,318
863.82373,323
863.941162,325
864.058716,319
864.176208,318
864.29364,320
864.411194,326
864.528687,315
864.646118,313
864.763611,320
864.881042,328
864.998535,319
865.116028,323
865.233459,319
865.350891,309
865.468384,314
865.585754,326
865.703308,314
865.820679,323
865.938171,312
866.055542,317
866.173035,329
866.290466,334
866.407837,313
866.52533,308
866.6427,316
866.760071,321
866.877563,311
866.994934,320
867.112305,323
867.229736,316
867.347107,312
867.464539,318
867.58197,311
867.699341,327
867.81665,320
867.934082,321
868.051453,337
868.168823,332
868.286194,325
868.403564,322
868.520935,328
868.638306,327
868.755676,321
868.872986,320
868.990295,311
869.107727,316
869.225037,328
869.342346,320
869.459717,318
869.577026,327
869.694336,321
869.811707,325
869.929016,315
870.046326,317
870.163635,313
870.280945,332
870.398254,317
870.515564,324
870.632812,323
870.750183,331
870.867432,313
870.984741,327
871.102051,307
871.219299,319
871.336609,324
871.453918,332
871.571106,327
871.688416,326
871.805664,329
871.922852,311
872.040222,329
872.157471,327
872.274719,331
872.391968,317
872.509155,316
872.626465,327
872.743652,315
872.860962,330
872.978149,317
873.095337,321
873.212646,319
873.329834,330
873.44696,310
873.564209,317
873.681396,322
873.798645,330
873.915894,314
874.03302,329
874.150208,325
874.267456,323
874.384583,323
874.501831,326
874.618958,312
874.736145,336
874.853333,310
874.970459,332
875.087646,315
875.204834,329
875.32196,336
875.439148,332
875.556274,326
875.673401,329
875.790527,312
875.907715,324
876.024841,319
876.141968,320
876.259094,327
876.376282,327
876.493347,325
876.610474,332
876.7276,319
876.844727,325
876.961853,332
877.078918,319
877.195984,307
877.313171,323
877.430237,306
877.547302,329
877.664368,317
877.781433,315
877.898499,319
878.015625,320
878.13269,316
878.249695,334
878.366821,335
878.483887,322
878.600952,325
878.717957,325
878.834961,312
878.952087,324
879.069092,323
879.186157,343
879.303162,310
879.420227,322
879.537231,305
879.654236,318
879.77124,315
879.888306,317
880.005249,324
880.122314,310
880.239319,312
880.356323,324
880.473328,317
880.590271,306
880.707275,311
880.824341,324
880.941284,323
881.058228,319
881.175232,314
881.292236,324
881.40918,321
881.526123,307
881.643066,312
881.760071,319
881.877014,323
881.993958,322
882.11084,306
882.227783,317
882.344727,306
882.46167,316
882.578613,314
882.695618,320
882.812439,316
882.929382,325
883.046326,302
883.163208,322
883.280151,322
883.397034,327
883.513916,318
883.630798,310
883.747742,314
883.864563,308
883.981506,312
884.098389,330
884.21521,315
884.332153,334
884.448975,318
884.565796,324
884.682678,327
884.7995,334
884.916443,321
885.033264,331
885.150085,317
885.266968,334
885.383789,324
885.500671,334
885.617493,331
885.734314,342
885.851196,327
885.967896,330
886.084717,315
886.201599,327
886.318359,319
886.435181,327
886.552002,324
886.668762,331
886.785645,321
886.902344,336
887.019165,321
887.135925,326
887.252747,320
887.369446,333
887.486267,305
887.603027,326
887.719788,312
887.836548,313
887.953247,323
888.070068,330
888.186829,308
888.303528,318
888.420288,317
888.536987,329
888.653687,323
888.770447,328
888.887146,323
889.003967,325
889.120667,312
889.237305,311
889.354065,310
889.470703,309
889.587463,307
889.704163,320
889.820862,310
889.937561,311
890.054199,308
890.170837,314
890.287598,314
890.404236,310
890.520874,313
890.637634,316
890.754211,304
890.87085,329
890.987549,323
891.104187,322
891.220886,316
891.337463,318
891.454102,313
891.57074,307
891.687378,312
891.804077,324
891.920654,316
892.037231,322
892.15387,311
892.270447,313
892.387085,312
892.503723,325
892.6203,311
892.736877,323
892.853516,312
892.970032,323
893.08667,321
893.203186,334
893.319763,313
893.43634,321
893.552917,325
893.669556,316
893.786011,299
893.902588,308
894.019165,321
894.135681,307
894.252197,306
894.368835,315
894.485291,314
894.601868,317
894.718384,308
894.8349,308
894.951355,316
895.067932,315
895.184448,312
895.300964,318
895.417419,317
895.533936,333
895.650452,319
895.766907,326
895.883423,308
895.999878,315
896.116333,308
896.232849,312
896.349304,319
896.465759,308
896.582214,309
896.698669,323
896.815125,315
896.931641,324
897.048035,301
897.164551,319
897.280884,312
897.397339,316
897.513794,308
897.630249,321
897.746582,315
897.863098,324
897.979431,307
898.095886,318
898.212341,306
898.328674,325
898.445129,306
898.561462,318
898.677795,310
898.794312,301
898.910645,315
899.026978,317
899.143433,316
899.259766,314
899.37616,305
899.492493,335
899.608765,320
899.725159,315
899.841553,323
899.957947,337
900.07428,306
900.190552,326
900.306946,313
900.423157,321
900.53949,327
900.655884,331
900.772156,322
900.888489,310
901.004822,316
901.121033,326
901.237366,307
901.353699,337
901.46991,306
901.586304,314
901.702515,302
901.818787,323
901.93512,310
902.051331,323
902.167603,321
902.283875,325
902.400085,310
902.516418,327
902.632629,324
902.74884,325
902.865112,331
902.981384,321
903.097595,323
903.213867,328
903.330017,322
903.446289,321
903.5625,321
903.67865,317
903.794922,317
903.911072,317
904.027344,309
904.143494,331
904.259705,312
904.375916,319
904.492065,319
904.608215,327
904.724426,310
904.840576,317
904.956726,320
905.072876,334
905.189087,317
905.305176,320
905.421387,301
905.537537,311
905.653687,321
905.769775,330
905.885925,321
906.002014,320
906.118164,313
906.234314,324
906.350403,312
906.466492,312
906.582642,317
906.69873,315
906.814758,316
906.930908,312
907.046936,317
907.163086,312
907.279175,307
907.395264,316
907.511353,308
907.62738,326
907.743408,302
907.859497,315
907.975525,318
908.091553,307
908.207703,313
908.32373,309
908.439758,316
908.555786,316
908.671814,314
908.787842,316
908.90387,305
909.019775,319
909.135864,310
909.251892,335
909.367859,323
909.483826,318
909.599854,322
909.715881,330
909.831848,318
909.947815,316
910.063782,324
910.179749,313
910.295776,323
910.411743,323
910.527649,303
910.643616,319
910.759583,310
910.875488,318
910.991455,316
911.107361,326
911.223267,318
911.339294,324
911.4552,307
911.571106,323
911.687073,308
911.802979,319
911.918823,316
912.034729,313
912.150635,302
912.266602,322
912.382446,311
912.498352,312
912.614197,320
912.730103,325
912.846008,299
