792.44574,377
792.56488,401
792.68396,442
792.80304,428
792.92218,384
793.041199,362
793.160339,368
793.279419,369
793.398499,385
793.517578,357
793.636658,361
793.755737,374
793.874817,397
793.993896,372
794.112976,365
794.232056,355
794.351074,349
794.470215,337
794.589233,350
794.708313,351
794.827393,359
794.946411,338
795.065552,363
795.18457,365
795.303589,354
795.422668,353
795.541687,346
795.660767,341
795.779846,349
795.898865,339
796.017883,351
796.136963,343
796.255981,343
796.375061,347
796.49408,358
796.613037,345
796.732117,340
796.851135,348
796.970154,353
797.089233,337
797.208191,360
797.327271,335
797.446228,349
797.565186,330
797.684265,346
797.803223,347
797.922241,330
798.04126,340
798.160278,324
798.279297,332
798.398315,358
798.517273,323
798.636292,333
798.75531,343
798.874268,339
798.993286,320
799.112244,337
799.231323,342
799.350281,330
799.469238,338
799.588257,332
799.707153,343
799.826111,343
799.945129,331
800.064087,347
800.183044,334
800.302063,331
800.421021,342
800.539978,347
800.658936,333
800.777893,337
800.896912,324
801.015747,348
801.134705,333
801.253723,330
801.37262,320
801.491638,342
801.610535,339
801.729492,332
801.84845,334
801.967407,325
802.086243,346
802.205261,346
802.324158,328
802.443115,334
802.562073,323
802.680969,334
802.799927,349
802.918762,330
803.037659,327
803.156677,343
803.275574,329
803.39447,343
803.513428,330
803.632263,336
803.751221,352
803.870117,333
803.989014,332
804.107971,319
804.226746,325
804.345642,339
804.4646,329
804.583496,331
804.702393,337
804.821228,325
804.940125,338
805.059021,331
805.177917,327
805.296814,318
805.415649,325
805.534546,338
805.653442,340
805.772278,325
805.891113,342
806.01001,330
806.128906,344
806.247742,328
806.366577,330
806.485413,341
806.604309,329
806.723145,317
806.84198,322
806.960876,323
807.079712,348
807.198486,333
807.317383,331
807.436218,327
807.554993,334
807.673889,315
807.792725,324
807.91156,330
808.030396,322
808.14917,326
808.268005,319
808.386841,329
808.505676,336
808.624451,328
808.743286,327
808.862122,322
808.980896,335
809.099731,331
809.218506,341
809.337341,335
809.456116,324
809.57489,331
809.693726,328
809.8125,333
809.931274,322
810.050049,337
810.168884,318
810.287659,327
810.406372,340
810.525269,330
810.643982,319
810.762756,320
810.881531,327
811.000305,338
811.11908,329
811.237854,327
811.356567,324
811.475403,326
811.594116,332
811.71283,330
811.831604,332
811.950378,319
812.069153,330
812.187927,338
812.30658,333
812.425415,331
812.544128,318
812.662781,320
812.781616,323
812.900269,319
813.019043,321
813.137756,327
813.256531,327
813.375244,322
813.493896,336
813.612671,347
813.731384,328
813.850037,326
813.96875,332
814.087524,333
814.206238,326
814.324951,347
814.443604,332
814.562256,338
814.68103,321
814.799683,345
814.918335,323
815.037109,340
815.155762,328
815.274475,335
815.393188,310
815.511841,329
815.630554,334
815.749146,327
815.867859,312
815.986572,327
816.105164,324
816.223877,327
816.342529,333
816.461182,324
816.579895,326
816.698486,331
816.817139,329
816.935791,344
817.054504,319
817.173096,324
817.291748,329
817.4104,322
817.529053,326
817.647644,316
817.766235,319
817.884949,324
818.00354,333
818.122192,327
818.240845,318
818.359436,336
818.478088,322
818.59668,344
818.715271,316
818.833923,326
818.952515,306
819.071106,340
819.189758,322
819.30835,324
819.426941,332
819.545532,314
819.664124,319
819.782715,313
819.901306,319
820.019897,324
820.138489,301
820.25708,320
820.375671,310
820.494202,332
820.612732,315
820.731384,331
820.849915,316
820.968506,323
821.087097,323
821.205627,331
821.324158,328
821.442749,323
821.561279,334
821.679871,327
821.798401,325
821.916931,327
822.035461,315
822.154053,334
822.272583,331
822.391174,321
822.509583,320
822.628174,322
822.746704,314
822.865234,326
822.983765,307
823.102295,312
823.220825,319
823.339294,326
823.457825,323
823.576355,315
823.694824,315
823.813354,324
823.931885,324
824.050354,332
824.168884,318
824.287354,317
824.405823,315
824.524353,347
824.642822,312
824.761353,323
824.879822,312
824.998291,311
825.116699,329
825.235291,327
825.353699,321
825.472168,323
825.590637,316
825.709106,323
825.827576,321
825.946045,323
826.064453,309
826.182983,329
826.301392,316
826.4198,320
826.53833,330
826.656738,313
826.775208,320
826.893677,334
827.012024,318
827.130493,324
827.248962,304
827.36731,321
827.485779,315
827.604248,327
827.722595,314
827.841064,324
827.959412,321
828.077942,321
828.196289,324
828.314636,327
828.433105,327
828.551514,327
828.669861,321
828.78833,327
828.906677,313
829.025085,334
829.143433,323
829.261841,329
829.38031,320
829.498657,312
829.617004,324
829.735413,321
829.85376,325
829.972107,323
830.090515,311
830.208862,320
830.327209,307
830.445557,324
830.563904,320
830.682312,326
830.800659,319
830.919006,320
831.037354,324
831.155701,328
831.274048,318
831.392395,322
831.51062,311
831.629028,317
831.747314,318
831.865662,315
831.984009,326
832.102356,324
832.220642,315
832.338928,316
832.457275,318
832.575623,335
832.693909,315
832.812134,335
832.930481,323
833.048828,331
833.167114,321
833.2854,321
833.403687,305
833.521973,315
833.640259,318
833.758545,333
833.876831,318
833.995056,329
834.113281,322
834.231628,322
834.349915,324
834.468201,315
834.586426,320
834.704651,320
834.822998,324
834.941162,319
835.059448,309
835.177673,332
835.295959,314
835.414246,331
835.53241,316
835.650635,335
835.768921,310
835.887146,332
836.005371,324
836.123596,320
836.241821,322
836.360046,328
836.478271,319
836.596497,320
836.714722,314
836.832886,325
836.95105,307
837.069336,324
837.1875,328
837.305725,317
837.423889,325
837.542053,327
837.660339,318
837.778503,330
837.896667,322
838.014832,324
838.132996,320
838.25116,322
838.369385,318
838.487488,321
838.605713,311
838.723877,310
838.84198,324
838.960205,322
839.078308,327
839.196472,311
839.314636,334
839.4328,327
839.550964,315
839.669067,332
839.787231,328
839.905396,335
840.023499,321
840.141602,328
840.259766,321
840.377869,324
840.495972,328
840.614136,330
840.732239,311
840.850342,313
840.968445,318
841.086548,323
841.204651,325
841.322754,326
841.440918,325
841.55896,325
841.677002,326
841.795166,325
841.913208,318
842.031311,327
842.149353,313
842.267456,318
842.385498,332
842.503601,325
842.621643,326
842.739746,331
842.857788,322
842.97583,334
843.093933,330
843.211975,317
843.330017,325
843.44812,311
843.566101,324
843.684204,335
843.802246,332
843.920227,331
844.038269,319
844.156311,326
844.274292,325
844.392395,317
844.510376,319
844.628357,326
844.74646,314
844.864441,319
844.982422,333
845.100403,326
845.218384,333
845.336426,314
845.454468,319
845.572449,327
845.69043,322
845.808411,335
845.926453,325
846.044373,331
846.162354,318
846.280396,326
846.398315,327
846.516296,322
846.634216,309
846.752197,327
846.870178,332
846.988098,331
847.106079,325
847.22406,330
847.34198,311
847.4599,329
847.577881,328
847.695801,316
847.813782,325
847.931641,330
848.049561,317
848.167603,316
848.285461,324
848.403381,318
848.521362,317
848.639221,318
848.75708,337
848.875,323
848.99292,312
849.110901,321
849.22876,315
849.34668,326
849.464539,312
849.582458,319
849.700317,315
849.818176,330
849.936096,329
850.053955,328
850.171875,323
850.289673,339
850.407593,310
850.525452,334
850.643311,299
850.761169,322
850.878967,329
850.996887,333
851.114746,323
851.232544,315
851.350403,316
851.468262,320
851.58606,311
851.703979,332
851.821777,312
851.939636,332
852.057434,332
852.175232,312
852.293091,320
852.410889,321
852.528687,327
852.646545,333
852.764343,317
852.88208,329
852.999939,323
853.117676,322
853.235535,317
853.353271,324
853.471069,318
853.588928,325
853.706604,323
853.824402,323
853.9422,323
854.059998,338
854.177734,316
854.295532,337
854.413269,299
854.531006,319
854.648804,326
854.766541,335
854.884277,314
855.002014,333
855.119751,322
855.237549,328
855.355225,324
855.473022,328
855.590698,321
855.708435,340
855.826172,325
855.943848,341
856.061646,318
856.179321,320
856.296997,330
856.414795,325
856.53241,328
856.650085,328
856.767822,324
856.885559,324
857.003174,303
857.120911,329
857.238586,330
857.356201,330
857.473938,322
857.591614,322
857.709351,335
857.826965,330
857.944641,318
858.062317,328
858.179993,316
858.297668,313
858.415283,325
858.532959,319
858.650574,314
858.768188,328
858.885803,328
859.003479,321
859.121094,307
859.23877,348
859.356384,320
859.473999,321
859.591675,313
859.709229,326
859.826843,323
859.944458,322
860.062012,317
860.179626,326
860.297302,309
860.414856,338
860.532471,320
860.650024,331
860.767639,331
860.885193,332
861.002808,316
861.120361,329
861.237976,312
861.35553,321
861.473022,331
861.590698,336
861.708191,312
861.825745,334
861.943298,321
862.060852,322
862.178406,312
862.295959,328
862.413513,313
862.531006,335
862.64856,323
862.766113,312
862.883667,312
863.00116,320
863.118713,325
863.236206,321
863.353699,313
863.471252,333
863.588745,312
863.706177,335
863.82373,317
863.941162,333
864.058716,327
864.176208,335
864.29364,321
864.411194,333
864.528687,329
864.646118,333
864.763611,326
864.881042,320
864.998535,350
865.116028,321
865.233459,326
865.350891,325
865.468384,305
865.585754,321
865.703308,318
865.820679,326
865.938171,303
866.055542,321
866.173035,327
866.290466,321
866.407837,326
866.52533,336
866.6427,319
866.760071,323
866.877563,314
866.994934,328
867.112305,317
867.229736,325
867.347107,329
867.464539,307
867.58197,332
867.699341,324
867.81665,310
867.934082,322
868.051453,318
868.168823,327
868.286194,332
868.403564,325
868.520935,300
868.638306,325
868.755676,335
868.872986,330
868.990295,335
869.107727,322
869.225037,309
869.342346,329
869.459717,322
869.577026,313
869.694336,325
869.811707,326
869.929016,330
870.046326,338
870.163635,318
870.280945,338
870.398254,312
870.515564,345
870.632812,308
870.750183,325
870.867432,341
870.984741,325
871.102051,302
871.219299,328
871.336609,319
871.453918,338
871.571106,334
871.688416,331
871.805664,329
871.922852,332
872.040222,311
872.157471,326
872.274719,328
872.391968,322
872.509155,334
872.626465,318
872.743652,334
872.860962,341
872.978149,324
873.095337,320
873.212646,319
873.329834,337
873.44696,321
873.564209,336
873.681396,300
873.798645,321
873.915894,339
874.03302,330
874.150208,323
874.267456,317
874.384583,327
874.501831,330
874.618958,325
874.736145,329
874.853333,318
874.970459,339
875.087646,315
875.204834,333
875.32196,332
875.439148,336
875.556274,322
875.673401,335
875.790527,311
875.907715,339
876.024841,317
876.141968,325
876.259094,325
876.376282,340
876.493347,328
876.610474,313
876.7276,327
876.844727,340
876.961853,326
877.078918,321
877.195984,317
877.313171,326
877.430237,326
877.547302,318
877.664368,317
877.781433,323
877.898499,319
878.015625,333
878.13269,326
878.249695,326
878.366821,315
878.483887,324
878.600952,320
878.717957,316
878.834961,325
878.952087,329
879.069092,321
879.186157,327
879.303162,337
879.420227,322
879.537231,320
879.654236,320
879.77124,322
879.888306,316
880.005249,318
880.122314,323
880.239319,322
880.356323,306
880.473328,317
880.590271,327
880.707275,320
880.824341,319
880.941284,318
881.058228,315
881.175232,328
881.292236,318
881.40918,319
881.526123,330
881.643066,321
881.760071,318
881.877014,324
881.993958,308
882.11084,314
882.227783,305
882.344727,319
882.46167,307
882.578613,315
882.695618,333
882.812439,320
882.929382,312
883.046326,316
883.163208,329
883.280151,321
883.397034,331
883.513916,320
883.630798,308
883.747742,320
883.864563,321
883.981506,327
884.098389,318
884.21521,324
884.332153,321
884.448975,326
884.565796,334
884.682678,331
884.7995,310
884.916443,324
885.033264,317
885.150085,329
885.266968,336
885.383789,326
885.500671,337
885.617493,325
885.734314,325
885.851196,331
885.967896,318
886.084717,345
886.201599,343
886.318359,329
886.435181,346
886.552002,325
886.668762,343
886.785645,316
886.902344,340
887.019165,317
887.135925,338
887.252747,332
887.369446,331
887.486267,338
887.603027,334
887.719788,329
887.836548,341
887.953247,318
888.070068,328
888.186829,306
888.303528,309
888.420288,330
888.536987,323
888.653687,336
888.770447,328
888.887146,309
889.003967,321
889.120667,326
889.237305,333
889.354065,310
889.470703,322
889.587463,313
889.704163,310
889.820862,320
889.937561,325
890.054199,321
890.170837,324
890.287598,329
890.404236,324
890.520874,314
890.637634,303
890.754211,305
890.87085,326
890.987549,324
891.104187,327
891.220886,328
891.337463,306
891.454102,309
891.57074,321
891.687378,323
891.804077,320
891.920654,316
892.037231,330
892.15387,317
892.270447,321
892.387085,321
892.503723,317
892.6203,315
892.736877,327
892.853516,319
892.970032,315
893.08667,331
893.203186,330
893.319763,319
893.43634,321
893.552917,297
893.669556,323
893.786011,315
893.902588,324
894.019165,321
894.135681,322
894.252197,320
894.368835,324
894.485291,306
894.601868,312
894.718384,321
894.8349,325
894.951355,318
895.067932,315
895.184448,314
895.300964,307
895.417419,328
895.533936,323
895.650452,316
895.766907,326
895.883423,306
895.999878,325
896.116333,328
896.232849,327
896.349304,317
896.465759,316
896.582214,304
896.698669,316
896.815125,312
896.931641,323
897.048035,325
897.164551,335
897.280884,312
897.397339,318
897.513794,316
897.630249,323
897.746582,308
897.863098,324
897.979431,318
898.095886,325
898.212341,312
898.328674,317
898.445129,315
898.561462,333
898.677795,312
898.794312,330
898.910645,306
899.026978,322
899.143433,314
899.259766,309
899.37616,317
899.492493,318
899.608765,315
899.725159,339
899.841553,324
899.957947,309
900.07428,323
900.190552,315
900.306946,312
900.423157,333
900.53949,320
900.655884,312
900.772156,331
900.888489,324
901.004822,310
901.121033,320
901.237366,325
901.353699,324
901.46991,322
901.586304,320
901.702515,325
901.818787,315
901.93512,309
902.051331,326
902.167603,329
902.283875,321
902.400085,333
902.516418,323
902.632629,325
902.74884,326
902.865112,322
902.981384,336
903.097595,310
903.213867,333
903.330017,323
903.446289,323
903.5625,320
903.67865,328
903.794922,327
903.911072,318
904.027344,319
904.143494,328
904.259705,323
904.375916,331
904.492065,331
904.608215,330
904.724426,321
904.840576,315
904.956726,320
905.072876,321
905.189087,311
905.305176,332
905.421387,313
905.537537,328
905.653687,309
905.769775,318
905.885925,317
906.002014,311
906.118164,310
906.234314,308
906.350403,324
906.466492,324
906.582642,298
906.69873,331
906.814758,321
906.930908,322
907.046936,324
907.163086,302
907.279175,307
907.395264,329
907.511353,309
907.62738,323
907.743408,322
907.859497,329
907.975525,326
908.091553,325
908.207703,330
908.32373,322
908.439758,321
908.555786,319
908.671814,317
908.787842,326
908.90387,299
909.019775,323
909.135864,322
909.251892,315
909.367859,305
909.483826,320
909.599854,320
909.715881,310
909.831848,305
909.947815,318
910.063782,294
910.179749,316
910.295776,317
910.411743,325
910.527649,320
910.643616,317
910.759583,328
910.875488,327
910.991455,327
911.107361,324
911.223267,321
911.339294,321
911.4552,315
911.571106,330
911.687073,317
911.802979,316
911.918823,326
912.034729,322
912.150635,299
912.266602,316
912.382446,296
912.498352,322
912.614197,329
912.730103,318
912.846008,310
792.44574,376
792.56488,389
792.68396,459
792.80304,432
792.92218,369
793.041199,370
793.160339,370
793.279419,384
793.398499,374
793.517578,354
793.636658,357
793.755737,375
793.874817,360
793.993896,388
794.112976,367
794.232056,345
794.351074,365
794.470215,363
794.589233,366
794.708313,352
794.827393,368
794.946411,356
795.065552,357
795.18457,335
795.303589,350
795.422668,347
795.541687,361
795.660767,346
795.779846,347
795.898865,356
796.017883,344
796.136963,357
796.255981,356
796.375061,351
796.49408,349
796.613037,367
796.732117,334
796.851135,348
796.970154,338
797.089233,325
797.208191,340
797.327271,330
797.446228,335
797.565186,346
797.684265,325
797.803223,344
797.922241,337
798.04126,346
798.160278,339
798.279297,340
798.398315,343
798.517273,343
798.636292,328
798.75531,349
798.874268,332
798.993286,345
799.112244,345
799.231323,341
799.350281,324
799.469238,349
799.588257,343
799.707153,335
799.826111,332
799.945129,342
800.064087,334
800.183044,346
800.302063,355
800.421021,337
800.539978,330
800.658936,338
800.777893,334
800.896912,333
801.015747,328
801.134705,331
801.253723,322
801.37262,336
801.491638,334
801.610535,334
801.729492,337
801.84845,332
801.967407,329
802.086243,334
802.205261,321
802.324158,342
802.443115,329
802.562073,346
802.680969,340
802.799927,341
802.918762,337
803.037659,329
803.156677,336
803.275574,327
803.39447,329
803.513428,325
803.632263,332
803.751221,329
803.870117,336
803.989014,324
804.107971,334
804.226746,330
804.345642,327
804.4646,316
804.583496,319
804.702393,338
804.821228,332
804.940125,338
805.059021,344
805.177917,330
805.296814,323
805.415649,327
805.534546,320
805.653442,332
805.772278,315
805.891113,323
806.01001,337
806.128906,340
806.247742,337
806.366577,334
806.485413,335
806.604309,334
806.723145,345
806.84198,322
806.960876,324
807.079712,326
807.198486,317
807.317383,339
807.436218,328
807.554993,335
807.673889,321
807.792725,326
807.91156,330
808.030396,322
808.14917,328
808.268005,343
808.386841,316
808.505676,343
808.624451,336
808.743286,322
808.862122,333
808.980896,325
809.099731,330
809.218506,327
809.337341,333
809.456116,337
809.57489,333
809.693726,338
809.8125,317
809.931274,327
810.050049,323
810.168884,347
810.287659,323
810.406372,339
810.525269,327
810.643982,317
810.762756,333
810.881531,334
811.000305,327
811.11908,313
811.237854,332
811.356567,320
811.475403,342
811.594116,328
811.71283,312
811.831604,326
811.950378,341
812.069153,323
812.187927,334
812.30658,332
812.425415,318
812.544128,320
812.662781,330
812.781616,326
812.900269,321
813.019043,329
813.137756,328
813.256531,325
813.375244,330
813.493896,313
813.612671,332
813.731384,334
813.850037,315
813.96875,344
814.087524,315
814.206238,333
814.324951,325
814.443604,334
814.562256,333
814.68103,325
814.799683,326
814.918335,334
815.037109,328
815.155762,332
815.274475,323
815.393188,335
815.511841,328
815.630554,331
815.749146,327
815.867859,327
815.986572,340
816.105164,319
816.223877,311
816.342529,320
816.461182,331
816.579895,333
816.698486,338
816.817139,340
816.935791,327
817.054504,318
817.173096,333
817.291748,316
817.4104,335
817.529053,320
817.647644,330
817.766235,331
817.884949,313
818.00354,327
818.122192,324
818.240845,319
818.359436,323
818.478088,327
818.59668,329
818.715271,317
818.833923,330
818.952515,325
819.071106,333
819.189758,327
819.30835,335
819.426941,312
819.545532,324
819.664124,327
819.782715,334
819.901306,327
820.019897,317
820.138489,322
820.25708,322
820.375671,327
820.494202,320
820.612732,326
820.731384,317
820.849915,319
820.968506,313
821.087097,338
821.205627,323
821.324158,323
821.442749,317
821.561279,321
821.679871,325
821.798401,328
821.916931,307
822.035461,326
822.154053,320
822.272583,305
822.391174,323
822.509583,323
822.628174,326
822.746704,317
822.865234,327
822.983765,309
823.102295,329
823.220825,329
823.339294,317
823.457825,331
823.576355,315
823.694824,328
823.813354,313
823.931885,328
824.050354,331
824.168884,316
824.287354,329
824.405823,318
824.524353,324
824.642822,329
824.761353,334
824.879822,318
824.998291,327
825.116699,339
825.235291,323
825.353699,313
825.472168,325
825.590637,326
825.709106,311
825.827576,325
825.946045,317
826.064453,329
826.182983,327
826.301392,312
826.4198,330
826.53833,301
826.656738,324
826.775208,336
826.893677,321
827.012024,323
827.130493,320
827.248962,333
827.36731,317
827.485779,326
827.604248,326
827.722595,327
827.841064,307
827.959412,314
828.077942,321
828.196289,315
828.314636,315
828.433105,316
828.551514,319
828.669861,316
828.78833,317
828.906677,316
829.025085,320
829.143433,322
829.261841,319
829.38031,320
829.498657,306
829.617004,324
829.735413,309
829.85376,324
829.972107,331
830.090515,320
830.208862,315
830.327209,314
830.445557,316
830.563904,310
830.682312,323
830.800659,321
830.919006,322
831.037354,319
831.155701,314
831.274048,325
831.392395,334
831.51062,306
831.629028,312
831.747314,317
831.865662,320
831.984009,312
832.102356,317
832.220642,320
832.338928,327
832.457275,326
832.575623,325
832.693909,327
832.812134,331
832.930481,313
833.048828,333
833.167114,326
833.2854,329
833.403687,311
833.521973,328
833.640259,320
833.758545,324
833.876831,315
833.995056,325
834.113281,326
834.231628,318
834.349915,328
834.468201,325
834.586426,338
834.704651,329
834.822998,324
834.941162,316
835.059448,321
835.177673,305
835.295959,333
835.414246,314
835.53241,315
835.650635,334
835.768921,326
835.887146,331
836.005371,318
836.123596,318
836.241821,331
836.360046,311
836.478271,331
836.596497,325
836.714722,316
836.832886,325
836.95105,330
837.069336,308
837.1875,325
837.305725,320
837.423889,314
837.542053,318
837.660339,326
837.778503,323
837.896667,317
838.014832,319
838.132996,335
838.25116,323
838.369385,310
838.487488,313
838.605713,312
838.723877,327
838.84198,324
838.960205,330
839.078308,318
839.196472,316
839.314636,320
839.4328,325
839.550964,322
839.669067,310
839.787231,328
839.905396,319
840.023499,313
840.141602,344
840.259766,330
840.377869,310
840.495972,346
840.614136,318
840.732239,331
840.850342,323
840.968445,329
841.086548,322
841.204651,326
841.322754,321
841.440918,333
841.55896,320
841.677002,326
841.795166,315
841.913208,301
842.031311,322
842.149353,322
842.267456,342
842.385498,316
842.503601,325
842.621643,319
842.739746,337
842.857788,331
842.97583,316
843.093933,335
843.211975,319
843.330017,332
843.44812,322
843.566101,339
843.684204,320
843.802246,329
843.920227,324
844.038269,323
844.156311,321
844.274292,331
844.392395,325
844.510376,335
844.628357,333
844.74646,332
844.864441,335
844.982422,335
845.100403,327
845.218384,309
845.336426,308
845.454468,328
845.572449,328
845.69043,321
845.808411,312
845.926453,329
846.044373,308
846.162354,330
846.280396,327
846.398315,314
846.516296,329
846.634216,325
846.752197,312
846.870178,318
846.988098,321
847.106079,331
847.22406,332
847.34198,330
847.4599,336
847.577881,323
847.695801,321
847.813782,329
847.931641,330
848.049561,316
848.167603,325
848.285461,313
848.403381,317
848.521362,329
848.639221,309
848.75708,334
848.875,332
848.99292,329
849.110901,318
849.22876,322
849.34668,314
849.464539,330
849.582458,313
849.700317,320
849.818176,313
849.936096,322
850.053955,312
850.171875,323
850.289673,332
850.407593,329
850.525452,309
850.643311,327
850.761169,324
850.878967,334
850.996887,324
851.114746,337
851.232544,312
851.350403,327
851.468262,318
851.58606,316
851.703979,329
851.821777,320
851.939636,324
852.057434,324
852.175232,323
852.293091,347
852.410889,332
852.528687,324
852.646545,327
852.764343,337
852.88208,327
852.999939,329
853.117676,331
853.235535,324
853.353271,325
853.471069,327
853.588928,321
853.706604,330
853.824402,326
853.9422,334
854.059998,319
854.177734,323
854.295532,325
854.413269,324
854.531006,321
854.648804,320
854.766541,324
854.884277,321
855.002014,323
855.119751,328
855.237549,330
855.355225,307
855.473022,313
855.590698,320
855.708435,318
855.826172,333
855.943848,327
856.061646,309
856.179321,319
856.296997,329
856.414795,325
856.53241,335
856.650085,321
856.767822,312
856.885559,327
857.003174,323
857.120911,318
857.238586,334
857.356201,349
857.473938,325
857.591614,327
857.709351,322
857.826965,304
857.944641,328
858.062317,313
858.179993,328
858.297668,301
858.415283,327
858.532959,314
858.650574,333
858.768188,321
858.885803,328
859.003479,327
859.121094,328
859.23877,329
859.356384,331
859.473999,333
859.591675,333
859.709229,315
859.826843,323
859.944458,318
860.062012,332
860.179626,312
860.297302,306
860.414856,314
860.532471,314
860.650024,312
860.767639,325
860.885193,315
861.002808,342
861.120361,338
861.237976,317
861.35553,313
861.473022,310
861.590698,332
861.708191,327
861.825745,324
861.943298,320
862.060852,337
862.178406,309
862.295959,321
862.413513,310
862.531006,321
862.64856,322
862.766113,321
862.883667,334
863.00116,315
863.118713,320
863.236206,323
863.353699,329
863.471252,312
863.588745,331
863.706177,315
863.82373,323
863.941162,322
864.058716,312
864.176208,337
864.29364,320
864.411194,313
864.528687,328
864.646118,321
864.763611,323
864.881042,315
864.998535,314
865.116028,316
865.233459,322
865.350891,312
865.468384,319
865.585754,328
865.703308,326
865.820679,317
865.938171,329
866.055542,311
866.173035,323
866.290466,318
866.407837,322
866.52533,319
866.6427,334
866.760071,311
866.877563,321
866.994934,319
867.112305,317
867.229736,309
867.347107,324
867.464539,323
867.58197,326
867.699341,323
867.81665,329
867.934082,323
868.051453,326
868.168823,321
868.286194,312
868.403564,306
868.520935,312
868.638306,318
868.755676,328
868.872986,312
868.990295,321
869.107727,321
869.225037,329
869.342346,326
869.459717,330
869.577026,322
869.694336,330
869.811707,320
869.929016,324
870.046326,323
870.163635,321
870.280945,315
870.398254,324
870.515564,322
870.632812,311
870.750183,318
870.867432,329
870.984741,319
871.102051,325
871.219299,313
871.336609,323
871.453918,321
871.571106,326
871.688416,325
871.805664,332
871.922852,319
872.040222,329
872.157471,321
872.274719,328
872.391968,329
872.509155,315
872.626465,323
872.743652,327
872.860962,335
872.978149,330
873.095337,332
873.212646,322
873.329834,315
873.44696,320
873.564209,314
873.681396,328
873.798645,317
873.915894,320
874.03302,319
874.150208,339
874.267456,322
874.384583,311
874.501831,314
874.618958,340
874.736145,325
874.853333,317
874.970459,328
875.087646,325
875.204834,323
875.32196,334
875.439148,321
875.556274,332
875.673401,319
875.790527,329
875.907715,313
876.024841,330
876.141968,331
876.259094,324
876.376282,326
876.493347,326
876.610474,316
876.7276,327
876.844727,312
876.961853,317
877.078918,324
877.195984,319
877.313171,325
877.430237,320
877.547302,339
877.664368,316
877.781433,316
877.898499,331
878.015625,328
878.13269,312
878.249695,320
878.366821,326
878.483887,314
878.600952,323
878.717957,322
878.834961,327
878.952087,323
879.069092,326
879.186157,316
879.303162,327
879.420227,314
879.537231,320
879.654236,322
879.77124,305
879.888306,318
880.005249,321
880.122314,324
880.239319,325
880.356323,301
880.473328,322
880.590271,326
880.707275,319
880.824341,318
880.941284,330
881.058228,325
881.175232,319
881.292236,329
881.40918,326
881.526123,324
881.643066,318
881.760071,320
881.877014,326
881.993958,323
882.11084,335
882.227783,314
882.344727,333
882.46167,321
882.578613,331
882.695618,318
882.812439,319
882.929382,306
883.046326,324
883.163208,322
883.280151,329
883.397034,314
883.513916,314
883.630798,315
883.747742,319
883.864563,317
883.981506,317
884.098389,330
884.21521,325
884.332153,306
884.448975,322
884.565796,325
884.682678,331
884.7995,325
884.916443,327
885.033264,343
885.150085,336
885.266968,336
885.383789,325
885.500671,336
885.617493,325
885.734314,332
885.851196,331
885.967896,315
886.084717,336
886.201599,339
886.318359,333
886.435181,330
886.552002,345
886.668762,318
886.785645,327
886.902344,326
887.019165,327
887.135925,326
887.252747,332
887.369446,329
887.486267,335
887.603027,331
887.719788,308
887.836548,328
887.953247,326
888.070068,317
888.186829,331
888.303528,319
888.420288,312
888.536987,325
888.653687,315
888.770447,346
888.887146,326
889.003967,324
889.120667,334
889.237305,323
889.354065,326
889.470703,307
889.587463,316
889.704163,319
889.820862,331
889.937561,331
890.054199,317
890.170837,310
890.287598,317
890.404236,327
890.520874,327
890.637634,311
890.754211,322
890.87085,308
890.987549,318
891.104187,322
891.220886,305
891.337463,321
891.454102,318
891.57074,309
891.687378,325
891.804077,314
891.920654,317
892.037231,311
892.15387,325
892.270447,322
892.387085,326
892.503723,315
892.6203,316
892.736877,331
892.853516,328
892.970032,330
893.08667,315
893.203186,300
893.319763,327
893.43634,320
893.552917,312
893.669556,319
893.786011,314
893.902588,311
894.019165,330
894.135681,304
894.252197,331
894.368835,315
894.485291,320
894.601868,321
894.718384,309
894.8349,309
894.951355,317
895.067932,325
895.184448,326
895.300964,313
895.417419,323
895.533936,316
895.650452,328
895.766907,314
895.883423,310
895.999878,324
896.116333,313
896.232849,313
896.349304,314
896.465759,303
896.582214,327
896.698669,311
896.815125,331
896.931641,330
897.048035,319
897.164551,319
897.280884,319
897.397339,302
897.513794,315
897.630249,317
897.746582,316
897.863098,312
897.979431,325
898.095886,316
898.212341,315
898.328674,328
898.445129,317
898.561462,324
898.677795,317
898.794312,321
898.910645,324
899.026978,313
899.143433,314
899.259766,324
899.37616,322
899.492493,321
899.608765,327
899.725159,321
899.841553,318
899.957947,320
900.07428,336
900.190552,301
900.306946,327
900.423157,325
900.53949,319
900.655884,323
900.772156,324
900.888489,322
901.004822,305
901.121033,309
901.237366,320
901.353699,327
901.46991,333
901.586304,312
901.702515,326
901.818787,325
901.93512,308
902.051331,317
902.167603,329
902.283875,317
902.400085,345
902.516418,329
902.632629,334
902.74884,327
902.865112,323
902.981384,316
903.097595,314
903.213867,321
903.330017,330
903.446289,327
903.5625,338
903.67865,319
903.794922,337
903.911072,324
904.027344,327
904.143494,310
904.259705,317
904.375916,313
904.492065,323
904.608215,320
904.724426,328
904.840576,325
904.956726,341
905.072876,312
905.189087,310
905.305176,316
905.421387,318
905.537537,323
905.653687,313
905.769775,327
905.885925,339
906.002014,315
906.118164,334
906.234314,315
906.350403,323
906.466492,334
906.582642,321
906.69873,315
906.814758,325
906.930908,306
907.046936,317
907.163086,313
907.279175,327
907.395264,322
907.511353,316
907.62738,317
907.743408,322
907.859497,320
907.975525,329
908.091553,305
908.207703,314
908.32373,308
908.439758,318
908.555786,307
908.671814,324
908.787842,315
908.90387,316
909.019775,309
909.135864,315
909.251892,309
909.367859,321
909.483826,311
909.599854,328
909.715881,322
909.831848,313
909.947815,329
910.063782,317
910.179749,332
910.295776,311
910.411743,322
910.527649,323
910.643616,296
910.759583,329
910.875488,297
910.991455,314
911.107361,329
911.223267,325
911.339294,321
911.4552,332
911.571106,319
911.687073,327
911.802979,311
911.918823,328
912.034729,312
912.150635,334
912.266602,302
912.382446,313
912.498352,302
912.614197,319
912.730103,308
912.846008,314
792.44574,373
792.56488,393
792.68396,448
792.80304,425
792.92218,391
793.041199,369
793.160339,368
793.279419,372
793.398499,348
793.517578,352
793.636658,366
793.755737,370
793.874817,386
793.993896,369
794.112976,385
794.232056,344
794.351074,372
794.470215,337
794.589233,353
794.708313,339
794.827393,356
794.946411,369
795.065552,367
795.18457,359
795.303589,348
795.422668,356
795.541687,355
795.660767,344
795.779846,359
795.898865,342
796.017883,337
796.136963,352
796.255981,345
796.375061,347
796.49408,358
796.613037,356
796.732117,368
796.851135,338
796.970154,350
797.089233,334
797.208191,342
797.327271,334
797.446228,345
797.565186,345
797.684265,333
797.803223,346
797.922241,349
798.04126,337
798.160278,339
798.279297,341
798.398315,334
798.517273,339
798.636292,348
798.75531,339
798.874268,346
798.993286,337
799.112244,331
799.231323,345
799.350281,345
799.469238,336
799.588257,334
799.707153,343
799.826111,339
799.945129,348
800.064087,337
800.183044,332
800.302063,340
800.421021,332
800.539978,334
800.658936,338
800.777893,342
800.896912,340
801.015747,326
801.134705,327
801.253723,336
801.37262,326
801.491638,335
801.610535,334
801.729492,322
801.84845,331
801.967407,316
802.086243,337
802.205261,317
802.324158,329
802.443115,331
802.562073,338
802.680969,330
802.799927,332
802.918762,339
803.037659,325
803.156677,329
803.275574,330
803.39447,329
803.513428,335
803.632263,334
803.751221,330
803.870117,333
803.989014,325
804.107971,335
804.226746,319
804.345642,323
804.4646,338
804.583496,331
804.702393,325
804.821228,331
804.940125,330
805.059021,325
805.177917,324
805.296814,319
805.415649,339
805.534546,335
805.653442,323
805.772278,328
805.891113,321
806.01001,327
806.128906,323
806.247742,334
806.366577,321
806.485413,336
806.604309,330
806.723145,331
806.84198,336
806.960876,334
807.079712,325
807.198486,336
807.317383,332
807.436218,326
807.554993,322
807.673889,317
807.792725,330
807.91156,329
808.030396,326
808.14917,334
808.268005,322
808.386841,341
808.505676,329
808.624451,336
808.743286,325
808.862122,324
808.980896,329
809.099731,339
809.218506,326
809.337341,329
809.456116,333
809.57489,335
809.693726,329
809.8125,335
809.931274,327
810.050049,326
810.168884,340
810.287659,322
810.406372,343
810.525269,330
810.643982,322
810.762756,335
810.881531,332
811.000305,332
811.11908,331
811.237854,321
811.356567,333
811.475403,326
811.594116,331
811.71283,322
811.831604,328
811.950378,329
812.069153,331
812.187927,315
812.30658,332
812.425415,326
812.544128,326
812.662781,331
812.781616,325
812.900269,326
813.019043,318
813.137756,323
813.256531,322
813.375244,326
813.493896,341
813.612671,323
813.731384,316
813.850037,326
813.96875,323
814.087524,328
814.206238,312
814.324951,337
814.443604,339
814.562256,329
814.68103,335
814.799683,327
814.918335,325
815.037109,324
815.155762,315
815.274475,322
815.393188,325
815.511841,327
815.630554,325
815.749146,334
815.867859,327
815.986572,329
816.105164,318
816.223877,333
816.342529,333
816.461182,332
816.579895,345
816.698486,341
816.817139,318
816.935791,331
817.054504,317
817.173096,313
817.291748,317
817.4104,329
817.529053,322
817.647644,330
817.766235,336
817.884949,319
818.00354,335
818.122192,332
818.240845,314
818.359436,318
818.478088,312
818.59668,322
818.715271,312
818.833923,323
818.952515,320
819.071106,317
819.189758,322
819.30835,330
819.426941,317
819.545532,317
819.664124,317
819.782715,321
819.901306,319
820.019897,336
820.138489,327
820.25708,329
820.375671,315
820.494202,330
820.612732,323
820.731384,325
820.849915,326
820.968506,319
821.087097,324
821.205627,328
821.324158,322
821.442749,322
821.561279,321
821.679871,344
821.798401,321
821.916931,329
822.035461,311
822.154053,325
822.272583,322
822.391174,333
822.509583,321
822.628174,320
822.746704,313
822.865234,330
822.983765,310
823.102295,320
823.220825,324
823.339294,326
823.457825,323
823.576355,331
823.694824,332
823.813354,322
823.931885,319
824.050354,319
824.168884,320
824.287354,327
824.405823,302
824.524353,317
824.642822,313
824.761353,326
824.879822,332
824.998291,312
825.116699,331
825.235291,320
825.353699,328
825.472168,319
825.590637,329
825.709106,319
825.827576,313
825.946045,315
826.064453,315
826.182983,328
826.301392,312
826.4198,340
826.53833,317
826.656738,311
826.775208,336
826.893677,328
827.012024,325
827.130493,321
827.248962,302
827.36731,323
827.485779,324
827.604248,314
827.722595,306
827.841064,326
827.959412,320
828.077942,321
828.196289,316
828.314636,340
828.433105,315
828.551514,329
828.669861,307
828.78833,326
828.906677,326
829.025085,316
829.143433,335
829.261841,336
829.38031,316
829.498657,318
829.617004,321
829.735413,325
829.85376,311
829.972107,330
830.090515,328
830.208862,309
830.327209,318
830.445557,321
830.563904,325
830.682312,308
830.800659,322
830.919006,317
831.037354,330
831.155701,325
831.274048,324
831.392395,323
831.51062,304
831.629028,318
831.747314,316
831.865662,330
831.984009,308
832.102356,320
832.220642,326
832.338928,321
832.457275,313
832.575623,316
832.693909,306
832.812134,327
832.930481,321
833.048828,336
833.167114,317
833.2854,319
833.403687,318
833.521973,340
833.640259,312
833.758545,336
833.876831,323
833.995056,327
834.113281,322
834.231628,322
834.349915,329
834.468201,335
834.586426,303
834.704651,325
834.822998,318
834.941162,332
835.059448,322
835.177673,325
835.295959,327
835.414246,331
835.53241,323
835.650635,326
835.768921,308
835.887146,324
836.005371,316
836.123596,323
836.241821,319
836.360046,312
836.478271,335
836.596497,325
836.714722,314
836.832886,314
836.95105,317
837.069336,320
837.1875,313
837.305725,314
837.423889,321
837.542053,313
837.660339,329
837.778503,328
837.896667,307
838.014832,326
838.132996,321
838.25116,326
838.369385,319
838.487488,322
838.605713,305
838.723877,322
838.84198,326
838.960205,330
839.078308,320
839.196472,326
839.314636,318
839.4328,326
839.550964,324
839.669067,320
839.787231,317
839.905396,330
840.023499,313
840.141602,328
840.259766,340
840.377869,334
840.495972,317
840.614136,316
840.732239,320
840.850342,320
840.968445,312
841.086548,331
841.204651,330
841.322754,320
841.440918,323
841.55896,338
841.677002,329
841.795166,336
841.913208,311
842.031311,327
842.149353,319
842.267456,330
842.385498,317
842.503601,333
842.621643,309
842.739746,324
842.857788,320
842.97583,320
843.093933,322
843.211975,327
843.330017,334
843.44812,320
843.566101,330
843.684204,318
843.802246,328
843.920227,330
844.038269,318
844.156311,316
844.274292,312
844.392395,329
844.510376,326
844.628357,326
844.74646,310
844.864441,316
844.982422,317
845.100403,321
845.218384,322
845.336426,322
845.454468,318
845.572449,327
845.69043,322
845.808411,327
845.926453,326
846.044373,319
846.162354,313
846.280396,322
846.398315,316
846.516296,325
846.634216,323
846.752197,312
846.870178,321
846.988098,331
847.106079,320
847.22406,316
847.34198,342
847.4599,330
847.577881,323
847.695801,323
847.813782,336
847.931641,322
848.049561,310
848.167603,329
848.285461,311
848.403381,332
848.521362,317
848.639221,336
848.75708,321
848.875,321
848.99292,321
849.110901,328
849.22876,321
849.34668,327
849.464539,320
849.582458,324
849.700317,316
849.818176,317
849.936096,319
850.053955,307
850.171875,335
850.289673,332
850.407593,310
850.525452,327
850.643311,320
850.761169,341
850.878967,322
850.996887,328
851.114746,313
851.232544,334
851.350403,326
851.468262,334
851.58606,322
851.703979,316
851.821777,328
851.939636,315
852.057434,301
852.175232,323
852.293091,321
852.410889,334
852.528687,319
852.646545,326
852.764343,330
852.88208,330
852.999939,325
853.117676,333
853.235535,312
853.353271,322
853.471069,321
853.588928,323
853.706604,327
853.824402,319
853.9422,319
854.059998,317
854.177734,328
854.295532,322
854.413269,324
854.531006,306
854.648804,307
854.766541,331
854.884277,328
855.002014,321
855.119751,313
855.237549,311
855.355225,334
855.473022,328
855.590698,323
855.708435,329
855.826172,322
855.943848,331
856.061646,309
856.179321,326
856.296997,324
856.414795,337
856.53241,321
856.650085,336
856.767822,328
856.885559,323
857.003174,319
857.120911,327
857.238586,328
857.356201,324
857.473938,313
857.591614,327
857.709351,322
857.826965,315
857.944641,319
858.062317,329
858.179993,319
858.297668,336
858.415283,315
858.532959,339
858.650574,321
858.768188,334
858.885803,331
859.003479,317
859.121094,311
859.23877,327
859.356384,326
859.473999,338
859.591675,309
859.709229,332
859.826843,322
859.944458,321
860.062012,337
860.179626,328
860.297302,323
860.414856,329
860.532471,326
860.650024,322
860.767639,326
860.885193,329
861.002808,338
861.120361,336
861.237976,323
861.35553,326
861.473022,326
861.590698,329
861.708191,334
861.825745,321
861.943298,330
862.060852,335
862.178406,314
862.295959,310
862.413513,336
862.531006,327
862.64856,319
862.766113,316
862.883667,309
863.00116,318
863.118713,304
863.236206,325
863.353699,316
863.471252,328
863.588745,314
863.706177,316
863.82373,315
863.941162,319
864.058716,316
864.176208,329
864.29364,318
864.411194,325
864.528687,307
864.646118,316
864.763611,330
864.881042,325
864.998535,316
865.116028,323
865.233459,313
865.350891,331
865.468384,303
865.585754,322
865.703308,313
865.820679,325
865.938171,319
866.055542,325
866.173035,310
866.290466,328
866.407837,320
866.52533,318
866.6427,310
866.760071,321
866.877563,317
866.994934,325
867.112305,313
867.229736,326
867.347107,323
867.464539,316
867.58197,320
867.699341,334
867.81665,322
867.934082,322
868.051453,308
868.168823,326
868.286194,315
868.403564,319
868.520935,305
868.638306,332
868.755676,320
868.872986,335
868.990295,313
869.107727,326
869.225037,324
869.342346,312
869.459717,312
869.577026,326
869.694336,321
869.811707,318
869.929016,313
870.046326,342
870.163635,325
870.280945,331
870.398254,319
870.515564,337
870.632812,326
870.750183,330
870.867432,332
870.984741,334
871.102051,321
871.219299,355
871.336609,311
871.453918,312
871.571106,321
871.688416,320
871.805664,325
871.922852,332
872.040222,323
872.157471,334
872.274719,321
872.391968,330
872.509155,325
872.626465,321
872.743652,321
872.860962,325
872.978149,323
873.095337,325
873.212646,325
873.329834,325
873.44696,304
873.564209,325
873.681396,327
873.798645,329
873.915894,317
874.03302,326
874.150208,324
874.267456,346
874.384583,319
874.501831,320
874.618958,322
874.736145,332
874.853333,326
874.970459,321
875.087646,323
875.204834,316
875.32196,322
875.439148,334
875.556274,333
875.673401,331
875.790527,309
875.907715,320
876.024841,335
876.141968,335
876.259094,331
876.376282,326
876.493347,323
876.610474,336
876.7276,319
876.844727,340
876.961853,330
877.078918,329
877.195984,325
877.313171,324
877.430237,334
877.547302,319
877.664368,322
877.781433,334
877.898499,327
878.015625,319
878.13269,321
878.249695,332
878.366821,309
878.483887,333
878.600952,315
878.717957,321
878.834961,321
878.952087,337
879.069092,322
879.186157,319
879.303162,314
879.420227,325
879.537231,321
879.654236,315
879.77124,317
879.888306,324
880.005249,326
880.122314,322
880.239319,316
880.356323,329
880.473328,305
880.590271,304
880.707275,330
880.824341,319
880.941284,313
881.058228,309
881.175232,326
881.292236,328
881.40918,320
881.526123,320
881.643066,312
881.760071,318
881.877014,317
881.993958,316
882.11084,324
882.227783,323
882.344727,307
882.46167,327
882.578613,303
882.695618,320
882.812439,306
882.929382,332
883.046326,312
883.163208,330
883.280151,316
883.397034,305
883.513916,319
883.630798,325
883.747742,318
883.864563,322
883.981506,324
884.098389,329
884.21521,317
884.332153,332
884.448975,321
884.565796,307
884.682678,304
884.7995,333
884.916443,334
885.033264,327
885.150085,326
885.266968,331
885.383789,323
885.500671,322
885.617493,312
885.734314,338
885.851196,336
885.967896,343
886.084717,331
886.201599,339
886.318359,319
886.435181,319
886.552002,318
886.668762,328
886.785645,322
886.902344,333
887.019165,317
887.135925,327
887.252747,326
887.369446,311
887.486267,315
887.603027,331
887.719788,318
887.836548,331
887.953247,325
888.070068,320
888.186829,320
888.303528,324
888.420288,317
888.536987,318
888.653687,321
888.770447,330
888.887146,309
889.003967,322
889.120667,322
889.237305,315
889.354065,312
889.470703,323
889.587463,311
889.704163,330
889.820862,322
889.937561,327
890.054199,310
890.170837,336
890.287598,309
890.404236,304
890.520874,309
890.637634,314
890.754211,310
890.87085,320
890.987549,306
891.104187,318
891.220886,321
891.337463,327
891.454102,303
891.57074,321
891.687378,303
891.804077,326
891.920654,317
892.037231,321
892.15387,311
892.270447,330
892.387085,315
892.503723,323
892.6203,311
892.736877,322
892.853516,311
892.970032,318
893.08667,324
893.203186,334
893.319763,309
893.43634,324
893.552917,310
893.669556,309
893.786011,303
893.902588,339
894.019165,318
894.135681,340
894.252197,313
894.368835,325
894.485291,310
894.601868,315
894.718384,315
894.8349,309
894.951355,313
895.067932,321
895.184448,291
895.300964,313
895.417419,319
895.533936,303
895.650452,308
895.766907,324
895.883423,323
895.999878,311
896.116333,325
896.232849,329
896.349304,308
896.465759,327
896.582214,312
896.698669,320
896.815125,313
896.931641,310
897.048035,310
897.164551,317
897.280884,310
897.397339,320
897.513794,326
897.630249,314
897.746582,311
897.863098,330
897.979431,322
898.095886,321
898.212341,315
898.328674,313
898.445129,320
898.561462,319
898.677795,319
898.794312,322
898.910645,308
899.026978,306
899.143433,316
899.259766,321
899.37616,330
899.492493,310
899.608765,330
899.725159,321
899.841553,318
899.957947,320
900.07428,330
900.190552,315
900.306946,312
900.423157,332
900.53949,319
900.655884,319
900.772156,331
900.888489,312
901.004822,324
901.121033,314
901.237366,306
901.353699,326
901.46991,307
901.586304,332
901.702515,328
901.818787,327
901.93512,322
902.051331,330
902.167603,317
902.283875,328
902.400085,313
902.516418,335
902.632629,321
902.74884,322
902.865112,323
902.981384,326
903.097595,327
903.213867,325
903.330017,316
903.446289,325
903.5625,315
903.67865,329
903.794922,316
903.911072,321
904.027344,323
904.143494,343
904.259705,321
904.375916,336
904.492065,319
904.608215,328
904.724426,317
904.840576,318
904.956726,317
905.072876,321
905.189087,320
905.305176,324
905.421387,306
905.537537,326
905.653687,300
905.769775,324
905.885925,306
906.002014,320
906.118164,319
906.234314,322
906.350403,316
906.466492,323
906.582642,321
906.69873,315
906.814758,308
906.930908,326
907.046936,316
907.163086,328
907.279175,312
907.395264,302
907.511353,313
907.62738,315
907.743408,306
907.859497,319
907.975525,310
908.091553,316
908.207703,310
908.32373,323
908.439758,308
908.555786,317
908.671814,326
908.787842,325
908.90387,322
909.019775,316
909.135864,307
909.251892,315
909.367859,314
909.483826,333
909.599854,322
909.715881,321
909.831848,298
909.947815,318
910.063782,317
910.179749,325
910.295776,308
910.411743,323
910.527649,305
910.643616,320
910.759583,326
910.875488,332
910.991455,317
911.107361,317
911.223267,324
911.339294,315
911.4552,318
911.571106,308
911.687073,311
911.802979,316
911.918823,305
912.034729,320
912.150635,298
912.266602,305
912.382446,322
912.498352,306
912.614197,309
912.730103,312
912.846008,308
