792.44574,317
792.56488,357
792.68396,410
792.80304,377
792.92218,349
793.041199,304
793.160339,326
793.279419,337
793.398499,330
793.517578,308
793.636658,321
793.755737,335
793.874817,348
793.993896,354
794.112976,338
794.232056,313
794.351074,333
794.470215,329
794.589233,339
794.708313,326
794.827393,337
794.946411,329
795.065552,333
795.18457,333
795.303589,326
795.422668,334
795.541687,330
795.660767,326
795.779846,322
795.898865,329
796.017883,336
796.136963,341
796.255981,332
796.375061,337
796.49408,331
796.613037,335
796.732117,323
796.851135,316
796.970154,334
797.089233,332
797.208191,331
797.327271,332
797.446228,333
797.565186,332
797.684265,328
797.803223,340
797.922241,319
798.04126,337
798.160278,334
798.279297,351
798.398315,320
798.517273,331
798.636292,331
798.75531,317
798.874268,340
798.993286,334
799.112244,329
799.231323,312
799.350281,326
799.469238,328
799.588257,341
799.707153,329
799.826111,337
799.945129,321
800.064087,331
800.183044,341
800.302063,325
800.421021,331
800.539978,321
800.658936,327
800.777893,329
800.896912,337
801.015747,327
801.134705,332
801.253723,328
801.37262,320
801.491638,327
801.610535,311
801.729492,338
801.84845,322
801.967407,340
802.086243,332
802.205261,335
802.324158,330
802.443115,331
802.562073,341
802.680969,348
802.799927,336
802.918762,320
803.037659,337
803.156677,335
803.275574,328
803.39447,316
803.513428,325
803.632263,326
803.751221,334
803.870117,326
803.989014,342
804.107971,314
804.226746,330
804.345642,322
804.4646,336
804.583496,337
804.702393,334
804.821228,332
804.940125,321
805.059021,344
805.177917,337
805.296814,310
805.415649,348
805.534546,320
805.653442,329
805.772278,335
805.891113,332
806.01001,341
806.128906,340
806.247742,335
806.366577,333
806.485413,341
806.604309,327
806.723145,335
806.84198,329
806.960876,320
807.079712,329
807.198486,335
807.317383,341
807.436218,325
807.554993,332
807.673889,328
807.792725,325
807.91156,338
808.030396,333
808.14917,342
808.268005,330
808.386841,331
808.505676,319
808.624451,350
808.743286,315
808.862122,326
808.980896,340
809.099731,351
809.218506,336
809.337341,336
809.456116,326
809.57489,339
809.693726,339
809.8125,333
809.931274,341
810.050049,342
810.168884,334
810.287659,332
810.406372,331
810.525269,322
810.643982,329
810.762756,330
810.881531,332
811.000305,335
811.11908,330
811.237854,331
811.356567,346
811.475403,337
811.594116,334
811.71283,335
811.831604,331
811.950378,329
812.069153,328
812.187927,335
812.30658,333
812.425415,325
812.544128,346
812.662781,327
812.781616,338
812.900269,327
813.019043,324
813.137756,340
813.256531,343
813.375244,335
813.493896,330
813.612671,331
813.731384,346
813.850037,339
813.96875,335
814.087524,342
814.206238,323
814.324951,337
814.443604,326
814.562256,335
814.68103,341
814.799683,335
814.918335,334
815.037109,328
815.155762,343
815.274475,339
815.393188,331
815.511841,341
815.630554,327
815.749146,336
815.867859,319
815.986572,336
816.105164,325
816.223877,334
816.342529,325
816.461182,337
816.579895,331
816.698486,333
816.817139,329
816.935791,329
817.054504,332
817.173096,335
817.291748,323
817.4104,338
817.529053,327
817.647644,327
817.766235,324
817.884949,333
818.00354,328
818.122192,327
818.240845,324
818.359436,313
818.478088,340
818.59668,330
818.715271,345
818.833923,314
818.952515,320
819.071106,318
819.189758,331
819.30835,323
819.426941,323
819.545532,318
819.664124,324
819.782715,308
819.901306,312
820.019897,327
820.138489,317
820.25708,330
820.375671,309
820.494202,320
820.612732,331
820.731384,328
820.849915,325
820.968506,312
821.087097,312
821.205627,321
821.324158,308
821.442749,330
821.561279,320
821.679871,320
821.798401,333
821.916931,322
822.035461,328
822.154053,321
822.272583,321
822.391174,325
822.509583,307
822.628174,309
822.746704,308
822.865234,320
822.983765,323
823.102295,320
823.220825,317
823.339294,307
823.457825,327
823.576355,321
823.694824,317
823.813354,323
823.931885,305
824.050354,327
824.168884,322
824.287354,337
824.405823,323
824.524353,321
824.642822,324
824.761353,318
824.879822,315
824.998291,316
825.116699,320
825.235291,328
825.353699,312
825.472168,316
825.590637,327
825.709106,320
825.827576,328
825.946045,323
826.064453,318
826.182983,320
826.301392,307
826.4198,323
826.53833,327
826.656738,305
826.775208,308
826.893677,331
827.012024,328
827.130493,320
827.248962,320
827.36731,317
827.485779,314
827.604248,331
827.722595,323
827.841064,324
827.959412,317
828.077942,314
828.196289,323
828.314636,316
828.433105,303
828.551514,320
828.669861,313
828.78833,335
828.906677,317
829.025085,311
829.143433,314
829.261841,324
829.38031,317
829.498657,318
829.617004,324
829.735413,326
829.85376,317
829.972107,312
830.090515,314
830.208862,298
830.327209,304
830.445557,307
830.563904,317
830.682312,314
830.800659,310
830.919006,314
831.037354,327
831.155701,326
831.274048,322
831.392395,322
831.51062,316
831.629028,320
831.747314,323
831.865662,314
831.984009,329
832.102356,315
832.220642,318
832.338928,319
832.457275,324
832.575623,316
832.693909,307
832.812134,311
832.930481,326
833.048828,318
833.167114,305
833.2854,308
833.403687,317
833.521973,318
833.640259,316
833.758545,321
833.876831,311
833.995056,322
834.113281,320
834.231628,323
834.349915,318
834.468201,312
834.586426,320
834.704651,303
834.822998,327
834.941162,311
835.059448,322
835.177673,309
835.295959,317
835.414246,305
835.53241,308
835.650635,323
835.768921,314
835.887146,319
836.005371,305
836.123596,310
836.241821,317
836.360046,312
836.478271,328
836.596497,319
836.714722,323
836.832886,316
836.95105,313
837.069336,320
837.1875,322
837.305725,324
837.423889,313
837.542053,318
837.660339,328
837.778503,320
837.896667,302
838.014832,312
838.132996,309
838.25116,337
838.369385,317
838.487488,322
838.605713,307
838.723877,330
838.84198,317
838.960205,325
839.078308,301
839.196472,339
839.314636,318
839.4328,313
839.550964,336
839.669067,300
839.787231,327
839.905396,318
840.023499,313
840.141602,320
840.259766,316
840.377869,320
840.495972,298
840.614136,320
840.732239,311
840.850342,313
840.968445,322
841.086548,306
841.204651,306
841.322754,307
841.440918,317
841.55896,329
841.677002,315
841.795166,332
841.913208,315
842.031311,317
842.149353,312
842.267456,311
842.385498,314
842.503601,323
842.621643,312
842.739746,320
842.857788,316
842.97583,317
843.093933,315
843.211975,321
843.330017,317
843.44812,325
843.566101,324
843.684204,326
843.802246,317
843.920227,319
844.038269,322
844.156311,331
844.274292,308
844.392395,313
844.510376,310
844.628357,319
844.74646,317
844.864441,313
844.982422,313
845.100403,314
845.218384,321
845.336426,319
845.454468,312
845.572449,313
845.69043,318
845.808411,323
845.926453,295
846.044373,312
846.162354,317
846.280396,316
846.398315,316
846.516296,329
846.634216,318
846.752197,311
846.870178,325
846.988098,302
847.106079,335
847.22406,318
847.34198,304
847.4599,315
847.577881,316
847.695801,322
847.813782,316
847.931641,303
848.049561,314
848.167603,324
848.285461,320
848.403381,311
848.521362,308
848.639221,317
848.75708,308
848.875,306
848.99292,313
849.110901,313
849.22876,313
849.34668,314
849.464539,316
849.582458,317
849.700317,312
849.818176,321
849.936096,311
850.053955,316
850.171875,314
850.289673,317
850.407593,308
850.525452,310
850.643311,317
850.761169,317
850.878967,317
850.996887,323
851.114746,304
851.232544,315
851.350403,325
851.468262,309
851.58606,309
851.703979,320
851.821777,328
851.939636,311
852.057434,303
852.175232,312
852.293091,316
852.410889,330
852.528687,312
852.646545,316
852.764343,316
852.88208,310
852.999939,313
853.117676,320
853.235535,312
853.353271,328
853.471069,295
853.588928,316
853.706604,323
853.824402,305
853.9422,306
854.059998,331
854.177734,326
854.295532,325
854.413269,313
854.531006,318
854.648804,321
854.766541,331
854.884277,318
855.002014,315
855.119751,316
855.237549,324
855.355225,312
855.473022,309
855.590698,329
855.708435,334
855.826172,309
855.943848,315
856.061646,316
856.179321,310
856.296997,320
856.414795,317
856.53241,326
856.650085,307
856.767822,311
856.885559,321
857.003174,312
857.120911,317
857.238586,314
857.356201,327
857.473938,305
857.591614,316
857.709351,311
857.826965,313
857.944641,319
858.062317,326
858.179993,323
858.297668,313
858.415283,322
858.532959,314
858.650574,313
858.768188,317
858.885803,317
859.003479,312
859.121094,308
859.23877,315
859.356384,297
859.473999,329
859.591675,321
859.709229,315
859.826843,323
859.944458,323
860.062012,320
860.179626,326
860.297302,306
860.414856,314
860.532471,310
860.650024,303
860.767639,314
860.885193,319
861.002808,327
861.120361,310
861.237976,315
861.35553,327
861.473022,315
861.590698,322
861.708191,318
861.825745,330
861.943298,311
862.060852,304
862.178406,312
862.295959,315
862.413513,323
862.531006,322
862.64856,313
862.766113,307
862.883667,306
863.00116,321
863.118713,318
863.236206,327
863.353699,303
863.471252,328
863.588745,316
863.706177,315
863.82373,313
863.941162,318
864.058716,312
864.176208,314
864.29364,315
864.411194,322
864.528687,311
864.646118,329
864.763611,313
864.881042,328
864.998535,312
865.116028,316
865.233459,303
865.350891,320
865.468384,312
865.585754,326
865.703308,312
865.820679,311
865.938171,313
866.055542,323
866.173035,322
866.290466,316
866.407837,311
866.52533,310
866.6427,323
866.760071,320
866.877563,319
866.994934,319
867.112305,325
867.229736,318
867.347107,315
867.464539,323
867.58197,316
867.699341,322
867.81665,317
867.934082,326
868.051453,324
868.168823,321
868.286194,319
868.403564,323
868.520935,315
868.638306,305
868.755676,314
868.872986,316
868.990295,305
869.107727,321
869.225037,305
869.342346,322
869.459717,308
869.577026,312
869.694336,313
869.811707,319
869.929016,317
870.046326,326
870.163635,313
870.280945,316
870.398254,310
870.515564,327
870.632812,319
870.750183,320
870.867432,301
870.984741,330
871.102051,320
871.219299,311
871.336609,311
871.453918,323
871.571106,314
871.688416,319
871.805664,309
871.922852,335
872.040222,306
872.157471,330
872.274719,315
872.391968,322
872.509155,324
872.626465,319
872.743652,315
872.860962,324
872.978149,319
873.095337,316
873.212646,303
873.329834,321
873.44696,304
873.564209,317
873.681396,318
873.798645,318
873.915894,313
874.03302,318
874.150208,303
874.267456,314
874.384583,321
874.501831,328
874.618958,314
874.736145,322
874.853333,317
874.970459,310
875.087646,302
875.204834,303
875.32196,318
875.439148,319
875.556274,319
875.673401,318
875.790527,303
875.907715,310
876.024841,308
876.141968,325
876.259094,307
876.376282,318
876.493347,318
876.610474,323
876.7276,302
876.844727,310
876.961853,301
877.078918,314
877.195984,322
877.313171,315
877.430237,317
877.547302,324
877.664368,321
877.781433,316
877.898499,310
878.015625,327
878.13269,304
878.249695,316
878.366821,317
878.483887,315
878.600952,320
878.717957,322
878.834961,325
878.952087,313
879.069092,306
879.186157,321
879.303162,307
879.420227,317
879.537231,321
879.654236,314
879.77124,306
879.888306,311
880.005249,317
880.122314,320
880.239319,302
880.356323,319
880.473328,320
880.590271,328
880.707275,326
880.824341,327
880.941284,296
881.058228,320
881.175232,322
881.292236,317
881.40918,314
881.526123,322
881.643066,316
881.760071,322
881.877014,308
881.993958,332
882.11084,317
882.227783,323
882.344727,328
882.46167,318
882.578613,311
882.695618,305
882.812439,310
882.929382,319
883.046326,321
883.163208,317
883.280151,327
883.397034,317
883.513916,321
883.630798,322
883.747742,320
883.864563,330
883.981506,302
884.098389,328
884.21521,306
884.332153,313
884.448975,322
884.565796,329
884.682678,328
884.7995,338
884.916443,310
885.033264,320
885.150085,317
885.266968,323
885.383789,321
885.500671,315
885.617493,332
885.734314,311
885.851196,318
885.967896,306
886.084717,308
886.201599,315
886.318359,305
886.435181,318
886.552002,327
886.668762,321
886.785645,307
886.902344,314
887.019165,324
887.135925,324
887.252747,313
887.369446,326
887.486267,307
887.603027,324
887.719788,310
887.836548,322
887.953247,314
888.070068,314
888.186829,321
888.303528,317
888.420288,307
888.536987,322
888.653687,305
888.770447,322
888.887146,306
889.003967,324
889.120667,308
889.237305,311
889.354065,321
889.470703,322
889.587463,312
889.704163,319
889.820862,315
889.937561,323
890.054199,318
890.170837,310
890.287598,325
890.404236,322
890.520874,315
890.637634,323
890.754211,309
890.87085,324
890.987549,313
891.104187,321
891.220886,315
891.337463,315
891.454102,321
891.57074,317
891.687378,314
891.804077,324
891.920654,313
892.037231,323
892.15387,316
892.270447,318
892.387085,320
892.503723,316
892.6203,312
892.736877,313
892.853516,305
892.970032,319
893.08667,314
893.203186,313
893.319763,323
893.43634,313
893.552917,317
893.669556,319
893.786011,316
893.902588,314
894.019165,311
894.135681,310
894.252197,302
894.368835,316
894.485291,316
894.601868,330
894.718384,303
894.8349,309
894.951355,305
895.067932,312
895.184448,319
895.300964,308
895.417419,317
895.533936,313
895.650452,313
895.766907,333
895.883423,316
895.999878,313
896.116333,302
896.232849,324
896.349304,300
896.465759,324
896.582214,323
896.698669,309
896.815125,316
896.931641,307
897.048035,327
897.164551,318
897.280884,302
897.397339,322
897.513794,317
897.630249,319
897.746582,311
897.863098,305
897.979431,302
898.095886,331
898.212341,299
898.328674,320
898.445129,324
898.561462,325
898.677795,309
898.794312,312
898.910645,307
899.026978,313
899.143433,305
899.259766,309
899.37616,328
899.492493,317
899.608765,333
899.725159,329
899.841553,325
899.957947,315
900.07428,312
900.190552,318
900.306946,300
900.423157,317
900.53949,307
900.655884,309
900.772156,313
900.888489,328
901.004822,316
901.121033,322
901.237366,304
901.353699,322
901.46991,315
901.586304,335
901.702515,314
901.818787,322
901.93512,327
902.051331,314
902.167603,310
902.283875,313
902.400085,310
902.516418,317
902.632629,305
902.74884,322
902.865112,321
902.981384,312
903.097595,319
903.213867,322
903.330017,314
903.446289,317
903.5625,305
903.67865,324
903.794922,304
903.911072,321
904.027344,296
904.143494,306
904.259705,318
904.375916,315
904.492065,309
904.608215,324
904.724426,326
904.840576,314
904.956726,317
905.072876,313
905.189087,327
905.305176,310
905.421387,311
905.537537,316
905.653687,324
905.769775,306
905.885925,316
906.002014,304
906.118164,316
906.234314,310
906.350403,333
906.466492,311
906.582642,323
906.69873,319
906.814758,302
906.930908,312
907.046936,316
907.163086,308
907.279175,315
907.395264,326
907.511353,317
907.62738,323
907.743408,307
907.859497,318
907.975525,323
908.091553,328
908.207703,318
908.32373,326
908.439758,312
908.555786,318
908.671814,304
908.787842,316
908.90387,315
909.019775,321
909.135864,313
909.251892,316
909.367859,314
909.483826,319
909.599854,318
909.715881,312
909.831848,310
909.947815,320
910.063782,309
910.179749,310
910.295776,317
910.411743,312
910.527649,329
910.643616,310
910.759583,317
910.875488,339
910.991455,310
911.107361,318
911.223267,303
911.339294,318
911.4552,325
911.571106,313
911.687073,318
911.802979,326
911.918823,317
912.034729,314
912.150635,313
912.266602,323
912.382446,323
912.498352,311
912.614197,315
912.730103,325
912.846008,315
792.44574,309
792.56488,356
792.68396,396
792.80304,376
792.92218,344
793.041199,310
793.160339,316
793.279419,335
793.398499,356
793.517578,315
793.636658,334
793.755737,337
793.874817,357
793.993896,352
794.112976,326
794.232056,337
794.351074,336
794.470215,337
794.589233,318
794.708313,317
794.827393,329
794.946411,334
795.065552,356
795.18457,325
795.303589,343
795.422668,331
795.541687,322
795.660767,331
795.779846,313
795.898865,348
796.017883,330
796.136963,329
796.255981,332
796.375061,332
796.49408,333
796.613037,341
796.732117,311
796.851135,335
796.970154,323
797.089233,321
797.208191,330
797.327271,322
797.446228,348
797.565186,315
797.684265,335
797.803223,329
797.922241,330
798.04126,332
798.160278,332
798.279297,331
798.398315,330
798.517273,330
798.636292,330
798.75531,329
798.874268,342
798.993286,319
799.112244,327
799.231323,334
799.350281,324
799.469238,332
799.588257,346
799.707153,330
799.826111,334
799.945129,326
800.064087,329
800.183044,331
800.302063,316
800.421021,337
800.539978,336
800.658936,335
800.777893,326
800.896912,329
801.015747,341
801.134705,330
801.253723,326
801.37262,327
801.491638,328
801.610535,330
801.729492,329
801.84845,335
801.967407,327
802.086243,321
802.205261,344
802.324158,317
802.443115,319
802.562073,330
802.680969,332
802.799927,326
802.918762,342
803.037659,327
803.156677,326
803.275574,307
803.39447,339
803.513428,338
803.632263,321
803.751221,331
803.870117,340
803.989014,333
804.107971,348
804.226746,330
804.345642,341
804.4646,328
804.583496,334
804.702393,335
804.821228,334
804.940125,338
805.059021,326
805.177917,332
805.296814,325
805.415649,323
805.534546,328
805.653442,325
805.772278,344
805.891113,336
806.01001,335
806.128906,330
806.247742,331
806.366577,337
806.485413,341
806.604309,328
806.723145,335
806.84198,328
806.960876,341
807.079712,328
807.198486,327
807.317383,345
807.436218,329
807.554993,341
807.673889,330
807.792725,346
807.91156,334
808.030396,334
808.14917,349
808.268005,327
808.386841,327
808.505676,325
808.624451,329
808.743286,337
808.862122,337
808.980896,316
809.099731,343
809.218506,336
809.337341,342
809.456116,328
809.57489,334
809.693726,338
809.8125,333
809.931274,334
810.050049,337
810.168884,324
810.287659,331
810.406372,326
810.525269,338
810.643982,335
810.762756,336
810.881531,349
811.000305,337
811.11908,338
811.237854,331
811.356567,335
811.475403,337
811.594116,339
811.71283,345
811.831604,342
811.950378,339
812.069153,342
812.187927,345
812.30658,338
812.425415,345
812.544128,337
812.662781,343
812.781616,340
812.900269,343
813.019043,330
813.137756,323
813.256531,341
813.375244,349
813.493896,332
813.612671,333
813.731384,333
813.850037,347
813.96875,341
814.087524,321
814.206238,331
814.324951,340
814.443604,334
814.562256,345
814.68103,341
814.799683,339
814.918335,345
815.037109,336
815.155762,330
815.274475,341
815.393188,323
815.511841,328
815.630554,333
815.749146,320
815.867859,332
815.986572,327
816.105164,337
816.223877,327
816.342529,317
816.461182,332
816.579895,336
816.698486,338
816.817139,336
816.935791,331
817.054504,331
817.173096,323
817.291748,328
817.4104,325
817.529053,325
817.647644,317
817.766235,336
817.884949,328
818.00354,334
818.122192,338
818.240845,336
818.359436,325
818.478088,323
818.59668,329
818.715271,325
818.833923,336
818.952515,316
819.071106,313
819.189758,329
819.30835,322
819.426941,324
819.545532,313
819.664124,318
819.782715,327
819.901306,329
820.019897,324
820.138489,324
820.25708,316
820.375671,312
820.494202,333
820.612732,326
820.731384,335
820.849915,318
820.968506,313
821.087097,322
821.205627,321
821.324158,326
821.442749,324
821.561279,320
821.679871,326
821.798401,323
821.916931,326
822.035461,316
822.154053,316
822.272583,321
822.391174,326
822.509583,324
822.628174,311
822.746704,332
822.865234,306
822.983765,319
823.102295,313
823.220825,312
823.339294,306
823.457825,319
823.576355,306
823.694824,324
823.813354,323
823.931885,323
824.050354,308
824.168884,325
824.287354,323
824.405823,332
824.524353,317
824.642822,309
824.761353,323
824.879822,310
824.998291,327
825.116699,321
825.235291,324
825.353699,325
825.472168,323
825.590637,294
825.709106,325
825.827576,325
825.946045,325
826.064453,334
826.182983,329
826.301392,318
826.4198,304
826.53833,322
826.656738,319
826.775208,318
826.893677,312
827.012024,294
827.130493,330
827.248962,309
827.36731,316
827.485779,313
827.604248,312
827.722595,313
827.841064,328
827.959412,311
828.077942,315
828.196289,327
828.314636,317
828.433105,312
828.551514,315
828.669861,317
828.78833,304
828.906677,315
829.025085,323
829.143433,313
829.261841,325
829.38031,314
829.498657,325
829.617004,314
829.735413,307
829.85376,320
829.972107,318
830.090515,319
830.208862,314
830.327209,310
830.445557,330
830.563904,319
830.682312,309
830.800659,317
830.919006,306
831.037354,326
831.155701,318
831.274048,323
831.392395,316
831.51062,323
831.629028,304
831.747314,323
831.865662,317
831.984009,319
832.102356,295
832.220642,323
832.338928,310
832.457275,321
832.575623,325
832.693909,306
832.812134,309
832.930481,323
833.048828,305
833.167114,318
833.2854,307
833.403687,321
833.521973,320
833.640259,303
833.758545,327
833.876831,310
833.995056,324
834.113281,319
834.231628,316
834.349915,297
834.468201,334
834.586426,321
834.704651,313
834.822998,327
834.941162,317
835.059448,322
835.177673,326
835.295959,316
835.414246,331
835.53241,306
835.650635,311
835.768921,314
835.887146,312
836.005371,330
836.123596,323
836.241821,309
836.360046,323
836.478271,319
836.596497,326
836.714722,314
836.832886,318
836.95105,325
837.069336,329
837.1875,331
837.305725,308
837.423889,321
837.542053,324
837.660339,331
837.778503,321
837.896667,320
838.014832,321
838.132996,336
838.25116,316
838.369385,317
838.487488,318
838.605713,312
838.723877,303
838.84198,312
838.960205,326
839.078308,313
839.196472,306
839.314636,304
839.4328,318
839.550964,317
839.669067,319
839.787231,313
839.905396,328
840.023499,312
840.141602,320
840.259766,308
840.377869,318
840.495972,312
840.614136,330
840.732239,318
840.850342,319
840.968445,311
841.086548,321
841.204651,304
841.322754,315
841.440918,310
841.55896,328
841.677002,324
841.795166,308
841.913208,323
842.031311,314
842.149353,317
842.267456,324
842.385498,326
842.503601,328
842.621643,314
842.739746,312
842.857788,317
842.97583,311
843.093933,317
843.211975,316
843.330017,300
843.44812,318
843.566101,341
843.684204,312
843.802246,316
843.920227,312
844.038269,329
844.156311,316
844.274292,322
844.392395,317
844.510376,308
844.628357,322
844.74646,308
844.864441,327
844.982422,320
845.100403,315
845.218384,320
845.336426,313
845.454468,329
845.572449,310
845.69043,311
845.808411,314
845.926453,317
846.044373,316
846.162354,323
846.280396,303
846.398315,326
846.516296,305
846.634216,326
846.752197,312
846.870178,312
846.988098,305
847.106079,317
847.22406,313
847.34198,323
847.4599,314
847.577881,322
847.695801,315
847.813782,313
847.931641,312
848.049561,322
848.167603,310
848.285461,330
848.403381,315
848.521362,321
848.639221,324
848.75708,306
848.875,322
848.99292,315
849.110901,327
849.22876,321
849.34668,311
849.464539,315
849.582458,312
849.700317,318
849.818176,308
849.936096,321
850.053955,316
850.171875,298
850.289673,309
850.407593,320
850.525452,298
850.643311,303
850.761169,323
850.878967,321
850.996887,309
851.114746,315
851.232544,321
851.350403,317
851.468262,317
851.58606,313
851.703979,317
851.821777,311
851.939636,323
852.057434,314
852.175232,318
852.293091,316
852.410889,309
852.528687,327
852.646545,320
852.764343,304
852.88208,314
852.999939,310
853.117676,307
853.235535,321
853.353271,304
853.471069,310
853.588928,322
853.706604,326
853.824402,313
853.9422,294
854.059998,314
854.177734,309
854.295532,318
854.413269,315
854.531006,318
854.648804,313
854.766541,322
854.884277,321
855.002014,325
855.119751,310
855.237549,310
855.355225,322
855.473022,315
855.590698,323
855.708435,310
855.826172,318
855.943848,313
856.061646,318
856.179321,315
856.296997,322
856.414795,330
856.53241,329
856.650085,309
856.767822,324
856.885559,317
857.003174,327
857.120911,315
857.238586,317
857.356201,326
857.473938,309
857.591614,312
857.709351,318
857.826965,324
857.944641,314
858.062317,306
858.179993,318
858.297668,319
858.415283,310
858.532959,325
858.650574,319
858.768188,322
858.885803,317
859.003479,319
859.121094,313
859.23877,313
859.356384,324
859.473999,318
859.591675,317
859.709229,316
859.826843,311
859.944458,300
860.062012,323
860.179626,319
860.297302,315
860.414856,315
860.532471,313
860.650024,314
860.767639,320
860.885193,318
861.002808,319
861.120361,325
861.237976,311
861.35553,310
861.473022,325
861.590698,327
861.708191,336
861.825745,314
861.943298,321
862.060852,312
862.178406,319
862.295959,316
862.413513,314
862.531006,307
862.64856,318
862.766113,310
862.883667,307
863.00116,313
863.118713,323
863.236206,312
863.353699,323
863.471252,314
863.588745,320
863.706177,317
863.82373,313
863.941162,309
864.058716,328
864.176208,320
864.29364,326
864.411194,319
864.528687,313
864.646118,326
864.763611,326
864.881042,316
864.998535,317
865.116028,321
865.233459,330
865.350891,314
865.468384,315
865.585754,310
865.703308,332
865.820679,311
865.938171,318
866.055542,320
866.173035,326
866.290466,323
866.407837,309
866.52533,313
866.6427,324
866.760071,315
866.877563,318
866.994934,323
867.112305,318
867.229736,311
867.347107,319
867.464539,325
867.58197,324
867.699341,306
867.81665,315
867.934082,312
868.051453,322
868.168823,322
868.286194,317
868.403564,310
868.520935,315
868.638306,310
868.755676,314
868.872986,316
868.990295,316
869.107727,318
869.225037,307
869.342346,317
869.459717,311
869.577026,298
869.694336,317
869.811707,306
869.929016,323
870.046326,299
870.163635,321
870.280945,315
870.398254,329
870.515564,324
870.632812,318
870.750183,305
870.867432,313
870.984741,312
871.102051,325
871.219299,327
871.336609,326
871.453918,314
871.571106,320
871.688416,315
871.805664,319
871.922852,323
872.040222,321
872.157471,315
872.274719,319
872.391968,315
872.509155,322
872.626465,304
872.743652,314
872.860962,315
872.978149,315
873.095337,307
873.212646,308
873.329834,317
873.44696,321
873.564209,320
873.681396,313
873.798645,311
873.915894,306
874.03302,311
874.150208,321
874.267456,310
874.384583,323
874.501831,319
874.618958,313
874.736145,318
874.853333,311
874.970459,325
875.087646,323
875.204834,316
875.32196,329
875.439148,312
875.556274,325
875.673401,307
875.790527,311
875.907715,321
876.024841,321
876.141968,314
876.259094,327
876.376282,325
876.493347,308
876.610474,325
876.7276,310
876.844727,302
876.961853,322
877.078918,319
877.195984,332
877.313171,321
877.430237,318
877.547302,315
877.664368,307
877.781433,320
877.898499,322
878.015625,309
878.13269,319
878.249695,326
878.366821,311
878.483887,327
878.600952,301
878.717957,311
878.834961,305
878.952087,312
879.069092,313
879.186157,315
879.303162,315
879.420227,310
879.537231,320
879.654236,308
879.77124,313
879.888306,315
880.005249,326
880.122314,306
880.239319,318
880.356323,315
880.473328,316
880.590271,334
880.707275,319
880.824341,309
880.941284,318
881.058228,319
881.175232,312
881.292236,317
881.40918,319
881.526123,325
881.643066,332
881.760071,318
881.877014,317
881.993958,321
882.11084,315
882.227783,316
882.344727,326
882.46167,305
882.578613,319
882.695618,316
882.812439,318
882.929382,324
883.046326,317
883.163208,311
883.280151,308
883.397034,332
883.513916,305
883.630798,313
883.747742,329
883.864563,330
883.981506,309
884.098389,317
884.21521,314
884.332153,312
884.448975,312
884.565796,318
884.682678,325
884.7995,315
884.916443,324
885.033264,310
885.150085,338
885.266968,294
885.383789,322
885.500671,319
885.617493,330
885.734314,323
885.851196,317
885.967896,336
886.084717,313
886.201599,303
886.318359,326
886.435181,312
886.552002,309
886.668762,310
886.785645,307
886.902344,306
887.019165,312
887.135925,322
887.252747,317
887.369446,310
887.486267,320
887.603027,300
887.719788,325
887.836548,323
887.953247,309
888.070068,310
888.186829,327
888.303528,333
888.420288,315
888.536987,315
888.653687,312
888.770447,318
888.887146,315
889.003967,326
889.120667,320
889.237305,318
889.354065,336
889.470703,307
889.587463,318
889.704163,315
889.820862,319
889.937561,313
890.054199,321
890.170837,325
890.287598,328
890.404236,323
890.520874,311
890.637634,309
890.754211,320
890.87085,316
890.987549,318
891.104187,318
891.220886,317
891.337463,318
891.454102,324
891.57074,326
891.687378,316
891.804077,320
891.920654,315
892.037231,312
892.15387,324
892.270447,325
892.387085,318
892.503723,313
892.6203,318
892.736877,320
892.853516,321
892.970032,313
893.08667,324
893.203186,329
893.319763,320
893.43634,307
893.552917,321
893.669556,296
893.786011,326
893.902588,334
894.019165,322
894.135681,315
894.252197,320
894.368835,296
894.485291,315
894.601868,317
894.718384,319
894.8349,303
894.951355,314
895.067932,313
895.184448,314
895.300964,320
895.417419,310
895.533936,312
895.650452,317
895.766907,306
895.883423,331
895.999878,324
896.116333,317
896.232849,315
896.349304,316
896.465759,325
896.582214,314
896.698669,327
896.815125,329
896.931641,314
897.048035,325
897.164551,318
897.280884,323
897.397339,312
897.513794,311
897.630249,317
897.746582,325
897.863098,305
897.979431,314
898.095886,317
898.212341,312
898.328674,322
898.445129,314
898.561462,316
898.677795,323
898.794312,316
898.910645,323
899.026978,313
899.143433,327
899.259766,313
899.37616,330
899.492493,317
899.608765,326
899.725159,308
899.841553,322
899.957947,316
900.07428,313
900.190552,324
900.306946,329
900.423157,312
900.53949,323
900.655884,320
900.772156,323
900.888489,308
901.004822,326
901.121033,314
901.237366,324
901.353699,311
901.46991,325
901.586304,312
901.702515,319
901.818787,322
901.93512,315
902.051331,324
902.167603,311
902.283875,315
902.400085,310
902.516418,309
902.632629,312
902.74884,307
902.865112,326
902.981384,331
903.097595,313
903.213867,325
903.330017,318
903.446289,315
903.5625,323
903.67865,306
903.794922,324
903.911072,323
904.027344,311
904.143494,317
904.259705,320
904.375916,299
904.492065,316
904.608215,308
904.724426,324
904.840576,294
904.956726,319
905.072876,312
905.189087,335
905.305176,319
905.421387,305
905.537537,327
905.653687,318
905.769775,321
905.885925,317
906.002014,327
906.118164,314
906.234314,320
906.350403,327
906.466492,327
906.582642,320
906.69873,318
906.814758,316
906.930908,324
907.046936,323
907.163086,327
907.279175,334
907.395264,325
907.511353,324
907.62738,314
907.743408,322
907.859497,309
907.975525,318
908.091553,311
908.207703,326
908.32373,300
908.439758,296
908.555786,331
908.671814,311
908.787842,316
908.90387,319
909.019775,304
909.135864,319
909.251892,313
909.367859,317
909.483826,314
909.599854,327
909.715881,312
909.831848,315
909.947815,312
910.063782,314
910.179749,313
910.295776,329
910.411743,324
910.527649,322
910.643616,311
910.759583,313
910.875488,316
910.991455,327
911.107361,316
911.223267,332
911.339294,310
911.4552,317
911.571106,311
911.687073,321
911.802979,303
911.918823,317
912.034729,314
912.150635,326
912.266602,318
912.382446,325
912.498352,306
912.614197,324
912.730103,319
912.846008,308
792.44574,315
792.56488,368
792.68396,390
792.80304,378
792.92218,352
793.041199,333
793.160339,325
793.279419,334
793.398499,338
793.517578,321
793.636658,329
793.755737,328
793.874817,372
793.993896,346
794.112976,334
794.232056,336
794.351074,318
794.470215,335
794.589233,326
794.708313,322
794.827393,338
794.946411,335
795.065552,338
795.18457,346
795.303589,332
795.422668,317
795.541687,328
795.660767,336
795.779846,338
795.898865,329
796.017883,321
796.136963,335
796.255981,345
796.375061,325
796.49408,346
796.613037,327
796.732117,338
796.851135,332
796.970154,325
797.089233,331
797.208191,332
797.327271,344
797.446228,348
797.565186,330
797.684265,336
797.803223,332
797.922241,337
798.04126,306
798.160278,337
798.279297,312
798.398315,326
798.517273,332
798.636292,324
798.75531,325
798.874268,335
798.993286,327
799.112244,330
799.231323,330
799.350281,341
799.469238,319
799.588257,343
799.707153,332
799.826111,338
799.945129,326
800.064087,331
800.183044,326
800.302063,336
800.421021,341
800.539978,320
800.658936,326
800.777893,313
800.896912,321
801.015747,346
801.134705,312
801.253723,310
801.37262,345
801.491638,319
801.610535,328
801.729492,335
801.84845,324
801.967407,326
802.086243,334
802.205261,329
802.324158,329
802.443115,337
802.562073,334
802.680969,311
802.799927,331
802.918762,331
803.037659,330
803.156677,328
803.275574,340
803.39447,339
803.513428,331
803.632263,333
803.751221,335
803.870117,334
803.989014,333
804.107971,336
804.226746,337
804.345642,343
804.4646,325
804.583496,336
804.702393,318
804.821228,333
804.940125,338
805.059021,324
805.177917,332
805.296814,344
805.415649,327
805.534546,337
805.653442,312
805.772278,323
805.891113,334
806.01001,327
806.128906,338
806.247742,326
806.366577,337
806.485413,344
806.604309,331
806.723145,325
806.84198,340
806.960876,337
807.079712,332
807.198486,320
807.317383,337
807.436218,330
807.554993,346
807.673889,329
807.792725,333
807.91156,323
808.030396,328
808.14917,339
808.268005,335
808.386841,338
808.505676,342
808.624451,346
808.743286,325
808.862122,320
808.980896,332
809.099731,323
809.218506,318
809.337341,339
809.456116,318
809.57489,326
809.693726,337
809.8125,325
809.931274,347
810.050049,344
810.168884,330
810.287659,327
810.406372,339
810.525269,325
810.643982,334
810.762756,347
810.881531,342
811.000305,340
811.11908,337
811.237854,323
811.356567,335
811.475403,342
811.594116,341
811.71283,335
811.831604,341
811.950378,334
812.069153,325
812.187927,333
812.30658,336
812.425415,340
812.544128,330
812.662781,330
812.781616,340
812.900269,337
813.019043,331
813.137756,336
813.256531,339
813.375244,356
813.493896,331
813.612671,333
813.731384,332
813.850037,332
813.96875,325
814.087524,349
814.206238,323
814.324951,341
814.443604,338
814.562256,337
814.68103,327
814.799683,344
814.918335,340
815.037109,335
815.155762,315
815.274475,346
815.393188,329
815.511841,332
815.630554,331
815.749146,345
815.867859,330
815.986572,333
816.105164,331
816.223877,338
816.342529,324
816.461182,337
816.579895,321
816.698486,330
816.817139,328
816.935791,331
817.054504,333
817.173096,340
817.291748,337
817.4104,325
817.529053,331
817.647644,331
817.766235,344
817.884949,333
818.00354,341
818.122192,306
818.240845,336
818.359436,317
818.478088,315
818.59668,331
818.715271,332
818.833923,330
818.952515,316
819.071106,314
819.189758,323
819.30835,315
819.426941,323
819.545532,335
819.664124,319
819.782715,314
819.901306,303
820.019897,317
820.138489,309
820.25708,323
820.375671,315
820.494202,323
820.612732,323
820.731384,327
820.849915,331
820.968506,326
821.087097,309
821.205627,328
821.324158,310
821.442749,330
821.561279,318
821.679871,332
821.798401,314
821.916931,317
822.035461,325
822.154053,328
822.272583,319
822.391174,318
822.509583,326
822.628174,306
822.746704,326
822.865234,317
822.983765,330
823.102295,321
823.220825,311
823.339294,323
823.457825,316
823.576355,336
823.694824,318
823.813354,311
823.931885,329
824.050354,332
824.168884,329
824.287354,308
824.405823,313
824.524353,309
824.642822,313
824.761353,330
824.879822,323
824.998291,317
825.116699,323
825.235291,312
825.353699,323
825.472168,317
825.590637,312
825.709106,322
825.827576,312
825.946045,321
826.064453,329
826.182983,322
826.301392,312
826.4198,323
826.53833,308
826.656738,319
826.775208,313
826.893677,312
827.012024,318
827.130493,319
827.248962,312
827.36731,316
827.485779,308
827.604248,326
827.722595,317
827.841064,320
827.959412,311
828.077942,311
828.196289,319
828.314636,315
828.433105,312
828.551514,309
828.669861,311
828.78833,322
828.906677,315
829.025085,312
829.143433,310
829.261841,320
829.38031,312
829.498657,321
829.617004,313
829.735413,330
829.85376,317
829.972107,329
830.090515,318
830.208862,329
830.327209,315
830.445557,327
830.563904,318
830.682312,309
830.800659,317
830.919006,314
831.037354,308
831.155701,315
831.274048,315
831.392395,316
831.51062,305
831.629028,319
831.747314,305
831.865662,308
831.984009,315
832.102356,321
832.220642,310
832.338928,322
832.457275,318
832.575623,324
832.693909,310
832.812134,319
832.930481,324
833.048828,312
833.167114,311
833.2854,307
833.403687,320
833.521973,320
833.640259,311
833.758545,305
833.876831,310
833.995056,310
834.113281,312
834.231628,329
834.349915,324
834.468201,319
834.586426,317
834.704651,316
834.822998,333
834.941162,317
835.059448,311
835.177673,317
835.295959,308
835.414246,330
835.53241,306
835.650635,315
835.768921,315
835.887146,301
836.005371,324
836.123596,317
836.241821,314
836.360046,325
836.478271,313
836.596497,327
836.714722,302
836.832886,323
836.95105,316
837.069336,325
837.1875,322
837.305725,320
837.423889,307
837.542053,328
837.660339,306
837.778503,325
837.896667,319
838.014832,323
838.132996,317
838.25116,314
838.369385,310
838.487488,324
838.605713,315
838.723877,305
838.84198,326
838.960205,322
839.078308,316
839.196472,320
839.314636,312
839.4328,318
839.550964,326
839.669067,315
839.787231,310
839.905396,319
840.023499,329
840.141602,321
840.259766,323
840.377869,322
840.495972,327
840.614136,326
840.732239,315
840.850342,336
840.968445,311
841.086548,317
841.204651,316
841.322754,317
841.440918,309
841.55896,309
841.677002,319
841.795166,307
841.913208,323
842.031311,311
842.149353,305
842.267456,317
842.385498,305
842.503601,316
842.621643,312
842.739746,305
842.857788,314
842.97583,315
843.093933,317
843.211975,314
843.330017,330
843.44812,308
843.566101,311
843.684204,308
843.802246,325
843.920227,308
844.038269,316
844.156311,323
844.274292,321
844.392395,297
844.510376,316
844.628357,322
844.74646,308
844.864441,323
844.982422,316
845.100403,318
845.218384,313
845.336426,323
845.454468,314
845.572449,324
845.69043,315
845.808411,315
845.926453,318
846.044373,313
846.162354,305
846.280396,299
846.398315,315
846.516296,326
846.634216,326
846.752197,321
846.870178,316
846.988098,321
847.106079,300
847.22406,332
847.34198,327
847.4599,307
847.577881,311
847.695801,315
847.813782,319
847.931641,325
848.049561,312
848.167603,324
848.285461,322
848.403381,325
848.521362,317
848.639221,312
848.75708,308
848.875,321
848.99292,297
849.110901,314
849.22876,313
849.34668,318
849.464539,306
849.582458,324
849.700317,330
849.818176,312
849.936096,327
850.053955,326
850.171875,305
850.289673,318
850.407593,304
850.525452,315
850.643311,310
850.761169,320
850.878967,322
850.996887,338
851.114746,317
851.232544,321
851.350403,326
851.468262,315
851.58606,309
851.703979,322
851.821777,312
851.939636,320
852.057434,320
852.175232,325
852.293091,313
852.410889,301
852.528687,326
852.646545,309
852.764343,321
852.88208,315
852.999939,316
853.117676,316
853.235535,317
853.353271,319
853.471069,313
853.588928,326
853.706604,319
853.824402,329
853.9422,314
854.059998,322
854.177734,322
854.295532,301
854.413269,313
854.531006,302
854.648804,309
854.766541,316
854.884277,327
855.002014,321
855.119751,317
855.237549,317
855.355225,316
855.473022,320
855.590698,322
855.708435,313
855.826172,331
855.943848,321
856.061646,318
856.179321,301
856.296997,311
856.414795,313
856.53241,326
856.650085,327
856.767822,316
856.885559,326
857.003174,313
857.120911,315
857.238586,305
857.356201,305
857.473938,327
857.591614,329
857.709351,322
857.826965,316
857.944641,316
858.062317,303
858.179993,313
858.297668,323
858.415283,311
858.532959,310
858.650574,313
858.768188,324
858.885803,308
859.003479,326
859.121094,307
859.23877,319
859.356384,326
859.473999,316
859.591675,321
859.709229,320
859.826843,307
859.944458,334
860.062012,314
860.179626,337
860.297302,314
860.414856,312
860.532471,325
860.650024,304
860.767639,315
860.885193,319
861.002808,299
861.120361,322
861.237976,320
861.35553,309
861.473022,313
861.590698,314
861.708191,317
861.825745,320
861.943298,337
862.060852,321
862.178406,321
862.295959,321
862.413513,307
862.531006,321
862.64856,319
862.766113,311
862.883667,324
863.00116,330
863.118713,315
863.236206,324
863.353699,308
863.471252,323
863.588745,307
863.706177,319
863.82373,312
863.941162,310
864.058716,310
864.176208,322
864.29364,319
864.411194,317
864.528687,317
864.646118,313
864.763611,305
864.881042,323
864.998535,319
865.116028,321
865.233459,316
865.350891,320
865.468384,305
865.585754,321
865.703308,306
865.820679,308
865.938171,316
866.055542,318
866.173035,313
866.290466,318
866.407837,320
866.52533,333
866.6427,308
866.760071,318
866.877563,322
866.994934,309
867.112305,316
867.229736,332
867.347107,309
867.464539,320
867.58197,330
867.699341,321
867.81665,317
867.934082,320
868.051453,308
868.168823,316
868.286194,306
868.403564,331
868.520935,319
868.638306,319
868.755676,311
868.872986,323
868.990295,320
869.107727,319
869.225037,317
869.342346,308
869.459717,317
869.577026,304
869.694336,306
869.811707,323
869.929016,308
870.046326,318
870.163635,310
870.280945,314
870.398254,314
870.515564,314
870.632812,317
870.750183,325
870.867432,319
870.984741,318
871.102051,312
871.219299,323
871.336609,298
871.453918,316
871.571106,318
871.688416,304
871.805664,320
871.922852,324
872.040222,304
872.157471,315
872.274719,313
872.391968,321
872.509155,314
872.626465,326
872.743652,302
872.860962,320
872.978149,318
873.095337,334
873.212646,307
873.329834,319
873.44696,311
873.564209,322
873.681396,316
873.798645,328
873.915894,317
874.03302,311
874.150208,305
874.267456,317
874.384583,313
874.501831,327
874.618958,307
874.736145,327
874.853333,314
874.970459,322
875.087646,308
875.204834,317
875.32196,315
875.439148,313
875.556274,314
875.673401,319
875.790527,308
875.907715,325
876.024841,311
876.141968,312
876.259094,316
876.376282,314
876.493347,325
876.610474,317
876.7276,318
876.844727,326
876.961853,306
877.078918,309
877.195984,314
877.313171,314
877.430237,308
877.547302,316
877.664368,311
877.781433,308
877.898499,315
878.015625,313
878.13269,302
878.249695,310
878.366821,316
878.483887,316
878.600952,314
878.717957,327
878.834961,322
878.952087,318
879.069092,319
879.186157,309
879.303162,303
879.420227,327
879.537231,317
879.654236,322
879.77124,324
879.888306,315
880.005249,322
880.122314,315
880.239319,318
880.356323,326
880.473328,308
880.590271,314
880.707275,316
880.824341,318
880.941284,309
881.058228,333
881.175232,303
881.292236,313
881.40918,308
881.526123,317
881.643066,319
881.760071,326
881.877014,316
881.993958,341
882.11084,312
882.227783,321
882.344727,300
882.46167,321
882.578613,318
882.695618,304
882.812439,316
882.929382,315
883.046326,317
883.163208,317
883.280151,308
883.397034,324
883.513916,301
883.630798,324
883.747742,307
883.864563,307
883.981506,322
884.098389,314
884.21521,310
884.332153,307
884.448975,307
884.565796,317
884.682678,319
884.7995,322
884.916443,326
885.033264,316
885.150085,320
885.266968,297
885.383789,310
885.500671,318
885.617493,309
885.734314,328
885.851196,306
885.967896,318
886.084717,314
886.201599,328
886.318359,313
886.435181,318
886.552002,316
886.668762,318
886.785645,312
886.902344,317
887.019165,307
887.135925,324
887.252747,303
887.369446,311
887.486267,322
887.603027,321
887.719788,303
887.836548,317
887.953247,311
888.070068,322
888.186829,311
888.303528,316
888.420288,308
888.536987,318
888.653687,329
888.770447,320
888.887146,322
889.003967,321
889.120667,323
889.237305,323
889.354065,318
889.470703,316
889.587463,321
889.704163,318
889.820862,314
889.937561,316
890.054199,324
890.170837,322
890.287598,313
890.404236,319
890.520874,303
890.637634,312
890.754211,308
890.87085,327
890.987549,300
891.104187,323
891.220886,321
891.337463,319
891.454102,309
891.57074,311
891.687378,326
891.804077,319
891.920654,320
892.037231,303
892.15387,317
892.270447,302
892.387085,317
892.503723,321
892.6203,307
892.736877,331
892.853516,319
892.970032,321
893.08667,320
893.203186,315
893.319763,324
893.43634,318
893.552917,317
893.669556,323
893.786011,307
893.902588,324
894.019165,310
894.135681,318
894.252197,323
894.368835,332
894.485291,309
894.601868,313
894.718384,310
894.8349,315
894.951355,319
895.067932,321
895.184448,308
895.300964,321
895.417419,321
895.533936,325
895.650452,318
895.766907,318
895.883423,321
895.999878,332
896.116333,321
896.232849,313
896.349304,321
896.465759,322
896.582214,313
896.698669,320
896.815125,320
896.931641,311
897.048035,306
897.164551,309
897.280884,319
897.397339,313
897.513794,315
897.630249,326
897.746582,303
897.863098,319
897.979431,319
898.095886,308
898.212341,314
898.328674,313
898.445129,309
898.561462,331
898.677795,312
898.794312,327
898.910645,314
899.026978,309
899.143433,315
899.259766,316
899.37616,324
899.492493,306
899.608765,307
899.725159,321
899.841553,312
899.957947,315
900.07428,316
900.190552,317
900.306946,319
900.423157,318
900.53949,322
900.655884,315
900.772156,297
900.888489,332
901.004822,317
901.121033,332
901.237366,325
901.353699,319
901.46991,307
901.586304,309
901.702515,308
901.818787,316
901.93512,312
902.051331,323
902.167603,315
902.283875,323
902.400085,321
902.516418,325
902.632629,318
902.74884,326
902.865112,319
902.981384,318
903.097595,319
903.213867,305
903.330017,313
903.446289,327
903.5625,316
903.67865,317
903.794922,311
903.911072,330
904.027344,317
904.143494,316
904.259705,310
904.375916,324
904.492065,314
904.608215,314
904.724426,314
904.840576,313
904.956726,320
905.072876,322
905.189087,305
905.305176,321
905.421387,313
905.537537,326
905.653687,307
905.769775,329
905.885925,316
906.002014,326
906.118164,330
906.234314,308
906.350403,309
906.466492,332
906.582642,302
906.69873,319
906.814758,325
906.930908,338
907.046936,309
907.163086,307
907.279175,320
907.395264,328
907.511353,320
907.62738,296
907.743408,326
907.859497,313
907.975525,314
908.091553,322
908.207703,329
908.32373,334
908.439758,316
908.555786,319
908.671814,329
908.787842,330
908.90387,318
909.019775,318
909.135864,315
909.251892,324
909.367859,324
909.483826,327
909.599854,320
909.715881,312
909.831848,304
909.947815,337
910.063782,314
910.179749,316
910.295776,304
910.411743,328
910.527649,320
910.643616,315
910.759583,313
910.875488,328
910.991455,319
911.107361,312
911.223267,311
911.339294,316
911.4552,320
911.571106,318
911.687073,315
911.802979,322
911.918823,317
912.034729,312
912.150635,322
912.266602,318
912.382446,306
912.498352,333
912.614197,308
912.730103,323
912.846008,304
