792.44574,383
792.56488,405
792.68396,456
792.80304,422
792.92218,384
793.041199,370
793.160339,360
793.279419,369
793.398499,372
793.517578,355
793.636658,359
793.755737,375
793.874817,373
793.993896,382
794.112976,354
794.232056,363
794.351074,362
794.470215,348
794.589233,371
794.708313,355
794.827393,358
794.946411,349
795.065552,368
795.18457,360
795.303589,345
795.422668,354
795.541687,355
795.660767,352
795.779846,354
795.898865,363
796.017883,334
796.136963,352
796.255981,356
796.375061,362
796.49408,351
796.613037,333
796.732117,354
796.851135,346
796.970154,344
797.089233,344
797.208191,341
797.327271,357
797.446228,333
797.565186,357
797.684265,329
797.803223,360
797.922241,339
798.04126,356
798.160278,331
798.279297,344
798.398315,347
798.517273,330
798.636292,331
798.75531,331
798.874268,352
798.993286,332
799.112244,348
799.231323,350
799.350281,337
799.469238,338
799.588257,340
799.707153,327
799.826111,336
799.945129,336
800.064087,338
800.183044,341
800.302063,334
800.421021,340
800.539978,341
800.658936,344
800.777893,337
800.896912,336
801.015747,325
801.134705,338
801.253723,336
801.37262,325
801.491638,324
801.610535,334
801.729492,332
801.84845,332
801.967407,330
802.086243,318
802.205261,327
802.324158,321
802.443115,347
802.562073,333
802.680969,333
802.799927,332
802.918762,336
803.037659,342
803.156677,323
803.275574,330
803.39447,330
803.513428,330
803.632263,342
803.751221,327
803.870117,318
803.989014,318
804.107971,335
804.226746,330
804.345642,341
804.4646,314
804.583496,328
804.702393,320
804.821228,335
804.940125,326
805.059021,330
805.177917,349
805.296814,325
805.415649,332
805.534546,323
805.653442,331
805.772278,323
805.891113,331
806.01001,339
806.128906,329
806.247742,322
806.366577,332
806.485413,327
806.604309,336
806.723145,335
806.84198,325
806.960876,338
807.079712,326
807.198486,337
807.317383,328
807.436218,333
807.554993,326
807.673889,323
807.792725,318
807.91156,318
808.030396,339
808.14917,330
808.268005,323
808.386841,339
808.505676,323
808.624451,338
808.743286,339
808.862122,334
808.980896,318
809.099731,333
809.218506,328
809.337341,320
809.456116,328
809.57489,330
809.693726,333
809.8125,325
809.931274,327
810.050049,329
810.168884,326
810.287659,338
810.406372,317
810.525269,329
810.643982,326
810.762756,332
810.881531,335
811.000305,329
811.11908,329
811.237854,336
811.356567,334
811.475403,333
811.594116,316
811.71283,335
811.831604,322
811.950378,333
812.069153,332
812.187927,330
812.30658,326
812.425415,329
812.544128,333
812.662781,314
812.781616,325
812.900269,331
813.019043,327
813.137756,338
813.256531,330
813.375244,333
813.493896,321
813.612671,323
813.731384,337
813.850037,328
813.96875,317
814.087524,345
814.206238,336
814.324951,315
814.443604,334
814.562256,311
814.68103,328
814.799683,315
814.918335,330
815.037109,319
815.155762,326
815.274475,342
815.393188,323
815.511841,337
815.630554,328
815.749146,325
815.867859,329
815.986572,332
816.105164,333
816.223877,336
816.342529,330
816.461182,326
816.579895,327
816.698486,328
816.817139,337
816.935791,317
817.054504,331
817.173096,332
817.291748,326
817.4104,327
817.529053,337
817.647644,326
817.766235,324
817.884949,318
818.00354,338
818.122192,323
818.240845,345
818.359436,328
818.478088,330
818.59668,314
818.715271,323
818.833923,315
818.952515,327
819.071106,331
819.189758,320
819.30835,329
819.426941,313
819.545532,319
819.664124,326
819.782715,326
819.901306,326
820.019897,325
820.138489,327
820.25708,321
820.375671,335
820.494202,310
820.612732,320
820.731384,322
820.849915,327
820.968506,324
821.087097,326
821.205627,336
821.324158,336
821.442749,311
821.561279,323
821.679871,320
821.798401,324
821.916931,317
822.035461,320
822.154053,323
822.272583,317
822.391174,328
822.509583,320
822.628174,318
822.746704,321
822.865234,315
822.983765,335
823.102295,320
823.220825,323
823.339294,338
823.457825,304
823.576355,334
823.694824,323
823.813354,328
823.931885,316
824.050354,320
824.168884,307
824.287354,325
824.405823,325
824.524353,321
824.642822,321
824.761353,328
824.879822,310
824.998291,341
825.116699,325
825.235291,328
825.353699,310
825.472168,326
825.590637,315
825.709106,318
825.827576,314
825.946045,326
826.064453,330
826.182983,336
826.301392,317
826.4198,326
826.53833,338
826.656738,319
826.775208,313
826.893677,326
827.012024,324
827.130493,323
827.248962,331
827.36731,334
827.485779,312
827.604248,313
827.722595,310
827.841064,327
827.959412,329
828.077942,318
828.196289,311
828.314636,320
828.433105,327
828.551514,320
828.669861,308
828.78833,308
828.906677,322
829.025085,321
829.143433,312
829.261841,323
829.38031,308
829.498657,323
829.617004,307
829.735413,316
829.85376,333
829.972107,312
830.090515,326
830.208862,301
830.327209,336
830.445557,324
830.563904,323
830.682312,314
830.800659,338
830.919006,329
831.037354,318
831.155701,320
831.274048,325
831.392395,338
831.51062,330
831.629028,320
831.747314,313
831.865662,325
831.984009,321
832.102356,326
832.220642,316
832.338928,323
832.457275,328
832.575623,311
832.693909,317
832.812134,323
832.930481,319
833.048828,325
833.167114,313
833.2854,312
833.403687,312
833.521973,308
833.640259,318
833.758545,309
833.876831,338
833.995056,328
834.113281,325
834.231628,324
834.349915,312
834.468201,333
834.586426,319
834.704651,329
834.822998,320
834.941162,312
835.059448,315
835.177673,315
835.295959,336
835.414246,333
835.53241,315
835.650635,326
835.768921,324
835.887146,327
836.005371,324
836.123596,319
836.241821,330
836.360046,322
836.478271,313
836.596497,323
836.714722,321
836.832886,313
836.95105,327
837.069336,325
837.1875,315
837.305725,315
837.423889,312
837.542053,335
837.660339,324
837.778503,322
837.896667,319
838.014832,329
838.132996,324
838.25116,316
838.369385,319
838.487488,318
838.605713,330
838.723877,319
838.84198,322
838.960205,318
839.078308,326
839.196472,332
839.314636,334
839.4328,329
839.550964,325
839.669067,328
839.787231,326
839.905396,319
840.023499,309
840.141602,311
840.259766,323
840.377869,314
840.495972,345
840.614136,315
840.732239,325
840.850342,318
840.968445,333
841.086548,326
841.204651,317
841.322754,329
841.440918,336
841.55896,329
841.677002,333
841.795166,320
841.913208,331
842.031311,322
842.149353,332
842.267456,328
842.385498,324
842.503601,325
842.621643,328
842.739746,323
842.857788,331
842.97583,339
843.093933,328
843.211975,327
843.330017,320
843.44812,314
843.566101,319
843.684204,317
843.802246,328
843.920227,337
844.038269,331
844.156311,314
844.274292,326
844.392395,328
844.510376,315
844.628357,328
844.74646,317
844.864441,314
844.982422,321
845.100403,313
845.218384,322
845.336426,311
845.454468,329
845.572449,316
845.69043,339
845.808411,309
845.926453,321
846.044373,325
846.162354,330
846.280396,325
846.398315,320
846.516296,335
846.634216,332
846.752197,323
846.870178,321
846.988098,332
847.106079,317
847.22406,331
847.34198,321
847.4599,322
847.577881,325
847.695801,321
847.813782,320
847.931641,315
848.049561,331
848.167603,327
848.285461,314
848.403381,335
848.521362,319
848.639221,325
848.75708,334
848.875,333
848.99292,325
849.110901,317
849.22876,335
849.34668,327
849.464539,310
849.582458,329
849.700317,341
849.818176,331
849.936096,328
850.053955,318
850.171875,333
850.289673,335
850.407593,322
850.525452,324
850.643311,327
850.761169,333
850.878967,320
850.996887,330
851.114746,328
851.232544,331
851.350403,321
851.468262,322
851.58606,318
851.703979,308
851.821777,331
851.939636,331
852.057434,325
852.175232,329
852.293091,331
852.410889,333
852.528687,323
852.646545,335
852.764343,337
852.88208,329
852.999939,328
853.117676,307
853.235535,316
853.353271,318
853.471069,323
853.588928,323
853.706604,323
853.824402,336
853.9422,326
854.059998,333
854.177734,319
854.295532,323
854.413269,323
854.531006,321
854.648804,319
854.766541,318
854.884277,331
855.002014,322
855.119751,327
855.237549,316
855.355225,324
855.473022,321
855.590698,327
855.708435,324
855.826172,328
855.943848,310
856.061646,327
856.179321,326
856.296997,329
856.414795,324
856.53241,330
856.650085,315
856.767822,329
856.885559,329
857.003174,332
857.120911,315
857.238586,338
857.356201,324
857.473938,328
857.591614,314
857.709351,329
857.826965,329
857.944641,325
858.062317,325
858.179993,318
858.297668,319
858.415283,322
858.532959,323
858.650574,334
858.768188,349
858.885803,323
859.003479,326
859.121094,319
859.23877,333
859.356384,325
859.473999,328
859.591675,323
859.709229,331
859.826843,332
859.944458,327
860.062012,323
860.179626,324
860.297302,321
860.414856,332
860.532471,331
860.650024,306
860.767639,326
860.885193,327
861.002808,328
861.120361,336
861.237976,328
861.35553,319
861.473022,317
861.590698,323
861.708191,324
861.825745,311
861.943298,322
862.060852,322
862.178406,330
862.295959,327
862.413513,326
862.531006,320
862.64856,318
862.766113,321
862.883667,321
863.00116,322
863.118713,332
863.236206,320
863.353699,322
863.471252,327
863.588745,327
863.706177,332
863.82373,323
863.941162,326
864.058716,327
864.176208,337
864.29364,325
864.411194,317
864.528687,334
864.646118,322
864.763611,314
864.881042,320
864.998535,321
865.116028,326
865.233459,323
865.350891,315
865.468384,321
865.585754,310
865.703308,329
865.820679,329
865.938171,317
866.055542,325
866.173035,327
866.290466,318
866.407837,327
866.52533,310
866.6427,329
866.760071,324
866.877563,317
866.994934,321
867.112305,322
867.229736,327
867.347107,321
867.464539,337
867.58197,318
867.699341,317
867.81665,319
867.934082,326
868.051453,316
868.168823,331
868.286194,328
868.403564,328
868.520935,327
868.638306,334
868.755676,324
868.872986,318
868.990295,325
869.107727,310
869.225037,328
869.342346,305
869.459717,324
869.577026,329
869.694336,316
869.811707,329
869.929016,322
870.046326,315
870.163635,329
870.280945,331
870.398254,326
870.515564,331
870.632812,335
870.750183,339
870.867432,328
870.984741,329
871.102051,318
871.219299,321
871.336609,336
871.453918,325
871.571106,327
871.688416,321
871.805664,326
871.922852,332
872.040222,339
872.157471,323
872.274719,330
872.391968,323
872.509155,341
872.626465,313
872.743652,331
872.860962,329
872.978149,328
873.095337,332
873.212646,316
873.329834,320
873.44696,324
873.564209,329
873.681396,331
873.798645,328
873.915894,326
874.03302,319
874.150208,323
874.267456,338
874.384583,315
874.501831,320
874.618958,318
874.736145,320
874.853333,326
874.970459,310
875.087646,351
875.204834,327
875.32196,339
875.439148,322
875.556274,328
875.673401,344
875.790527,315
875.907715,324
876.024841,336
876.141968,322
876.259094,326
876.376282,310
876.493347,323
876.610474,305
876.7276,316
876.844727,316
876.961853,335
877.078918,312
877.195984,334
877.313171,325
877.430237,314
877.547302,324
877.664368,323
877.781433,324
877.898499,315
878.015625,312
878.13269,319
878.249695,327
878.366821,323
878.483887,325
878.600952,316
878.717957,323
878.834961,317
878.952087,320
879.069092,321
879.186157,317
879.303162,332
879.420227,311
879.537231,332
879.654236,314
879.77124,327
879.888306,319
880.005249,318
880.122314,326
880.239319,321
880.356323,321
880.473328,330
880.590271,313
880.707275,324
880.824341,327
880.941284,326
881.058228,334
881.175232,322
881.292236,316
881.40918,325
881.526123,313
881.643066,323
881.760071,324
881.877014,322
881.993958,318
882.11084,314
882.227783,313
882.344727,321
882.46167,316
882.578613,320
882.695618,322
882.812439,330
882.929382,314
883.046326,311
883.163208,312
883.280151,316
883.397034,321
883.513916,334
883.630798,309
883.747742,312
883.864563,313
883.981506,327
884.098389,318
884.21521,331
884.332153,320
884.448975,314
884.565796,323
884.682678,323
884.7995,328
884.916443,314
885.033264,333
885.150085,328
885.266968,323
885.383789,336
885.500671,322
885.617493,336
885.734314,332
885.851196,336
885.967896,341
886.084717,329
886.201599,333
886.318359,333
886.435181,337
886.552002,329
886.668762,334
886.785645,335
886.902344,325
887.019165,327
887.135925,316
887.252747,330
887.369446,338
887.486267,331
887.603027,324
887.719788,318
887.836548,335
887.953247,333
888.070068,309
888.186829,328
888.303528,328
888.420288,327
888.536987,328
888.653687,331
888.770447,316
888.887146,317
889.003967,315
889.120667,323
889.237305,324
889.354065,310
889.470703,316
889.587463,313
889.704163,334
889.820862,334
889.937561,333
890.054199,312
890.170837,318
890.287598,307
890.404236,324
890.520874,306
890.637634,325
890.754211,308
890.87085,319
890.987549,326
891.104187,313
891.220886,312
891.337463,311
891.454102,325
891.57074,321
891.687378,320
891.804077,314
891.920654,322
892.037231,317
892.15387,329
892.270447,307
892.387085,314
892.503723,327
892.6203,319
892.736877,322
892.853516,320
892.970032,315
893.08667,337
893.203186,327
893.319763,311
893.43634,314
893.552917,338
893.669556,306
893.786011,324
893.902588,329
894.019165,311
894.135681,335
894.252197,316
894.368835,327
894.485291,319
894.601868,311
894.718384,313
894.8349,311
894.951355,313
895.067932,321
895.184448,313
895.300964,319
895.417419,317
895.533936,330
895.650452,310
895.766907,324
895.883423,320
895.999878,330
896.116333,319
896.232849,327
896.349304,325
896.465759,322
896.582214,317
896.698669,317
896.815125,310
896.931641,319
897.048035,327
897.164551,304
897.280884,335
897.397339,320
897.513794,306
897.630249,305
897.746582,309
897.863098,324
897.979431,321
898.095886,311
898.212341,321
898.328674,322
898.445129,321
898.561462,321
898.677795,318
898.794312,328
898.910645,313
899.026978,323
899.143433,330
899.259766,309
899.37616,330
899.492493,331
899.608765,326
899.725159,299
899.841553,321
899.957947,323
900.07428,308
900.190552,307
900.306946,325
900.423157,325
900.53949,316
900.655884,317
900.772156,323
900.888489,316
901.004822,312
901.121033,317
901.237366,316
901.353699,307
901.46991,322
901.586304,312
901.702515,313
901.818787,333
901.93512,323
902.051331,314
902.167603,325
902.283875,324
902.400085,327
902.516418,319
902.632629,323
902.74884,311
902.865112,327
902.981384,324
903.097595,333
903.213867,320
903.330017,322
903.446289,338
903.5625,331
903.67865,315
903.794922,327
903.911072,328
904.027344,322
904.143494,316
904.259705,318
904.375916,322
904.492065,305
904.608215,320
904.724426,323
904.840576,326
904.956726,323
905.072876,317
905.189087,310
905.305176,318
905.421387,315
905.537537,318
905.653687,314
905.769775,314
905.885925,319
906.002014,331
906.118164,309
906.234314,327
906.350403,316
906.466492,309
906.582642,323
906.69873,322
906.814758,312
906.930908,322
907.046936,311
907.163086,319
907.279175,322
907.395264,324
907.511353,323
907.62738,312
907.743408,315
907.859497,320
907.975525,320
908.091553,310
908.207703,313
908.32373,314
908.439758,339
908.555786,304
908.671814,316
908.787842,315
908.90387,323
909.019775,324
909.135864,309
909.251892,317
909.367859,319
909.483826,314
909.599854,318
909.715881,304
909.831848,324
909.947815,307
910.063782,322
910.179749,314
910.295776,313
910.411743,324
910.527649,320
910.643616,304
910.759583,307
910.875488,314
910.991455,332
911.107361,316
911.223267,327
911.339294,302
911.4552,322
911.571106,315
911.687073,318
911.802979,316
911.918823,309
912.034729,303
912.150635,310
912.266602,306
912.382446,319
912.498352,320
912.614197,312
912.730103,308
912.846008,316
792.44574,373
792.56488,403
792.68396,444
792.80304,439
792.92218,382
793.041199,369
793.160339,368
793.279419,372
793.398499,382
793.517578,363
793.636658,364
793.755737,370
793.874817,381
793.993896,385
794.112976,370
794.232056,360
794.351074,360
794.470215,343
794.589233,351
794.708313,369
794.827393,362
794.946411,364
795.065552,360
795.18457,359
795.303589,350
795.422668,346
795.541687,342
795.660767,337
795.779846,355
795.898865,348
796.017883,351
796.136963,341
796.255981,338
796.375061,356
796.49408,357
796.613037,341
796.732117,350
796.851135,349
796.970154,339
797.089233,331
797.208191,344
797.327271,334
797.446228,346
797.565186,345
797.684265,349
797.803223,351
797.922241,355
798.04126,354
798.160278,340
798.279297,337
798.398315,335
798.517273,347
798.636292,345
798.75531,348
798.874268,338
798.993286,322
799.112244,337
799.231323,329
799.350281,339
799.469238,340
799.588257,331
799.707153,348
799.826111,349
799.945129,330
800.064087,348
800.183044,327
800.302063,327
800.421021,333
800.539978,334
800.658936,342
800.777893,339
800.896912,330
801.015747,328
801.134705,332
801.253723,323
801.37262,349
801.491638,327
801.610535,333
801.729492,339
801.84845,328
801.967407,339
802.086243,347
802.205261,333
802.324158,328
802.443115,349
802.562073,319
802.680969,328
802.799927,332
802.918762,346
803.037659,323
803.156677,337
803.275574,336
803.39447,327
803.513428,329
803.632263,342
803.751221,339
803.870117,327
803.989014,342
804.107971,333
804.226746,335
804.345642,332
804.4646,328
804.583496,337
804.702393,327
804.821228,332
804.940125,322
805.059021,332
805.177917,334
805.296814,329
805.415649,327
805.534546,331
805.653442,343
805.772278,323
805.891113,332
806.01001,332
806.128906,329
806.247742,332
806.366577,323
806.485413,348
806.604309,335
806.723145,332
806.84198,329
806.960876,330
807.079712,334
807.198486,323
807.317383,329
807.436218,336
807.554993,327
807.673889,327
807.792725,326
807.91156,326
808.030396,333
808.14917,346
808.268005,322
808.386841,330
808.505676,327
808.624451,334
808.743286,328
808.862122,327
808.980896,325
809.099731,329
809.218506,325
809.337341,329
809.456116,313
809.57489,324
809.693726,321
809.8125,331
809.931274,328
810.050049,330
810.168884,314
810.287659,319
810.406372,335
810.525269,328
810.643982,322
810.762756,333
810.881531,319
811.000305,353
811.11908,340
811.237854,325
811.356567,314
811.475403,335
811.594116,319
811.71283,330
811.831604,330
811.950378,332
812.069153,320
812.187927,342
812.30658,317
812.425415,321
812.544128,322
812.662781,328
812.781616,328
812.900269,322
813.019043,321
813.137756,333
813.256531,337
813.375244,317
813.493896,337
813.612671,322
813.731384,327
813.850037,330
813.96875,328
814.087524,317
814.206238,330
814.324951,331
814.443604,344
814.562256,331
814.68103,333
814.799683,327
814.918335,323
815.037109,329
815.155762,332
815.274475,316
815.393188,326
815.511841,310
815.630554,330
815.749146,328
815.867859,326
815.986572,335
816.105164,326
816.223877,322
816.342529,334
816.461182,316
816.579895,319
816.698486,332
816.817139,332
816.935791,328
817.054504,316
817.173096,328
817.291748,327
817.4104,327
817.529053,320
817.647644,329
817.766235,331
817.884949,329
818.00354,322
818.122192,332
818.240845,314
818.359436,336
818.478088,323
818.59668,347
818.715271,321
818.833923,318
818.952515,327
819.071106,324
819.189758,321
819.30835,327
819.426941,319
819.545532,322
819.664124,332
819.782715,339
819.901306,325
820.019897,324
820.138489,326
820.25708,321
820.375671,322
820.494202,329
820.612732,315
820.731384,329
820.849915,314
820.968506,324
821.087097,319
821.205627,325
821.324158,323
821.442749,311
821.561279,324
821.679871,324
821.798401,317
821.916931,319
822.035461,316
822.154053,340
822.272583,312
822.391174,318
822.509583,309
822.628174,321
822.746704,323
822.865234,311
822.983765,320
823.102295,320
823.220825,323
823.339294,331
823.457825,315
823.576355,343
823.694824,322
823.813354,313
823.931885,325
824.050354,326
824.168884,318
824.287354,317
824.405823,318
824.524353,316
824.642822,316
824.761353,324
824.879822,317
824.998291,331
825.116699,325
825.235291,313
825.353699,329
825.472168,319
825.590637,321
825.709106,317
825.827576,315
825.946045,324
826.064453,321
826.182983,313
826.301392,311
826.4198,325
826.53833,326
826.656738,337
826.775208,319
826.893677,318
827.012024,320
827.130493,313
827.248962,320
827.36731,318
827.485779,331
827.604248,315
827.722595,314
827.841064,318
827.959412,306
828.077942,313
828.196289,325
828.314636,317
828.433105,324
828.551514,310
828.669861,336
828.78833,318
828.906677,333
829.025085,318
829.143433,312
829.261841,323
829.38031,330
829.498657,331
829.617004,318
829.735413,326
829.85376,321
829.972107,308
830.090515,326
830.208862,331
830.327209,312
830.445557,326
830.563904,314
830.682312,316
830.800659,323
830.919006,322
831.037354,326
831.155701,318
831.274048,312
831.392395,325
831.51062,320
831.629028,330
831.747314,305
831.865662,338
831.984009,320
832.102356,322
832.220642,345
832.338928,324
832.457275,317
832.575623,336
832.693909,312
832.812134,325
832.930481,315
833.048828,314
833.167114,322
833.2854,311
833.403687,309
833.521973,319
833.640259,318
833.758545,319
833.876831,318
833.995056,328
834.113281,326
834.231628,331
834.349915,310
834.468201,316
834.586426,332
834.704651,317
834.822998,325
834.941162,325
835.059448,322
835.177673,328
835.295959,322
835.414246,328
835.53241,320
835.650635,330
835.768921,315
835.887146,315
836.005371,326
836.123596,319
836.241821,319
836.360046,329
836.478271,321
836.596497,334
836.714722,325
836.832886,329
836.95105,322
837.069336,332
837.1875,309
837.305725,336
837.423889,319
837.542053,320
837.660339,332
837.778503,321
837.896667,325
838.014832,314
838.132996,325
838.25116,331
838.369385,332
838.487488,321
838.605713,310
838.723877,327
838.84198,320
838.960205,325
839.078308,328
839.196472,333
839.314636,316
839.4328,314
839.550964,328
839.669067,328
839.787231,326
839.905396,317
840.023499,327
840.141602,331
840.259766,323
840.377869,330
840.495972,324
840.614136,323
840.732239,308
840.850342,326
840.968445,324
841.086548,326
841.204651,312
841.322754,330
841.440918,324
841.55896,331
841.677002,329
841.795166,327
841.913208,326
842.031311,323
842.149353,319
842.267456,329
842.385498,320
842.503601,335
842.621643,331
842.739746,330
842.857788,325
842.97583,316
843.093933,323
843.211975,329
843.330017,333
843.44812,326
843.566101,326
843.684204,328
843.802246,325
843.920227,333
844.038269,318
844.156311,329
844.274292,334
844.392395,317
844.510376,314
844.628357,335
844.74646,326
844.864441,310
844.982422,314
845.100403,316
845.218384,323
845.336426,330
845.454468,322
845.572449,321
845.69043,315
845.808411,320
845.926453,316
846.044373,312
846.162354,329
846.280396,329
846.398315,336
846.516296,338
846.634216,305
846.752197,316
846.870178,312
846.988098,331
847.106079,320
847.22406,320
847.34198,321
847.4599,336
847.577881,321
847.695801,326
847.813782,329
847.931641,332
848.049561,313
848.167603,335
848.285461,322
848.403381,324
848.521362,326
848.639221,332
848.75708,315
848.875,340
848.99292,317
849.110901,331
849.22876,331
849.34668,321
849.464539,320
849.582458,332
849.700317,315
849.818176,329
849.936096,336
850.053955,315
850.171875,321
850.289673,321
850.407593,325
850.525452,336
850.643311,307
850.761169,327
850.878967,324
850.996887,324
851.114746,330
851.232544,337
851.350403,318
851.468262,313
851.58606,308
851.703979,327
851.821777,322
851.939636,323
852.057434,322
852.175232,316
852.293091,329
852.410889,317
852.528687,333
852.646545,322
852.764343,339
852.88208,320
852.999939,325
853.117676,316
853.235535,324
853.353271,330
853.471069,318
853.588928,328
853.706604,324
853.824402,331
853.9422,326
854.059998,316
854.177734,334
854.295532,323
854.413269,320
854.531006,325
854.648804,320
854.766541,309
854.884277,335
855.002014,335
855.119751,320
855.237549,323
855.355225,326
855.473022,328
855.590698,317
855.708435,331
855.826172,317
855.943848,327
856.061646,319
856.179321,333
856.296997,305
856.414795,320
856.53241,321
856.650085,339
856.767822,331
856.885559,338
857.003174,328
857.120911,313
857.238586,323
857.356201,345
857.473938,334
857.591614,326
857.709351,320
857.826965,320
857.944641,332
858.062317,323
858.179993,326
858.297668,313
858.415283,322
858.532959,322
858.650574,321
858.768188,317
858.885803,322
859.003479,311
859.121094,341
859.23877,315
859.356384,338
859.473999,329
859.591675,321
859.709229,337
859.826843,324
859.944458,329
860.062012,326
860.179626,322
860.297302,320
860.414856,325
860.532471,313
860.650024,329
860.767639,321
860.885193,314
861.002808,330
861.120361,320
861.237976,320
861.35553,325
861.473022,329
861.590698,319
861.708191,325
861.825745,314
861.943298,337
862.060852,312
862.178406,320
862.295959,335
862.413513,328
862.531006,313
862.64856,332
862.766113,307
862.883667,320
863.00116,322
863.118713,322
863.236206,325
863.353699,335
863.471252,320
863.588745,341
863.706177,319
863.82373,318
863.941162,324
864.058716,335
864.176208,320
864.29364,307
864.411194,329
864.528687,320
864.646118,320
864.763611,321
864.881042,323
864.998535,327
865.116028,306
865.233459,321
865.350891,330
865.468384,318
865.585754,320
865.703308,336
865.820679,320
865.938171,334
866.055542,313
866.173035,310
866.290466,329
866.407837,307
866.52533,341
866.6427,316
866.760071,337
866.877563,310
866.994934,325
867.112305,322
867.229736,315
867.347107,324
867.464539,317
867.58197,338
867.699341,327
867.81665,321
867.934082,327
868.051453,328
868.168823,325
868.286194,321
868.403564,322
868.520935,319
868.638306,321
868.755676,344
868.872986,312
868.990295,312
869.107727,329
869.225037,306
869.342346,330
869.459717,316
869.577026,321
869.694336,320
869.811707,315
869.929016,326
870.046326,328
870.163635,316
870.280945,326
870.398254,334
870.515564,337
870.632812,320
870.750183,330
870.867432,325
870.984741,325
871.102051,306
871.219299,316
871.336609,315
871.453918,324
871.571106,312
871.688416,328
871.805664,319
871.922852,343
872.040222,314
872.157471,327
872.274719,321
872.391968,313
872.509155,333
872.626465,327
872.743652,331
872.860962,333
872.978149,325
873.095337,321
873.212646,327
873.329834,330
873.44696,319
873.564209,338
873.681396,316
873.798645,331
873.915894,325
874.03302,336
874.150208,315
874.267456,328
874.384583,327
874.501831,329
874.618958,326
874.736145,333
874.853333,336
874.970459,323
875.087646,320
875.204834,328
875.32196,321
875.439148,330
875.556274,321
875.673401,330
875.790527,332
875.907715,314
876.024841,314
876.141968,338
876.259094,332
876.376282,328
876.493347,320
876.610474,313
876.7276,321
876.844727,326
876.961853,315
877.078918,323
877.195984,321
877.313171,318
877.430237,314
877.547302,331
877.664368,312
877.781433,336
877.898499,323
878.015625,332
878.13269,336
878.249695,317
878.366821,313
878.483887,334
878.600952,313
878.717957,325
878.834961,324
878.952087,337
879.069092,305
879.186157,320
879.303162,314
879.420227,323
879.537231,321
879.654236,332
879.77124,326
879.888306,321
880.005249,305
880.122314,331
880.239319,314
880.356323,314
880.473328,328
880.590271,333
880.707275,321
880.824341,332
880.941284,318
881.058228,329
881.175232,316
881.292236,319
881.40918,323
881.526123,330
881.643066,310
881.760071,314
881.877014,317
881.993958,322
882.11084,326
882.227783,325
882.344727,311
882.46167,334
882.578613,314
882.695618,318
882.812439,317
882.929382,324
883.046326,320
883.163208,322
883.280151,307
883.397034,334
883.513916,319
883.630798,312
883.747742,327
883.864563,322
883.981506,319
884.098389,302
884.21521,313
884.332153,326
884.448975,308
884.565796,326
884.682678,331
884.7995,324
884.916443,320
885.033264,332
885.150085,327
885.266968,326
885.383789,327
885.500671,352
885.617493,330
885.734314,327
885.851196,321
885.967896,335
886.084717,330
886.201599,334
886.318359,339
886.435181,332
886.552002,324
886.668762,336
886.785645,323
886.902344,343
887.019165,334
887.135925,338
887.252747,317
887.369446,337
887.486267,332
887.603027,316
887.719788,308
887.836548,327
887.953247,330
888.070068,322
888.186829,323
888.303528,319
888.420288,315
888.536987,320
888.653687,315
888.770447,310
888.887146,312
889.003967,322
889.120667,311
889.237305,323
889.354065,319
889.470703,321
889.587463,316
889.704163,314
889.820862,322
889.937561,312
890.054199,320
890.170837,333
890.287598,318
890.404236,333
890.520874,318
890.637634,316
890.754211,310
890.87085,317
890.987549,318
891.104187,320
891.220886,313
891.337463,314
891.454102,322
891.57074,334
891.687378,318
891.804077,314
891.920654,316
892.037231,317
892.15387,329
892.270447,316
892.387085,317
892.503723,319
892.6203,319
892.736877,330
892.853516,327
892.970032,327
893.08667,312
893.203186,321
893.319763,314
893.43634,331
893.552917,319
893.669556,311
893.786011,302
893.902588,312
894.019165,314
894.135681,325
894.252197,316
894.368835,310
894.485291,313
894.601868,313
894.718384,318
894.8349,331
894.951355,316
895.067932,327
895.184448,311
895.300964,319
895.417419,312
895.533936,319
895.650452,313
895.766907,340
895.883423,313
895.999878,322
896.116333,308
896.232849,328
896.349304,314
896.465759,326
896.582214,308
896.698669,326
896.815125,321
896.931641,314
897.048035,327
897.164551,314
897.280884,314
897.397339,323
897.513794,316
897.630249,326
897.746582,314
897.863098,321
897.979431,315
898.095886,326
898.212341,317
898.328674,323
898.445129,302
898.561462,328
898.677795,318
898.794312,322
898.910645,315
899.026978,326
899.143433,328
899.259766,316
899.37616,309
899.492493,321
899.608765,313
899.725159,327
899.841553,328
899.957947,325
900.07428,315
900.190552,315
900.306946,315
900.423157,320
900.53949,305
900.655884,311
900.772156,312
900.888489,320
901.004822,307
901.121033,319
901.237366,327
901.353699,318
901.46991,317
901.586304,332
901.702515,310
901.818787,329
901.93512,319
902.051331,325
902.167603,328
902.283875,329
902.400085,328
902.516418,339
902.632629,332
902.74884,327
902.865112,322
902.981384,326
903.097595,304
903.213867,325
903.330017,320
903.446289,315
903.5625,319
903.67865,339
903.794922,332
903.911072,324
904.027344,304
904.143494,329
904.259705,297
904.375916,336
904.492065,306
904.608215,317
904.724426,332
904.840576,326
904.956726,325
905.072876,317
905.189087,318
905.305176,315
905.421387,316
905.537537,331
905.653687,322
905.769775,322
905.885925,319
906.002014,325
906.118164,301
906.234314,316
906.350403,308
906.466492,326
906.582642,306
906.69873,315
906.814758,322
906.930908,321
907.046936,323
907.163086,329
907.279175,324
907.395264,320
907.511353,298
907.62738,330
907.743408,307
907.859497,319
907.975525,323
908.091553,323
908.207703,321
908.32373,325
908.439758,319
908.555786,315
908.671814,296
908.787842,320
908.90387,317
909.019775,319
909.135864,316
909.251892,320
909.367859,328
909.483826,323
909.599854,299
909.715881,324
909.831848,304
909.947815,323
910.063782,316
910.179749,336
910.295776,303
910.411743,321
910.527649,307
910.643616,307
910.759583,323
910.875488,332
910.991455,314
911.107361,330
911.223267,314
911.339294,310
911.4552,310
911.571106,317
911.687073,314
911.802979,314
911.918823,318
912.034729,318
912.150635,315
912.266602,326
912.382446,308
912.498352,308
912.614197,320
912.730103,306
912.846008,315
792.44574,374
792.56488,405
792.68396,472
792.80304,413
792.92218,385
793.041199,368
793.160339,360
793.279419,384
793.398499,375
793.517578,352
793.636658,370
793.755737,355
793.874817,389
793.993896,365
794.112976,365
794.232056,354
794.351074,356
794.470215,360
794.589233,355
794.708313,358
794.827393,351
794.946411,346
795.065552,360
795.18457,358
795.303589,362
795.422668,342
795.541687,359
795.660767,361
795.779846,349
795.898865,354
796.017883,351
796.136963,349
796.255981,350
796.375061,328
796.49408,354
796.613037,344
796.732117,347
796.851135,341
796.970154,344
797.089233,339
797.208191,345
797.327271,335
797.446228,332
797.565186,352
797.684265,341
797.803223,348
797.922241,342
798.04126,332
798.160278,325
798.279297,328
798.398315,341
798.517273,356
798.636292,344
798.75531,337
798.874268,338
798.993286,339
799.112244,344
799.231323,333
799.350281,348
799.469238,332
799.588257,342
799.707153,334
799.826111,339
799.945129,334
800.064087,343
800.183044,330
800.302063,333
800.421021,343
800.539978,335
800.658936,339
800.777893,339
800.896912,335
801.015747,344
801.134705,326
801.253723,336
801.37262,336
801.491638,342
801.610535,350
801.729492,337
801.84845,326
801.967407,328
802.086243,334
802.205261,334
802.324158,325
802.443115,337
802.562073,308
802.680969,339
802.799927,332
802.918762,322
803.037659,338
803.156677,324
803.275574,329
803.39447,329
803.513428,330
803.632263,333
803.751221,331
803.870117,344
803.989014,331
804.107971,339
804.226746,342
804.345642,327
804.4646,335
804.583496,343
804.702393,337
804.821228,338
804.940125,322
805.059021,328
805.177917,330
805.296814,335
805.415649,325
805.534546,340
805.653442,335
805.772278,326
805.891113,326
806.01001,338
806.128906,331
806.247742,349
806.366577,318
806.485413,333
806.604309,333
806.723145,345
806.84198,326
806.960876,334
807.079712,330
807.198486,325
807.317383,324
807.436218,321
807.554993,333
807.673889,319
807.792725,340
807.91156,323
808.030396,322
808.14917,328
808.268005,333
808.386841,331
808.505676,320
808.624451,326
808.743286,318
808.862122,317
808.980896,314
809.099731,319
809.218506,335
809.337341,324
809.456116,341
809.57489,326
809.693726,328
809.8125,330
809.931274,329
810.050049,325
810.168884,332
810.287659,335
810.406372,317
810.525269,325
810.643982,322
810.762756,339
810.881531,338
811.000305,323
811.11908,334
811.237854,329
811.356567,332
811.475403,317
811.594116,330
811.71283,331
811.831604,320
811.950378,314
812.069153,343
812.187927,317
812.30658,328
812.425415,330
812.544128,322
812.662781,328
812.781616,326
812.900269,336
813.019043,326
813.137756,326
813.256531,321
813.375244,328
813.493896,326
813.612671,319
813.731384,327
813.850037,323
813.96875,327
814.087524,331
814.206238,318
814.324951,350
814.443604,317
814.562256,332
814.68103,322
814.799683,317
814.918335,325
815.037109,336
815.155762,319
815.274475,338
815.393188,336
815.511841,340
815.630554,327
815.749146,335
815.867859,319
815.986572,333
816.105164,325
816.223877,339
816.342529,326
816.461182,338
816.579895,311
816.698486,338
816.817139,315
816.935791,343
817.054504,322
817.173096,330
817.291748,326
817.4104,327
817.529053,338
817.647644,324
817.766235,332
817.884949,338
818.00354,319
818.122192,336
818.240845,315
818.359436,330
818.478088,327
818.59668,328
818.715271,317
818.833923,335
818.952515,322
819.071106,325
819.189758,322
819.30835,321
819.426941,325
819.545532,317
819.664124,336
819.782715,325
819.901306,322
820.019897,336
820.138489,314
820.25708,334
820.375671,317
820.494202,324
820.612732,319
820.731384,318
820.849915,315
820.968506,328
821.087097,323
821.205627,328
821.324158,320
821.442749,321
821.561279,321
821.679871,329
821.798401,320
821.916931,315
822.035461,316
822.154053,319
822.272583,325
822.391174,323
822.509583,308
822.628174,303
822.746704,314
822.865234,315
822.983765,325
823.102295,320
823.220825,318
823.339294,325
823.457825,314
823.576355,320
823.694824,315
823.813354,326
823.931885,313
824.050354,314
824.168884,319
824.287354,324
824.405823,315
824.524353,323
824.642822,326
824.761353,314
824.879822,320
824.998291,321
825.116699,335
825.235291,332
825.353699,309
825.472168,325
825.590637,313
825.709106,319
825.827576,326
825.946045,342
826.064453,310
826.182983,327
826.301392,324
826.4198,312
826.53833,322
826.656738,318
826.775208,317
826.893677,330
827.012024,312
827.130493,329
827.248962,317
827.36731,323
827.485779,324
827.604248,336
827.722595,318
827.841064,324
827.959412,326
828.077942,316
828.196289,309
828.314636,329
828.433105,316
828.551514,321
828.669861,318
828.78833,323
828.906677,320
829.025085,324
829.143433,313
829.261841,318
829.38031,313
829.498657,336
829.617004,316
829.735413,329
829.85376,316
829.972107,335
830.090515,323
830.208862,315
830.327209,333
830.445557,303
830.563904,322
830.682312,301
830.800659,311
830.919006,319
831.037354,318
831.155701,321
831.274048,330
831.392395,325
831.51062,322
831.629028,317
831.747314,315
831.865662,330
831.984009,326
832.102356,326
832.220642,306
832.338928,325
832.457275,324
832.575623,330
832.693909,311
832.812134,316
832.930481,323
833.048828,321
833.167114,315
833.2854,315
833.403687,316
833.521973,320
833.640259,324
833.758545,324
833.876831,324
833.995056,315
834.113281,329
834.231628,314
834.349915,318
834.468201,324
834.586426,316
834.704651,312
834.822998,332
834.941162,315
835.059448,309
835.177673,309
835.295959,316
835.414246,315
835.53241,320
835.650635,318
835.768921,315
835.887146,322
836.005371,334
836.123596,317
836.241821,314
836.360046,323
836.478271,313
836.596497,314
836.714722,321
836.832886,316
836.95105,326
837.069336,309
837.1875,320
837.305725,323
837.423889,322
837.542053,307
837.660339,335
837.778503,315
837.896667,317
838.014832,315
838.132996,321
838.25116,324
838.369385,317
838.487488,308
838.605713,322
838.723877,322
838.84198,336
838.960205,327
839.078308,314
839.196472,326
839.314636,316
839.4328,329
839.550964,315
839.669067,327
839.787231,322
839.905396,314
840.023499,319
840.141602,313
840.259766,324
840.377869,323
840.495972,325
840.614136,330
840.732239,331
840.850342,331
840.968445,323
841.086548,347
841.204651,331
841.322754,331
841.440918,320
841.55896,311
841.677002,317
841.795166,338
841.913208,327
842.031311,326
842.149353,320
842.267456,332
842.385498,304
842.503601,344
842.621643,320
842.739746,334
842.857788,327
842.97583,327
843.093933,324
843.211975,335
843.330017,313
843.44812,328
843.566101,318
843.684204,334
843.802246,320
843.920227,335
844.038269,319
844.156311,329
844.274292,320
844.392395,321
844.510376,330
844.628357,324
844.74646,324
844.864441,318
844.982422,326
845.100403,330
845.218384,305
845.336426,329
845.454468,316
845.572449,323
845.69043,325
845.808411,315
845.926453,324
846.044373,308
846.162354,320
846.280396,330
846.398315,321
846.516296,336
846.634216,317
846.752197,319
846.870178,325
846.988098,323
847.106079,334
847.22406,329
847.34198,315
847.4599,319
847.577881,327
847.695801,327
847.813782,326
847.931641,325
848.049561,311
848.167603,323
848.285461,320
848.403381,324
848.521362,314
848.639221,336
848.75708,310
848.875,333
848.99292,326
849.110901,318
849.22876,319
849.34668,331
849.464539,327
849.582458,330
849.700317,315
849.818176,328
849.936096,311
850.053955,334
850.171875,326
850.289673,334
850.407593,323
850.525452,330
850.643311,328
850.761169,334
850.878967,313
850.996887,330
851.114746,307
851.232544,323
851.350403,319
851.468262,315
851.58606,331
851.703979,319
851.821777,321
851.939636,321
852.057434,321
852.175232,328
852.293091,321
852.410889,329
852.528687,325
852.646545,337
852.764343,314
852.88208,326
852.999939,320
853.117676,323
853.235535,313
853.353271,332
853.471069,306
853.588928,324
853.706604,328
853.824402,335
853.9422,323
854.059998,314
854.177734,336
854.295532,328
854.413269,308
854.531006,339
854.648804,338
854.766541,324
854.884277,332
855.002014,324
855.119751,313
855.237549,334
855.355225,323
855.473022,326
855.590698,324
855.708435,330
855.826172,323
855.943848,323
856.061646,321
856.179321,328
856.296997,326
856.414795,319
856.53241,329
856.650085,343
856.767822,323
856.885559,324
857.003174,324
857.120911,330
857.238586,342
857.356201,329
857.473938,321
857.591614,335
857.709351,328
857.826965,336
857.944641,319
858.062317,333
858.179993,316
858.297668,338
858.415283,322
858.532959,326
858.650574,333
858.768188,339
858.885803,316
859.003479,314
859.121094,330
859.23877,319
859.356384,305
859.473999,339
859.591675,318
859.709229,322
859.826843,326
859.944458,329
860.062012,338
860.179626,329
860.297302,313
860.414856,324
860.532471,337
860.650024,326
860.767639,318
860.885193,320
861.002808,322
861.120361,319
861.237976,317
861.35553,323
861.473022,319
861.590698,322
861.708191,327
861.825745,316
861.943298,318
862.060852,327
862.178406,316
862.295959,323
862.413513,323
862.531006,322
862.64856,307
862.766113,337
862.883667,312
863.00116,318
863.118713,332
863.236206,313
863.353699,323
863.471252,305
863.588745,320
863.706177,336
863.82373,331
863.941162,334
864.058716,318
864.176208,320
864.29364,321
864.411194,324
864.528687,324
864.646118,320
864.763611,310
864.881042,319
864.998535,326
865.116028,320
865.233459,334
865.350891,329
865.468384,313
865.585754,323
865.703308,315
865.820679,324
865.938171,320
866.055542,325
866.173035,310
866.290466,324
866.407837,305
866.52533,323
866.6427,321
866.760071,319
866.877563,319
866.994934,323
867.112305,319
867.229736,324
867.347107,320
867.464539,339
867.58197,315
867.699341,322
867.81665,334
867.934082,317
868.051453,337
868.168823,319
868.286194,316
868.403564,325
868.520935,324
868.638306,331
868.755676,322
868.872986,327
868.990295,320
869.107727,335
869.225037,328
869.342346,325
869.459717,319
869.577026,325
869.694336,324
869.811707,337
869.929016,326
870.046326,339
870.163635,331
870.280945,336
870.398254,335
870.515564,329
870.632812,328
870.750183,323
870.867432,323
870.984741,334
871.102051,328
871.219299,322
871.336609,325
871.453918,330
871.571106,328
871.688416,327
871.805664,322
871.922852,323
872.040222,317
872.157471,336
872.274719,315
872.391968,334
872.509155,325
872.626465,331
872.743652,322
872.860962,321
872.978149,328
873.095337,338
873.212646,324
873.329834,324
873.44696,320
873.564209,337
873.681396,332
873.798645,319
873.915894,317
874.03302,327
874.150208,329
874.267456,329
874.384583,311
874.501831,341
874.618958,321
874.736145,329
874.853333,316
874.970459,325
875.087646,324
875.204834,320
875.32196,328
875.439148,312
875.556274,317
875.673401,317
875.790527,322
875.907715,330
876.024841,328
876.141968,329
876.259094,337
876.376282,335
876.493347,314
876.610474,321
876.7276,316
876.844727,325
876.961853,326
877.078918,341
877.195984,332
877.313171,327
877.430237,319
877.547302,328
877.664368,307
877.781433,319
877.898499,312
878.015625,334
878.13269,314
878.249695,329
878.366821,329
878.483887,324
878.600952,320
878.717957,323
878.834961,333
878.952087,326
879.069092,320
879.186157,334
879.303162,324
879.420227,334
879.537231,319
879.654236,335
879.77124,313
879.888306,308
880.005249,322
880.122314,326
880.239319,306
880.356323,324
880.473328,317
880.590271,327
880.707275,325
880.824341,324
880.941284,328
881.058228,315
881.175232,311
881.292236,328
881.40918,317
881.526123,311
881.643066,322
881.760071,324
881.877014,326
881.993958,314
882.11084,310
882.227783,314
882.344727,316
882.46167,325
882.578613,320
882.695618,324
882.812439,322
882.929382,320
883.046326,337
883.163208,329
883.280151,314
883.397034,324
883.513916,332
883.630798,325
883.747742,321
883.864563,325
883.981506,314
884.098389,314
884.21521,330
884.332153,321
884.448975,315
884.565796,326
884.682678,313
884.7995,328
884.916443,326
885.033264,313
885.150085,333
885.266968,330
885.383789,328
885.500671,321
885.617493,345
885.734314,337
885.851196,325
885.967896,335
886.084717,318
886.201599,345
886.318359,320
886.435181,331
886.552002,317
886.668762,319
886.785645,328
886.902344,342
887.019165,335
887.135925,329
887.252747,326
887.369446,330
887.486267,328
887.603027,327
887.719788,312
887.836548,309
887.953247,320
888.070068,334
888.186829,333
888.303528,323
888.420288,305
888.536987,317
888.653687,323
888.770447,315
888.887146,314
889.003967,329
889.120667,319
889.237305,307
889.354065,300
889.470703,324
889.587463,317
889.704163,310
889.820862,302
889.937561,337
890.054199,310
890.170837,317
890.287598,311
890.404236,316
890.520874,319
890.637634,324
890.754211,302
890.87085,314
890.987549,314
891.104187,323
891.220886,318
891.337463,329
891.454102,317
891.57074,322
891.687378,320
891.804077,323
891.920654,309
892.037231,328
892.15387,324
892.270447,336
892.387085,311
892.503723,320
892.6203,308
892.736877,329
892.853516,312
892.970032,324
893.08667,312
893.203186,319
893.319763,299
893.43634,323
893.552917,326
893.669556,326
893.786011,319
893.902588,322
894.019165,316
894.135681,327
894.252197,327
894.368835,334
894.485291,315
894.601868,318
894.718384,326
894.8349,321
894.951355,321
895.067932,317
895.184448,326
895.300964,315
895.417419,329
895.533936,330
895.650452,315
895.766907,319
895.883423,312
895.999878,331
896.116333,319
896.232849,304
896.349304,316
896.465759,318
896.582214,316
896.698669,323
896.815125,309
896.931641,307
897.048035,312
897.164551,324
897.280884,312
897.397339,324
897.513794,314
897.630249,325
897.746582,325
897.863098,323
897.979431,325
898.095886,331
898.212341,317
898.328674,312
898.445129,332
898.561462,318
898.677795,312
898.794312,319
898.910645,311
899.026978,319
899.143433,316
899.259766,319
899.37616,327
899.492493,322
899.608765,325
899.725159,321
899.841553,320
899.957947,321
900.07428,313
900.190552,327
900.306946,323
900.423157,326
900.53949,322
900.655884,323
900.772156,306
900.888489,323
901.004822,319
901.121033,326
901.237366,316
901.353699,320
901.46991,316
901.586304,316
901.702515,327
901.818787,327
901.93512,321
902.051331,327
902.167603,341
902.283875,326
902.400085,332
902.516418,327
902.632629,315
902.74884,329
902.865112,318
902.981384,333
903.097595,315
903.213867,324
903.330017,317
903.446289,320
903.5625,324
903.67865,324
903.794922,318
903.911072,323
904.027344,322
904.143494,304
904.259705,321
904.375916,324
904.492065,319
904.608215,314
904.724426,317
904.840576,330
904.956726,316
905.072876,308
905.189087,314
905.305176,326
905.421387,326
905.537537,322
905.653687,321
905.769775,326
905.885925,313
906.002014,328
906.118164,302
906.234314,328
906.350403,321
906.466492,322
906.582642,326
906.69873,312
906.814758,320
906.930908,322
907.046936,313
907.163086,331
907.279175,323
907.395264,304
907.511353,318
907.62738,314
907.743408,314
907.859497,312
907.975525,321
908.091553,320
908.207703,317
908.32373,333
908.439758,315
908.555786,326
908.671814,321
908.787842,322
908.90387,313
909.019775,312
909.135864,313
909.251892,325
909.367859,319
909.483826,317
909.599854,313
909.715881,312
909.831848,330
909.947815,322
910.063782,311
910.179749,311
910.295776,319
910.411743,312
910.527649,310
910.643616,320
910.759583,318
910.875488,325
910.991455,320
911.107361,309
911.223267,317
911.339294,317
911.4552,304
911.571106,318
911.687073,314
911.802979,327
911.918823,314
912.034729,328
912.150635,315
912.266602,320
912.382446,317
912.498352,307
912.614197,305
912.730103,315
912.846008,337
