792.44574,370
792.56488,391
792.68396,439
792.80304,415
792.92218,395
793.041199,374
793.160339,352
793.279419,371
793.398499,378
793.517578,361
793.636658,355
793.755737,368
793.874817,366
793.993896,385
794.112976,357
794.232056,341
794.351074,361
794.470215,361
794.589233,358
794.708313,351
794.827393,363
794.946411,358
795.065552,378
795.18457,357
795.303589,364
795.422668,354
795.541687,347
795.660767,347
795.779846,351
795.898865,361
796.017883,344
796.136963,345
796.255981,344
796.375061,353
796.49408,346
796.613037,334
796.732117,334
796.851135,353
796.970154,336
797.089233,330
797.208191,349
797.327271,347
797.446228,336
797.565186,337
797.684265,357
797.803223,349
797.922241,338
798.04126,351
798.160278,324
798.279297,335
798.398315,334
798.517273,328
798.636292,341
798.75531,343
798.874268,330
798.993286,350
799.112244,335
799.231323,350
799.350281,334
799.469238,339
799.588257,329
799.707153,360
799.826111,323
799.945129,331
800.064087,333
800.183044,323
800.302063,345
800.421021,351
800.539978,323
800.658936,327
800.777893,331
800.896912,336
801.015747,338
801.134705,337
801.253723,341
801.37262,350
801.491638,339
801.610535,332
801.729492,324
801.84845,324
801.967407,332
802.086243,338
802.205261,336
802.324158,336
802.443115,340
802.562073,321
802.680969,338
802.799927,332
802.918762,326
803.037659,334
803.156677,327
803.275574,333
803.39447,342
803.513428,330
803.632263,327
803.751221,328
803.870117,335
803.989014,344
804.107971,324
804.226746,332
804.345642,323
804.4646,322
804.583496,337
804.702393,330
804.821228,336
804.940125,327
805.059021,338
805.177917,311
805.296814,330
805.415649,326
805.534546,327
805.653442,330
805.772278,323
805.891113,328
806.01001,329
806.128906,321
806.247742,338
806.366577,332
806.485413,330
806.604309,336
806.723145,314
806.84198,322
806.960876,333
807.079712,326
807.198486,335
807.317383,330
807.436218,329
807.554993,331
807.673889,321
807.792725,332
807.91156,327
808.030396,336
808.14917,331
808.268005,327
808.386841,328
808.505676,328
808.624451,331
808.743286,325
808.862122,324
808.980896,331
809.099731,330
809.218506,327
809.337341,332
809.456116,319
809.57489,323
809.693726,323
809.8125,325
809.931274,325
810.050049,344
810.168884,325
810.287659,324
810.406372,326
810.525269,320
810.643982,327
810.762756,336
810.881531,325
811.000305,330
811.11908,319
811.237854,341
811.356567,326
811.475403,340
811.594116,324
811.71283,328
811.831604,329
811.950378,326
812.069153,327
812.187927,336
812.30658,333
812.425415,329
812.544128,326
812.662781,337
812.781616,329
812.900269,341
813.019043,326
813.137756,327
813.256531,335
813.375244,336
813.493896,331
813.612671,333
813.731384,323
813.850037,332
813.96875,343
814.087524,318
814.206238,309
814.324951,331
814.443604,318
814.562256,324
814.68103,317
814.799683,323
814.918335,324
815.037109,317
815.155762,335
815.274475,324
815.393188,325
815.511841,327
815.630554,324
815.749146,330
815.867859,313
815.986572,315
816.105164,317
816.223877,330
816.342529,331
816.461182,326
816.579895,318
816.698486,333
816.817139,330
816.935791,321
817.054504,317
817.173096,329
817.291748,330
817.4104,325
817.529053,332
817.647644,338
817.766235,326
817.884949,325
818.00354,321
818.122192,331
818.240845,318
818.359436,317
818.478088,322
818.59668,318
818.715271,324
818.833923,328
818.952515,321
819.071106,322
819.189758,323
819.30835,326
819.426941,344
819.545532,314
819.664124,328
819.782715,324
819.901306,324
820.019897,321
820.138489,319
820.25708,309
820.375671,326
820.494202,311
820.612732,316
820.731384,327
820.849915,319
820.968506,316
821.087097,321
821.205627,323
821.324158,323
821.442749,333
821.561279,335
821.679871,321
821.798401,325
821.916931,312
822.035461,326
822.154053,328
822.272583,314
822.391174,317
822.509583,315
822.628174,328
822.746704,315
822.865234,316
822.983765,309
823.102295,318
823.220825,319
823.339294,317
823.457825,319
823.576355,322
823.694824,319
823.813354,306
823.931885,322
824.050354,322
824.168884,322
824.287354,321
824.405823,312
824.524353,323
824.642822,319
824.761353,323
824.879822,316
824.998291,327
825.116699,316
825.235291,318
825.353699,322
825.472168,316
825.590637,321
825.709106,322
825.827576,315
825.946045,327
826.064453,328
826.182983,319
826.301392,322
826.4198,318
826.53833,323
826.656738,312
826.775208,327
826.893677,315
827.012024,323
827.130493,310
827.248962,306
827.36731,333
827.485779,313
827.604248,320
827.722595,327
827.841064,337
827.959412,318
828.077942,321
828.196289,324
828.314636,319
828.433105,309
828.551514,328
828.669861,324
828.78833,334
828.906677,331
829.025085,327
829.143433,319
829.261841,312
829.38031,313
829.498657,303
829.617004,319
829.735413,329
829.85376,300
829.972107,321
830.090515,329
830.208862,326
830.327209,310
830.445557,318
830.563904,311
830.682312,312
830.800659,313
830.919006,337
831.037354,314
831.155701,320
831.274048,321
831.392395,314
831.51062,320
831.629028,312
831.747314,323
831.865662,310
831.984009,325
832.102356,337
832.220642,321
832.338928,319
832.457275,324
832.575623,313
832.693909,320
832.812134,314
832.930481,332
833.048828,315
833.167114,313
833.2854,323
833.403687,320
833.521973,329
833.640259,320
833.758545,326
833.876831,318
833.995056,330
834.113281,324
834.231628,320
834.349915,310
834.468201,315
834.586426,312
834.704651,335
834.822998,317
834.941162,318
835.059448,318
835.177673,311
835.295959,330
835.414246,312
835.53241,322
835.650635,321
835.768921,314
835.887146,315
836.005371,309
836.123596,322
836.241821,322
836.360046,318
836.478271,310
836.596497,312
836.714722,321
836.832886,304
836.95105,334
837.069336,321
837.1875,327
837.305725,320
837.423889,326
837.542053,318
837.660339,329
837.778503,326
837.896667,305
838.014832,323
838.132996,316
838.25116,320
838.369385,322
838.487488,318
838.605713,320
838.723877,321
838.84198,326
838.960205,333
839.078308,315
839.196472,313
839.314636,317
839.4328,321
839.550964,308
839.669067,332
839.787231,322
839.905396,317
840.023499,331
840.141602,317
840.259766,319
840.377869,320
840.495972,334
840.614136,312
840.732239,335
840.850342,331
840.968445,315
841.086548,330
841.204651,328
841.322754,319
841.440918,321
841.55896,322
841.677002,331
841.795166,326
841.913208,330
842.031311,331
842.149353,336
842.267456,330
842.385498,335
842.503601,330
842.621643,328
842.739746,328
842.857788,326
842.97583,325
843.093933,327
843.211975,323
843.330017,313
843.44812,318
843.566101,325
843.684204,318
843.802246,320
843.920227,334
844.038269,324
844.156311,328
844.274292,328
844.392395,328
844.510376,319
844.628357,313
844.74646,329
844.864441,316
844.982422,321
845.100403,324
845.218384,328
845.336426,320
845.454468,321
845.572449,322
845.69043,328
845.808411,330
845.926453,316
846.044373,321
846.162354,338
846.280396,324
846.398315,315
846.516296,313
846.634216,335
846.752197,317
846.870178,323
846.988098,315
847.106079,335
847.22406,318
847.34198,324
847.4599,320
847.577881,319
847.695801,320
847.813782,328
847.931641,333
848.049561,333
848.167603,331
848.285461,327
848.403381,333
848.521362,320
848.639221,330
848.75708,324
848.875,317
848.99292,334
849.110901,318
849.22876,327
849.34668,313
849.464539,329
849.582458,322
849.700317,323
849.818176,320
849.936096,321
850.053955,318
850.171875,334
850.289673,328
850.407593,334
850.525452,303
850.643311,338
850.761169,317
850.878967,312
850.996887,310
851.114746,308
851.232544,326
851.350403,320
851.468262,319
851.58606,330
851.703979,326
851.821777,306
851.939636,320
852.057434,324
852.175232,315
852.293091,330
852.410889,327
852.528687,336
852.646545,322
852.764343,325
852.88208,326
852.999939,326
853.117676,319
853.235535,334
853.353271,309
853.471069,333
853.588928,331
853.706604,320
853.824402,326
853.9422,321
854.059998,309
854.177734,328
854.295532,321
854.413269,322
854.531006,330
854.648804,336
854.766541,326
854.884277,331
855.002014,319
855.119751,325
855.237549,323
855.355225,327
855.473022,318
855.590698,335
855.708435,318
855.826172,332
855.943848,332
856.061646,323
856.179321,309
856.296997,315
856.414795,332
856.53241,334
856.650085,312
856.767822,329
856.885559,324
857.003174,317
857.120911,324
857.238586,324
857.356201,318
857.473938,317
857.591614,338
857.709351,321
857.826965,327
857.944641,320
858.062317,319
858.179993,326
858.297668,322
858.415283,328
858.532959,321
858.650574,335
858.768188,310
858.885803,342
859.003479,329
859.121094,329
859.23877,311
859.356384,314
859.473999,311
859.591675,329
859.709229,318
859.826843,321
859.944458,316
860.062012,344
860.179626,332
860.297302,333
860.414856,323
860.532471,321
860.650024,326
860.767639,319
860.885193,320
861.002808,336
861.120361,310
861.237976,331
861.35553,318
861.473022,312
861.590698,314
861.708191,323
861.825745,331
861.943298,311
862.060852,317
862.178406,314
862.295959,313
862.413513,329
862.531006,321
862.64856,311
862.766113,322
862.883667,316
863.00116,331
863.118713,338
863.236206,314
863.353699,321
863.471252,316
863.588745,315
863.706177,312
863.82373,332
863.941162,324
864.058716,321
864.176208,325
864.29364,317
864.411194,311
864.528687,332
864.646118,334
864.763611,319
864.881042,322
864.998535,328
865.116028,317
865.233459,329
865.350891,318
865.468384,316
865.585754,335
865.703308,310
865.820679,331
865.938171,304
866.055542,324
866.173035,329
866.290466,322
866.407837,323
866.52533,316
866.6427,327
866.760071,323
866.877563,310
866.994934,319
867.112305,330
867.229736,331
867.347107,321
867.464539,317
867.58197,315
867.699341,322
867.81665,322
867.934082,325
868.051453,322
868.168823,332
868.286194,322
868.403564,324
868.520935,327
868.638306,323
868.755676,311
868.872986,313
868.990295,330
869.107727,321
869.225037,312
869.342346,323
869.459717,334
869.577026,323
869.694336,310
869.811707,313
869.929016,326
870.046326,323
870.163635,322
870.280945,330
870.398254,325
870.515564,323
870.632812,337
870.750183,325
870.867432,325
870.984741,322
871.102051,325
871.219299,315
871.336609,324
871.453918,322
871.571106,311
871.688416,323
871.805664,332
871.922852,317
872.040222,316
872.157471,336
872.274719,319
872.391968,326
872.509155,332
872.626465,318
872.743652,324
872.860962,305
872.978149,327
873.095337,315
873.212646,333
873.329834,323
873.44696,328
873.564209,327
873.681396,319
873.798645,324
873.915894,325
874.03302,325
874.150208,339
874.267456,320
874.384583,329
874.501831,320
874.618958,321
874.736145,327
874.853333,326
874.970459,322
875.087646,334
875.204834,317
875.32196,326
875.439148,334
875.556274,320
875.673401,323
875.790527,330
875.907715,327
876.024841,331
876.141968,304
876.259094,333
876.376282,332
876.493347,335
876.610474,319
876.7276,313
876.844727,320
876.961853,322
877.078918,334
877.195984,331
877.313171,319
877.430237,322
877.547302,304
877.664368,321
877.781433,317
877.898499,321
878.015625,329
878.13269,327
878.249695,319
878.366821,330
878.483887,314
878.600952,314
878.717957,316
878.834961,326
878.952087,317
879.069092,333
879.186157,314
879.303162,328
879.420227,333
879.537231,327
879.654236,312
879.77124,322
879.888306,328
880.005249,325
880.122314,323
880.239319,314
880.356323,320
880.473328,321
880.590271,320
880.707275,327
880.824341,328
880.941284,330
881.058228,308
881.175232,309
881.292236,313
881.40918,314
881.526123,319
881.643066,322
881.760071,309
881.877014,326
881.993958,312
882.11084,319
882.227783,313
882.344727,324
882.46167,323
882.578613,318
882.695618,320
882.812439,319
882.929382,323
883.046326,315
883.163208,319
883.280151,308
883.397034,311
883.513916,317
883.630798,311
883.747742,315
883.864563,319
883.981506,323
884.098389,311
884.21521,325
884.332153,316
884.448975,313
884.565796,331
884.682678,338
884.7995,338
884.916443,326
885.033264,315
885.150085,335
885.266968,324
885.383789,331
885.500671,318
885.617493,334
885.734314,323
885.851196,330
885.967896,326
886.084717,317
886.201599,316
886.318359,343
886.435181,328
886.552002,330
886.668762,314
886.785645,330
886.902344,323
887.019165,336
887.135925,319
887.252747,337
887.369446,326
887.486267,325
887.603027,316
887.719788,319
887.836548,324
887.953247,326
888.070068,325
888.186829,334
888.303528,332
888.420288,316
888.536987,320
888.653687,318
888.770447,316
888.887146,324
889.003967,320
889.120667,324
889.237305,311
889.354065,321
889.470703,302
889.587463,319
889.704163,323
889.820862,305
889.937561,313
890.054199,312
890.170837,314
890.287598,313
890.404236,313
890.520874,314
890.637634,314
890.754211,316
890.87085,325
890.987549,311
891.104187,320
891.220886,328
891.337463,307
891.454102,317
891.57074,314
891.687378,309
891.804077,307
891.920654,315
892.037231,317
892.15387,308
892.270447,327
892.387085,317
892.503723,314
892.6203,314
892.736877,310
892.853516,323
892.970032,316
893.08667,322
893.203186,312
893.319763,310
893.43634,320
893.552917,323
893.669556,303
893.786011,315
893.902588,314
894.019165,329
894.135681,316
894.252197,321
894.368835,301
894.485291,316
894.601868,311
894.718384,325
894.8349,315
894.951355,310
895.067932,321
895.184448,331
895.300964,320
895.417419,318
895.533936,315
895.650452,313
895.766907,325
895.883423,321
895.999878,330
896.116333,305
896.232849,306
896.349304,325
896.465759,320
896.582214,318
896.698669,318
896.815125,314
896.931641,310
897.048035,322
897.164551,306
897.280884,310
897.397339,314
897.513794,330
897.630249,318
897.746582,326
897.863098,328
897.979431,324
898.095886,310
898.212341,305
898.328674,314
898.445129,318
898.561462,315
898.677795,314
898.794312,323
898.910645,330
899.026978,325
899.143433,333
899.259766,312
899.37616,325
899.492493,316
899.608765,322
899.725159,323
899.841553,312
899.957947,305
900.07428,322
900.190552,309
900.306946,311
900.423157,329
900.53949,313
900.655884,310
900.772156,316
900.888489,319
901.004822,317
901.121033,321
901.237366,324
901.353699,318
901.46991,326
901.586304,310
901.702515,330
901.818787,304
901.93512,320
902.051331,322
902.167603,337
902.283875,325
902.400085,308
902.516418,317
902.632629,319
902.74884,322
902.865112,321
902.981384,327
903.097595,326
903.213867,299
903.330017,321
903.446289,315
903.5625,313
903.67865,320
903.794922,327
903.911072,318
904.027344,322
904.143494,332
904.259705,327
904.375916,312
904.492065,308
904.608215,336
904.724426,327
904.840576,319
904.956726,320
905.072876,319
905.189087,330
905.305176,304
905.421387,311
905.537537,309
905.653687,314
905.769775,321
905.885925,322
906.002014,318
906.118164,308
906.234314,313
906.350403,314
906.466492,311
906.582642,327
906.69873,309
906.814758,315
906.930908,317
907.046936,307
907.163086,327
907.279175,308
907.395264,312
907.511353,316
907.62738,298
907.743408,333
907.859497,302
907.975525,329
908.091553,320
908.207703,313
908.32373,319
908.439758,307
908.555786,314
908.671814,326
908.787842,311
908.90387,325
909.019775,309
909.135864,324
909.251892,307
909.367859,318
909.483826,322
909.599854,316
909.715881,313
909.831848,331
909.947815,320
910.063782,334
910.179749,309
910.295776,320
910.411743,308
910.527649,316
910.643616,302
910.759583,315
910.875488,310
910.991455,316
911.107361,320
911.223267,315
911.339294,318
911.4552,332
911.571106,318
911.687073,315
911.802979,316
911.918823,320
912.034729,320
912.150635,320
912.266602,321
912.382446,314
912.498352,304
912.614197,321
912.730103,311
912.846008,301
792.44574,369
792.56488,410
792.68396,451
792.80304,432
792.92218,391
793.041199,374
793.160339,382
793.279419,369
793.398499,380
793.517578,359
793.636658,360
793.755737,366
793.874817,381
793.993896,370
794.112976,370
794.232056,358
794.351074,378
794.470215,359
794.589233,344
794.708313,339
794.827393,341
794.946411,368
795.065552,360
795.18457,348
795.303589,350
795.422668,355
795.541687,338
795.660767,346
795.779846,348
795.898865,342
796.017883,342
796.136963,343
796.255981,344
796.375061,355
796.49408,358
796.613037,328
796.732117,360
796.851135,339
796.970154,349
797.089233,348
797.208191,351
797.327271,346
797.446228,342
797.565186,332
797.684265,351
797.803223,346
797.922241,336
798.04126,325
798.160278,352
798.279297,342
798.398315,335
798.517273,332
798.636292,342
798.75531,341
798.874268,327
798.993286,338
799.112244,325
799.231323,335
799.350281,340
799.469238,333
799.588257,344
799.707153,335
799.826111,324
799.945129,338
800.064087,341
800.183044,347
800.302063,336
800.421021,328
800.539978,332
800.658936,338
800.777893,328
800.896912,323
801.015747,341
801.134705,340
801.253723,327
801.37262,331
801.491638,335
801.610535,332
801.729492,337
801.84845,347
801.967407,334
802.086243,331
802.205261,342
802.324158,332
802.443115,350
802.562073,333
802.680969,322
802.799927,322
802.918762,323
803.037659,339
803.156677,323
803.275574,334
803.39447,346
803.513428,319
803.632263,345
803.751221,328
803.870117,340
803.989014,337
804.107971,333
804.226746,332
804.345642,332
804.4646,343
804.583496,333
804.702393,317
804.821228,336
804.940125,341
805.059021,317
805.177917,337
805.296814,320
805.415649,334
805.534546,335
805.653442,336
805.772278,329
805.891113,336
806.01001,333
806.128906,312
806.247742,324
806.366577,329
806.485413,339
806.604309,331
806.723145,345
806.84198,323
806.960876,321
807.079712,332
807.198486,332
807.317383,342
807.436218,341
807.554993,338
807.673889,333
807.792725,324
807.91156,338
808.030396,312
808.14917,330
808.268005,325
808.386841,330
808.505676,336
808.624451,326
808.743286,336
808.862122,348
808.980896,315
809.099731,339
809.218506,323
809.337341,327
809.456116,318
809.57489,335
809.693726,342
809.8125,336
809.931274,302
810.050049,344
810.168884,320
810.287659,330
810.406372,322
810.525269,338
810.643982,325
810.762756,321
810.881531,326
811.000305,324
811.11908,323
811.237854,313
811.356567,324
811.475403,344
811.594116,326
811.71283,343
811.831604,338
811.950378,317
812.069153,334
812.187927,324
812.30658,331
812.425415,332
812.544128,316
812.662781,334
812.781616,313
812.900269,321
813.019043,318
813.137756,331
813.256531,327
813.375244,344
813.493896,327
813.612671,320
813.731384,328
813.850037,319
813.96875,324
814.087524,333
814.206238,311
814.324951,326
814.443604,326
814.562256,343
814.68103,332
814.799683,325
814.918335,332
815.037109,323
815.155762,326
815.274475,315
815.393188,334
815.511841,326
815.630554,329
815.749146,331
815.867859,323
815.986572,318
816.105164,329
816.223877,334
816.342529,328
816.461182,318
816.579895,312
816.698486,331
816.817139,325
816.935791,327
817.054504,327
817.173096,332
817.291748,320
817.4104,332
817.529053,314
817.647644,323
817.766235,329
817.884949,305
818.00354,318
818.122192,325
818.240845,321
818.359436,325
818.478088,313
818.59668,332
818.715271,331
818.833923,327
818.952515,317
819.071106,329
819.189758,334
819.30835,328
819.426941,320
819.545532,323
819.664124,323
819.782715,333
819.901306,305
820.019897,327
820.138489,319
820.25708,333
820.375671,328
820.494202,322
820.612732,318
820.731384,312
820.849915,316
820.968506,326
821.087097,323
821.205627,319
821.324158,305
821.442749,332
821.561279,310
821.679871,319
821.798401,334
821.916931,317
822.035461,322
822.154053,313
822.272583,328
822.391174,324
822.509583,314
822.628174,304
822.746704,335
822.865234,329
822.983765,315
823.102295,312
823.220825,325
823.339294,323
823.457825,328
823.576355,323
823.694824,318
823.813354,324
823.931885,325
824.050354,335
824.168884,323
824.287354,330
824.405823,318
824.524353,316
824.642822,315
824.761353,322
824.879822,314
824.998291,333
825.116699,320
825.235291,319
825.353699,313
825.472168,337
825.590637,323
825.709106,312
825.827576,321
825.946045,320
826.064453,318
826.182983,331
826.301392,314
826.4198,323
826.53833,312
826.656738,333
826.775208,328
826.893677,321
827.012024,331
827.130493,329
827.248962,319
827.36731,334
827.485779,321
827.604248,324
827.722595,311
827.841064,339
827.959412,319
828.077942,314
828.196289,308
828.314636,310
828.433105,335
828.551514,322
828.669861,317
828.78833,320
828.906677,327
829.025085,323
829.143433,327
829.261841,312
829.38031,323
829.498657,323
829.617004,316
829.735413,336
829.85376,315
829.972107,331
830.090515,323
830.208862,315
830.327209,317
830.445557,310
830.563904,321
830.682312,303
830.800659,306
830.919006,333
831.037354,314
831.155701,314
831.274048,322
831.392395,336
831.51062,327
831.629028,330
831.747314,326
831.865662,324
831.984009,318
832.102356,315
832.220642,322
832.338928,315
832.457275,324
832.575623,314
832.693909,321
832.812134,318
832.930481,324
833.048828,319
833.167114,324
833.2854,320
833.403687,317
833.521973,325
833.640259,313
833.758545,330
833.876831,336
833.995056,321
834.113281,321
834.231628,331
834.349915,314
834.468201,329
834.586426,318
834.704651,330
834.822998,323
834.941162,327
835.059448,339
835.177673,305
835.295959,318
835.414246,311
835.53241,338
835.650635,320
835.768921,310
835.887146,328
836.005371,320
836.123596,309
836.241821,313
836.360046,326
836.478271,322
836.596497,334
836.714722,315
836.832886,336
836.95105,315
837.069336,322
837.1875,322
837.305725,328
837.423889,319
837.542053,327
837.660339,321
837.778503,326
837.896667,326
838.014832,325
838.132996,327
838.25116,330
838.369385,318
838.487488,312
838.605713,315
838.723877,314
838.84198,326
838.960205,325
839.078308,314
839.196472,320
839.314636,311
839.4328,327
839.550964,317
839.669067,321
839.787231,316
839.905396,324
840.023499,323
840.141602,323
840.259766,320
840.377869,328
840.495972,321
840.614136,327
840.732239,317
840.850342,324
840.968445,326
841.086548,321
841.204651,319
841.322754,332
841.440918,321
841.55896,321
841.677002,313
841.795166,334
841.913208,326
842.031311,329
842.149353,334
842.267456,333
842.385498,324
842.503601,333
842.621643,322
842.739746,333
842.857788,331
842.97583,330
843.093933,327
843.211975,332
843.330017,321
843.44812,324
843.566101,331
843.684204,328
843.802246,310
843.920227,332
844.038269,323
844.156311,321
844.274292,311
844.392395,330
844.510376,323
844.628357,319
844.74646,320
844.864441,333
844.982422,322
845.100403,327
845.218384,318
845.336426,325
845.454468,320
845.572449,324
845.69043,338
845.808411,338
845.926453,316
846.044373,317
846.162354,321
846.280396,335
846.398315,330
846.516296,308
846.634216,333
846.752197,319
846.870178,317
846.988098,330
847.106079,314
847.22406,321
847.34198,317
847.4599,340
847.577881,332
847.695801,313
847.813782,317
847.931641,323
848.049561,304
848.167603,320
848.285461,327
848.403381,333
848.521362,318
848.639221,339
848.75708,312
848.875,328
848.99292,324
849.110901,315
849.22876,325
849.34668,330
849.464539,314
849.582458,327
849.700317,307
849.818176,318
849.936096,320
850.053955,315
850.171875,316
850.289673,332
850.407593,315
850.525452,338
850.643311,316
850.761169,329
850.878967,324
850.996887,328
851.114746,321
851.232544,322
851.350403,319
851.468262,331
851.58606,321
851.703979,317
851.821777,314
851.939636,330
852.057434,319
852.175232,327
852.293091,325
852.410889,327
852.528687,323
852.646545,338
852.764343,324
852.88208,318
852.999939,323
853.117676,324
853.235535,313
853.353271,329
853.471069,324
853.588928,319
853.706604,332
853.824402,320
853.9422,319
854.059998,332
854.177734,318
854.295532,325
854.413269,309
854.531006,322
854.648804,327
854.766541,317
854.884277,335
855.002014,335
855.119751,321
855.237549,330
855.355225,325
855.473022,325
855.590698,326
855.708435,333
855.826172,315
855.943848,324
856.061646,326
856.179321,313
856.296997,327
856.414795,334
856.53241,314
856.650085,324
856.767822,314
856.885559,337
857.003174,331
857.120911,325
857.238586,326
857.356201,335
857.473938,327
857.591614,331
857.709351,320
857.826965,311
857.944641,327
858.062317,327
858.179993,339
858.297668,322
858.415283,328
858.532959,335
858.650574,330
858.768188,332
858.885803,323
859.003479,317
859.121094,333
859.23877,322
859.356384,315
859.473999,321
859.591675,315
859.709229,329
859.826843,328
859.944458,319
860.062012,308
860.179626,333
860.297302,335
860.414856,331
860.532471,325
860.650024,316
860.767639,309
860.885193,330
861.002808,327
861.120361,329
861.237976,323
861.35553,329
861.473022,326
861.590698,317
861.708191,323
861.825745,315
861.943298,325
862.060852,324
862.178406,305
862.295959,322
862.413513,318
862.531006,321
862.64856,314
862.766113,334
862.883667,332
863.00116,326
863.118713,328
863.236206,331
863.353699,309
863.471252,330
863.588745,312
863.706177,342
863.82373,312
863.941162,329
864.058716,322
864.176208,321
864.29364,319
864.411194,331
864.528687,307
864.646118,307
864.763611,323
864.881042,328
864.998535,319
865.116028,318
865.233459,314
865.350891,332
865.468384,315
865.585754,315
865.703308,316
865.820679,326
865.938171,315
866.055542,319
866.173035,315
866.290466,327
866.407837,309
866.52533,331
866.6427,318
866.760071,323
866.877563,309
866.994934,321
867.112305,322
867.229736,330
867.347107,323
867.464539,319
867.58197,317
867.699341,331
867.81665,313
867.934082,322
868.051453,326
868.168823,324
868.286194,304
868.403564,337
868.520935,317
868.638306,322
868.755676,316
868.872986,321
868.990295,328
869.107727,330
869.225037,312
869.342346,319
869.459717,326
869.577026,326
869.694336,310
869.811707,317
869.929016,327
870.046326,324
870.163635,338
870.280945,321
870.398254,314
870.515564,340
870.632812,330
870.750183,342
870.867432,311
870.984741,314
871.102051,322
871.219299,333
871.336609,336
871.453918,327
871.571106,325
871.688416,322
871.805664,317
871.922852,321
872.040222,326
872.157471,326
872.274719,336
872.391968,326
872.509155,318
872.626465,327
872.743652,326
872.860962,322
872.978149,324
873.095337,322
873.212646,316
873.329834,324
873.44696,329
873.564209,337
873.681396,327
873.798645,323
873.915894,324
874.03302,327
874.150208,325
874.267456,323
874.384583,326
874.501831,334
874.618958,315
874.736145,313
874.853333,316
874.970459,314
875.087646,331
875.204834,342
875.32196,315
875.439148,319
875.556274,306
875.673401,336
875.790527,325
875.907715,312
876.024841,317
876.141968,328
876.259094,322
876.376282,321
876.493347,321
876.610474,333
876.7276,318
876.844727,332
876.961853,324
877.078918,315
877.195984,312
877.313171,328
877.430237,315
877.547302,317
877.664368,333
877.781433,325
877.898499,328
878.015625,320
878.13269,320
878.249695,334
878.366821,312
878.483887,325
878.600952,315
878.717957,330
878.834961,310
878.952087,321
879.069092,311
879.186157,324
879.303162,330
879.420227,336
879.537231,310
879.654236,311
879.77124,314
879.888306,331
880.005249,312
880.122314,312
880.239319,308
880.356323,320
880.473328,318
880.590271,325
880.707275,321
880.824341,315
880.941284,315
881.058228,318
881.175232,304
881.292236,328
881.40918,323
881.526123,328
881.643066,325
881.760071,326
881.877014,321
881.993958,320
882.11084,320
882.227783,333
882.344727,318
882.46167,332
882.578613,308
882.695618,334
882.812439,313
882.929382,310
883.046326,323
883.163208,312
883.280151,324
883.397034,315
883.513916,318
883.630798,325
883.747742,299
883.864563,320
883.981506,310
884.098389,312
884.21521,321
884.332153,330
884.448975,320
884.565796,312
884.682678,327
884.7995,344
884.916443,329
885.033264,334
885.150085,323
885.266968,329
885.383789,332
885.500671,338
885.617493,334
885.734314,325
885.851196,319
885.967896,340
886.084717,330
886.201599,347
886.318359,328
886.435181,332
886.552002,330
886.668762,325
886.785645,328
886.902344,329
887.019165,319
887.135925,328
887.252747,338
887.369446,333
887.486267,321
887.603027,331
887.719788,321
887.836548,329
887.953247,311
888.070068,317
888.186829,310
888.303528,324
888.420288,312
888.536987,323
888.653687,317
888.770447,314
888.887146,328
889.003967,318
889.120667,307
889.237305,320
889.354065,308
889.470703,325
889.587463,321
889.704163,333
889.820862,312
889.937561,323
890.054199,323
890.170837,320
890.287598,313
890.404236,322
890.520874,314
890.637634,332
890.754211,299
890.87085,317
890.987549,318
891.104187,320
891.220886,316
891.337463,317
891.454102,323
891.57074,319
891.687378,307
891.804077,320
891.920654,322
892.037231,316
892.15387,334
892.270447,310
892.387085,312
892.503723,313
892.6203,322
892.736877,321
892.853516,304
892.970032,329
893.08667,316
893.203186,331
893.319763,315
893.43634,325
893.552917,329
893.669556,313
893.786011,325
893.902588,317
894.019165,305
894.135681,326
894.252197,311
894.368835,335
894.485291,325
894.601868,321
894.718384,317
894.8349,321
894.951355,318
895.067932,325
895.184448,305
895.300964,324
895.417419,303
895.533936,304
895.650452,310
895.766907,308
895.883423,311
895.999878,311
896.116333,320
896.232849,318
896.349304,307
896.465759,325
896.582214,314
896.698669,310
896.815125,334
896.931641,312
897.048035,317
897.164551,326
897.280884,321
897.397339,333
897.513794,313
897.630249,320
897.746582,301
897.863098,325
897.979431,327
898.095886,308
898.212341,309
898.328674,310
898.445129,325
898.561462,319
898.677795,317
898.794312,319
898.910645,312
899.026978,311
899.143433,333
899.259766,322
899.37616,333
899.492493,322
899.608765,321
899.725159,325
899.841553,325
899.957947,312
900.07428,317
900.190552,325
900.306946,328
900.423157,328
900.53949,311
900.655884,316
900.772156,319
900.888489,320
901.004822,310
901.121033,305
901.237366,335
901.353699,327
901.46991,310
901.586304,325
901.702515,327
901.818787,336
901.93512,308
902.051331,323
902.167603,325
902.283875,329
902.400085,329
902.516418,321
902.632629,322
902.74884,330
902.865112,315
902.981384,329
903.097595,330
903.213867,314
903.330017,322
903.446289,331
903.5625,319
903.67865,327
903.794922,317
903.911072,311
904.027344,312
904.143494,323
904.259705,318
904.375916,317
904.492065,316
904.608215,327
904.724426,320
904.840576,326
904.956726,311
905.072876,316
905.189087,326
905.305176,327
905.421387,317
905.537537,324
905.653687,309
905.769775,310
905.885925,299
906.002014,334
906.118164,323
906.234314,309
906.350403,312
906.466492,325
906.582642,308
906.69873,314
906.814758,311
906.930908,319
907.046936,307
907.163086,310
907.279175,315
907.395264,324
907.511353,314
907.62738,315
907.743408,317
907.859497,310
907.975525,304
908.091553,310
908.207703,312
908.32373,327
908.439758,317
908.555786,328
908.671814,315
908.787842,319
908.90387,318
909.019775,317
909.135864,323
909.251892,314
909.367859,315
909.483826,319
909.599854,317
909.715881,321
909.831848,309
909.947815,324
910.063782,317
910.179749,324
910.295776,311
910.411743,328
910.527649,309
910.643616,324
910.759583,301
910.875488,313
910.991455,313
911.107361,309
911.223267,316
911.339294,328
911.4552,302
911.571106,316
911.687073,321
911.802979,331
911.918823,322
912.034729,324
912.150635,300
912.266602,298
912.382446,316
912.498352,332
912.614197,316
912.730103,322
912.846008,316
792.44574,365
792.56488,390
792.68396,453
792.80304,434
792.92218,391
793.041199,351
793.160339,374
793.279419,370
793.398499,380
793.517578,372
793.636658,357
793.755737,375
793.874817,389
793.993896,375
794.112976,369
794.232056,351
794.351074,350
794.470215,374
794.589233,360
794.708313,349
794.827393,349
794.946411,360
795.065552,356
795.18457,359
795.303589,354
795.422668,355
795.541687,364
795.660767,354
795.779846,358
795.898865,339
796.017883,346
796.136963,356
796.255981,360
796.375061,339
796.49408,350
796.613037,348
796.732117,353
796.851135,339
796.970154,336
797.089233,341
797.208191,328
797.327271,338
797.446228,344
797.565186,336
797.684265,332
797.803223,321
797.922241,339
798.04126,350
798.160278,350
798.279297,343
798.398315,338
798.517273,341
798.636292,347
798.75531,331
798.874268,335
798.993286,353
799.112244,353
799.231323,352
799.350281,343
799.469238,336
799.588257,336
799.707153,323
799.826111,360
799.945129,345
800.064087,329
800.183044,323
800.302063,341
800.421021,320
800.539978,332
800.658936,323
800.777893,337
800.896912,341
801.015747,334
801.134705,315
801.253723,357
801.37262,336
801.491638,327
801.610535,341
801.729492,329
801.84845,339
801.967407,349
802.086243,312
802.205261,337
802.324158,319
802.443115,336
802.562073,335
802.680969,333
802.799927,322
802.918762,334
803.037659,338
803.156677,335
803.275574,324
803.39447,329
803.513428,321
803.632263,331
803.751221,322
803.870117,341
803.989014,332
804.107971,326
804.226746,339
804.345642,341
804.4646,321
804.583496,344
804.702393,336
804.821228,326
804.940125,327
805.059021,327
805.177917,327
805.296814,338
805.415649,330
805.534546,332
805.653442,323
805.772278,334
805.891113,328
806.01001,344
806.128906,329
806.247742,347
806.366577,320
806.485413,336
806.604309,315
806.723145,320
806.84198,320
806.960876,331
807.079712,308
807.198486,330
807.317383,328
807.436218,336
807.554993,332
807.673889,329
807.792725,317
807.91156,338
808.030396,324
808.14917,330
808.268005,331
808.386841,326
808.505676,314
808.624451,339
808.743286,330
808.862122,342
808.980896,336
809.099731,322
809.218506,323
809.337341,331
809.456116,329
809.57489,323
809.693726,314
809.8125,308
809.931274,324
810.050049,328
810.168884,331
810.287659,330
810.406372,322
810.525269,332
810.643982,324
810.762756,317
810.881531,324
811.000305,345
811.11908,314
811.237854,326
811.356567,327
811.475403,322
811.594116,327
811.71283,308
811.831604,332
811.950378,334
812.069153,328
812.187927,334
812.30658,341
812.425415,326
812.544128,316
812.662781,322
812.781616,322
812.900269,319
813.019043,322
813.137756,321
813.256531,322
813.375244,332
813.493896,326
813.612671,342
813.731384,319
813.850037,336
813.96875,324
814.087524,337
814.206238,334
814.324951,328
814.443604,314
814.562256,323
814.68103,326
814.799683,329
814.918335,301
815.037109,335
815.155762,322
815.274475,331
815.393188,319
815.511841,330
815.630554,328
815.749146,326
815.867859,318
815.986572,319
816.105164,339
816.223877,337
816.342529,330
816.461182,330
816.579895,305
816.698486,328
816.817139,321
816.935791,319
817.054504,329
817.173096,325
817.291748,321
817.4104,321
817.529053,326
817.647644,338
817.766235,322
817.884949,324
818.00354,301
818.122192,331
818.240845,317
818.359436,315
818.478088,314
818.59668,331
818.715271,310
818.833923,329
818.952515,318
819.071106,320
819.189758,316
819.30835,337
819.426941,332
819.545532,331
819.664124,314
819.782715,316
819.901306,322
820.019897,327
820.138489,319
820.25708,325
820.375671,319
820.494202,319
820.612732,321
820.731384,315
820.849915,316
820.968506,333
821.087097,323
821.205627,324
821.324158,326
821.442749,321
821.561279,318
821.679871,320
821.798401,318
821.916931,317
822.035461,310
822.154053,344
822.272583,315
822.391174,332
822.509583,313
822.628174,324
822.746704,320
822.865234,319
822.983765,336
823.102295,306
823.220825,331
823.339294,325
823.457825,320
823.576355,322
823.694824,316
823.813354,321
823.931885,318
824.050354,318
824.168884,326
824.287354,327
824.405823,323
824.524353,316
824.642822,321
824.761353,324
824.879822,309
824.998291,331
825.116699,326
825.235291,334
825.353699,320
825.472168,318
825.590637,322
825.709106,318
825.827576,329
825.946045,322
826.064453,321
826.182983,308
826.301392,314
826.4198,319
826.53833,318
826.656738,308
826.775208,311
826.893677,322
827.012024,318
827.130493,332
827.248962,317
827.36731,314
827.485779,323
827.604248,317
827.722595,331
827.841064,310
827.959412,323
828.077942,323
828.196289,323
828.314636,318
828.433105,313
828.551514,310
828.669861,326
828.78833,332
828.906677,307
829.025085,318
829.143433,327
829.261841,328
829.38031,329
829.498657,314
829.617004,319
829.735413,320
829.85376,317
829.972107,325
830.090515,318
830.208862,326
830.327209,313
830.445557,313
830.563904,321
830.682312,313
830.800659,317
830.919006,320
831.037354,309
831.155701,321
831.274048,339
831.392395,312
831.51062,320
831.629028,319
831.747314,325
831.865662,326
831.984009,305
832.102356,318
832.220642,319
832.338928,332
832.457275,319
832.575623,318
832.693909,314
832.812134,322
832.930481,323
833.048828,327
833.167114,308
833.2854,315
833.403687,325
833.521973,317
833.640259,320
833.758545,331
833.876831,305
833.995056,320
834.113281,313
834.231628,327
834.349915,309
834.468201,321
834.586426,322
834.704651,337
834.822998,319
834.941162,315
835.059448,314
835.177673,324
835.295959,318
835.414246,320
835.53241,325
835.650635,320
835.768921,316
835.887146,317
836.005371,318
836.123596,333
836.241821,312
836.360046,314
836.478271,326
836.596497,331
836.714722,325
836.832886,326
836.95105,319
837.069336,316
837.1875,307
837.305725,330
837.423889,316
837.542053,310
837.660339,321
837.778503,320
837.896667,313
838.014832,314
838.132996,308
838.25116,324
838.369385,302
838.487488,315
838.605713,327
838.723877,305
838.84198,332
838.960205,313
839.078308,314
839.196472,331
839.314636,322
839.4328,317
839.550964,323
839.669067,322
839.787231,322
839.905396,319
840.023499,332
840.141602,314
840.259766,318
840.377869,323
840.495972,321
840.614136,323
840.732239,324
840.850342,324
840.968445,316
841.086548,331
841.204651,329
841.322754,312
841.440918,325
841.55896,322
841.677002,306
841.795166,342
841.913208,320
842.031311,322
842.149353,329
842.267456,325
842.385498,324
842.503601,326
842.621643,315
842.739746,325
842.857788,316
842.97583,322
843.093933,336
843.211975,313
843.330017,327
843.44812,338
843.566101,325
843.684204,324
843.802246,304
843.920227,324
844.038269,325
844.156311,322
844.274292,325
844.392395,315
844.510376,332
844.628357,328
844.74646,318
844.864441,323
844.982422,314
845.100403,331
845.218384,326
845.336426,328
845.454468,328
845.572449,314
845.69043,314
845.808411,328
845.926453,337
846.044373,327
846.162354,307
846.280396,328
846.398315,306
846.516296,334
846.634216,311
846.752197,315
846.870178,328
846.988098,317
847.106079,318
847.22406,323
847.34198,327
847.4599,319
847.577881,329
847.695801,325
847.813782,318
847.931641,331
848.049561,323
848.167603,332
848.285461,322
848.403381,311
848.521362,332
848.639221,315
848.75708,321
848.875,319
848.99292,316
849.110901,329
849.22876,318
849.34668,324
849.464539,317
849.582458,323
849.700317,321
849.818176,328
849.936096,326
850.053955,332
850.171875,314
850.289673,324
850.407593,312
850.525452,321
850.643311,317
850.761169,329
850.878967,311
850.996887,326
851.114746,320
851.232544,324
851.350403,327
851.468262,323
851.58606,315
851.703979,329
851.821777,319
851.939636,339
852.057434,318
852.175232,326
852.293091,326
852.410889,329
852.528687,316
852.646545,328
852.764343,337
852.88208,338
852.999939,327
853.117676,326
853.235535,320
853.353271,328
853.471069,315
853.588928,320
853.706604,328
853.824402,315
853.9422,328
854.059998,329
854.177734,320
854.295532,325
854.413269,317
854.531006,318
854.648804,318
854.766541,333
854.884277,314
855.002014,319
855.119751,328
855.237549,320
855.355225,319
855.473022,326
855.590698,317
855.708435,318
855.826172,317
855.943848,328
856.061646,323
856.179321,317
856.296997,318
856.414795,329
856.53241,327
856.650085,326
856.767822,328
856.885559,324
857.003174,318
857.120911,335
857.238586,317
857.356201,330
857.473938,307
857.591614,319
857.709351,331
857.826965,325
857.944641,335
858.062317,339
858.179993,321
858.297668,326
858.415283,323
858.532959,325
858.650574,322
858.768188,308
858.885803,317
859.003479,324
859.121094,308
859.23877,324
859.356384,312
859.473999,326
859.591675,328
859.709229,339
859.826843,320
859.944458,325
860.062012,317
860.179626,333
860.297302,321
860.414856,304
860.532471,324
860.650024,317
860.767639,324
860.885193,319
861.002808,317
861.120361,328
861.237976,325
861.35553,320
861.473022,313
861.590698,335
861.708191,315
861.825745,330
861.943298,322
862.060852,324
862.178406,323
862.295959,324
862.413513,318
862.531006,320
862.64856,331
862.766113,324
862.883667,319
863.00116,317
863.118713,321
863.236206,322
863.353699,328
863.471252,319
863.588745,319
863.706177,330
863.82373,330
863.941162,318
864.058716,315
864.176208,322
864.29364,312
864.411194,327
864.528687,326
864.646118,312
864.763611,312
864.881042,338
864.998535,306
865.116028,329
865.233459,317
865.350891,338
865.468384,318
865.585754,312
865.703308,312
865.820679,325
865.938171,319
866.055542,323
866.173035,330
866.290466,316
866.407837,316
866.52533,319
866.6427,316
866.760071,321
866.877563,322
866.994934,317
867.112305,320
867.229736,323
867.347107,317
867.464539,331
867.58197,315
867.699341,335
867.81665,317
867.934082,318
868.051453,319
868.168823,328
868.286194,321
868.403564,330
868.520935,326
868.638306,324
868.755676,318
868.872986,336
868.990295,308
869.107727,321
869.225037,324
869.342346,321
869.459717,317
869.577026,332
869.694336,325
869.811707,313
869.929016,317
870.046326,331
870.163635,322
870.280945,333
870.398254,306
870.515564,324
870.632812,327
870.750183,337
870.867432,326
870.984741,314
871.102051,323
871.219299,326
871.336609,324
871.453918,320
871.571106,307
871.688416,324
871.805664,319
871.922852,329
872.040222,309
872.157471,335
872.274719,325
872.391968,328
872.509155,337
872.626465,317
872.743652,328
872.860962,319
872.978149,331
873.095337,343
873.212646,320
873.329834,319
873.44696,318
873.564209,331
873.681396,323
873.798645,325
873.915894,323
874.03302,328
874.150208,337
874.267456,324
874.384583,340
874.501831,326
874.618958,318
874.736145,326
874.853333,328
874.970459,332
875.087646,321
875.204834,326
875.32196,316
875.439148,333
875.556274,317
875.673401,327
875.790527,326
875.907715,329
876.024841,326
876.141968,325
876.259094,326
876.376282,334
876.493347,323
876.610474,315
876.7276,319
876.844727,319
876.961853,319
877.078918,329
877.195984,328
877.313171,318
877.430237,306
877.547302,338
877.664368,326
877.781433,321
877.898499,320
878.015625,328
878.13269,333
878.249695,336
878.366821,312
878.483887,325
878.600952,341
878.717957,328
878.834961,329
878.952087,325
879.069092,312
879.186157,321
879.303162,311
879.420227,329
879.537231,326
879.654236,320
879.77124,319
879.888306,311
880.005249,326
880.122314,336
880.239319,312
880.356323,326
880.473328,322
880.590271,321
880.707275,317
880.824341,334
880.941284,306
881.058228,329
881.175232,305
881.292236,323
881.40918,317
881.526123,323
881.643066,314
881.760071,340
881.877014,324
881.993958,319
882.11084,304
882.227783,310
882.344727,318
882.46167,320
882.578613,318
882.695618,326
882.812439,329
882.929382,309
883.046326,320
883.163208,315
883.280151,320
883.397034,317
883.513916,322
883.630798,333
883.747742,308
883.864563,338
883.981506,321
884.098389,324
884.21521,324
884.332153,328
884.448975,321
884.565796,323
884.682678,316
884.7995,318
884.916443,319
885.033264,325
885.150085,326
885.266968,322
885.383789,316
885.500671,342
885.617493,328
885.734314,333
885.851196,326
885.967896,343
886.084717,327
886.201599,331
886.318359,326
886.435181,316
886.552002,333
886.668762,327
886.785645,328
886.902344,329
887.019165,329
887.135925,327
887.252747,323
887.369446,334
887.486267,319
887.603027,327
887.719788,332
887.836548,322
887.953247,315
888.070068,319
888.186829,330
888.303528,332
888.420288,318
888.536987,316
888.653687,313
888.770447,318
888.887146,328
889.003967,341
889.120667,310
889.237305,311
889.354065,343
889.470703,324
889.587463,320
889.704163,326
889.820862,317
889.937561,316
890.054199,313
890.170837,307
890.287598,299
890.404236,316
890.520874,302
890.637634,314
890.754211,316
890.87085,309
890.987549,302
891.104187,328
891.220886,311
891.337463,318
891.454102,310
891.57074,317
891.687378,310
891.804077,332
891.920654,315
892.037231,326
892.15387,315
892.270447,319
892.387085,316
892.503723,321
892.6203,321
892.736877,321
892.853516,327
892.970032,324
893.08667,321
893.203186,322
893.319763,318
893.43634,318
893.552917,317
893.669556,318
893.786011,306
893.902588,322
894.019165,319
894.135681,311
894.252197,305
894.368835,334
894.485291,308
894.601868,314
894.718384,316
894.8349,323
894.951355,316
895.067932,328
895.184448,328
895.300964,330
895.417419,303
895.533936,322
895.650452,328
895.766907,324
895.883423,315
895.999878,318
896.116333,308
896.232849,305
896.349304,317
896.465759,328
896.582214,324
896.698669,319
896.815125,304
896.931641,325
897.048035,315
897.164551,328
897.280884,318
897.397339,317
897.513794,317
897.630249,327
897.746582,315
897.863098,332
897.979431,314
898.095886,325
898.212341,312
898.328674,319
898.445129,321
898.561462,311
898.677795,321
898.794312,341
898.910645,333
899.026978,333
899.143433,320
899.259766,328
899.37616,315
899.492493,322
899.608765,316
899.725159,313
899.841553,305
899.957947,332
900.07428,316
900.190552,316
900.306946,322
900.423157,324
900.53949,322
900.655884,316
900.772156,313
900.888489,313
901.004822,312
901.121033,325
901.237366,321
901.353699,314
901.46991,304
901.586304,330
901.702515,330
901.818787,328
901.93512,324
902.051331,302
902.167603,324
902.283875,321
902.400085,319
902.516418,331
902.632629,323
902.74884,322
902.865112,322
902.981384,320
903.097595,324
903.213867,328
903.330017,331
903.446289,319
903.5625,324
903.67865,317
903.794922,323
903.911072,331
904.027344,323
904.143494,316
904.259705,310
904.375916,322
904.492065,312
904.608215,322
904.724426,320
904.840576,335
904.956726,323
905.072876,330
905.189087,327
905.305176,315
905.421387,317
905.537537,315
905.653687,311
905.769775,316
905.885925,311
906.002014,319
906.118164,318
906.234314,314
906.350403,296
906.466492,307
906.582642,323
906.69873,314
906.814758,326
906.930908,315
907.046936,314
907.163086,325
907.279175,306
907.395264,321
907.511353,326
907.62738,322
907.743408,320
907.859497,319
907.975525,321
908.091553,320
908.207703,311
908.32373,330
908.439758,314
908.555786,310
908.671814,319
908.787842,316
908.90387,325
909.019775,316
909.135864,306
909.251892,325
909.367859,315
909.483826,321
909.599854,313
909.715881,318
909.831848,304
909.947815,317
910.063782,313
910.179749,315
910.295776,305
910.411743,322
910.527649,312
910.643616,321
910.759583,313
910.875488,325
910.991455,313
911.107361,325
911.223267,311
911.339294,324
911.4552,312
911.571106,310
911.687073,318
911.802979,309
911.918823,324
912.034729,308
912.150635,313
912.266602,321
912.382446,329
912.498352,320
912.614197,318
912.730103,316
912.846008,317
