792.44574,358
792.56488,408
792.68396,454
792.80304,440
792.92218,384
793.041199,357
793.160339,359
793.279419,368
793.398499,367
793.517578,375
793.636658,361
793.755737,386
793.874817,390
793.993896,377
794.112976,363
794.232056,368
794.351074,342
794.470215,358
794.589233,359
794.708313,349
794.827393,378
794.946411,358
795.065552,350
795.18457,361
795.303589,359
795.422668,346
795.541687,337
795.660767,349
795.779846,347
795.898865,348
796.017883,365
796.136963,355
796.255981,346
796.375061,358
796.49408,329
796.613037,358
796.732117,344
796.851135,339
796.970154,351
797.089233,337
797.208191,355
797.327271,338
797.446228,352
797.565186,337
797.684265,328
797.803223,335
797.922241,332
798.04126,345
798.160278,351
798.279297,332
798.398315,352
798.517273,348
798.636292,338
798.75531,352
798.874268,344
798.993286,340
799.112244,340
799.231323,329
799.350281,320
799.469238,341
799.588257,332
799.707153,343
799.826111,342
799.945129,338
800.064087,343
800.183044,348
800.302063,313
800.421021,326
800.539978,332
800.658936,340
800.777893,334
800.896912,340
801.015747,345
801.134705,348
801.253723,342
801.37262,332
801.491638,339
801.610535,343
801.729492,333
801.84845,328
801.967407,345
802.086243,333
802.205261,347
802.324158,323
802.443115,323
802.562073,322
802.680969,334
802.799927,332
802.918762,338
803.037659,337
803.156677,323
803.275574,334
803.39447,330
803.513428,325
803.632263,323
803.751221,330
803.870117,320
803.989014,331
804.107971,333
804.226746,335
804.345642,340
804.4646,322
804.583496,338
804.702393,337
804.821228,329
804.940125,323
805.059021,329
805.177917,323
805.296814,335
805.415649,333
805.534546,344
805.653442,354
805.772278,313
805.891113,333
806.01001,331
806.128906,327
806.247742,324
806.366577,327
806.485413,331
806.604309,339
806.723145,320
806.84198,336
806.960876,333
807.079712,337
807.198486,324
807.317383,329
807.436218,329
807.554993,338
807.673889,331
807.792725,325
807.91156,321
808.030396,321
808.14917,315
808.268005,332
808.386841,322
808.505676,328
808.624451,326
808.743286,324
808.862122,333
808.980896,318
809.099731,345
809.218506,330
809.337341,324
809.456116,327
809.57489,341
809.693726,328
809.8125,329
809.931274,327
810.050049,329
810.168884,325
810.287659,321
810.406372,322
810.525269,323
810.643982,326
810.762756,326
810.881531,323
811.000305,335
811.11908,314
811.237854,336
811.356567,330
811.475403,324
811.594116,322
811.71283,332
811.831604,337
811.950378,321
812.069153,322
812.187927,333
812.30658,331
812.425415,323
812.544128,319
812.662781,328
812.781616,349
812.900269,326
813.019043,330
813.137756,331
813.256531,331
813.375244,331
813.493896,331
813.612671,325
813.731384,334
813.850037,334
813.96875,323
814.087524,325
814.206238,313
814.324951,311
814.443604,323
814.562256,324
814.68103,322
814.799683,342
814.918335,329
815.037109,333
815.155762,336
815.274475,325
815.393188,341
815.511841,329
815.630554,342
815.749146,325
815.867859,322
815.986572,349
816.105164,326
816.223877,321
816.342529,323
816.461182,333
816.579895,339
816.698486,326
816.817139,335
816.935791,338
817.054504,321
817.173096,327
817.291748,334
817.4104,329
817.529053,327
817.647644,328
817.766235,319
817.884949,318
818.00354,329
818.122192,346
818.240845,320
818.359436,327
818.478088,331
818.59668,328
818.715271,332
818.833923,336
818.952515,328
819.071106,324
819.189758,325
819.30835,323
819.426941,322
819.545532,316
819.664124,307
819.782715,307
819.901306,327
820.019897,324
820.138489,333
820.25708,339
820.375671,331
820.494202,327
820.612732,321
820.731384,340
820.849915,325
820.968506,308
821.087097,350
821.205627,329
821.324158,320
821.442749,319
821.561279,335
821.679871,318
821.798401,328
821.916931,316
822.035461,330
822.154053,319
822.272583,324
822.391174,321
822.509583,323
822.628174,313
822.746704,331
822.865234,337
822.983765,323
823.102295,320
823.220825,331
823.339294,317
823.457825,329
823.576355,328
823.694824,323
823.813354,321
823.931885,336
824.050354,319
824.168884,324
824.287354,324
824.405823,325
824.524353,338
824.642822,333
824.761353,320
824.879822,320
824.998291,330
825.116699,319
825.235291,325
825.353699,337
825.472168,324
825.590637,335
825.709106,302
825.827576,315
825.946045,313
826.064453,325
826.182983,317
826.301392,327
826.4198,318
826.53833,317
826.656738,314
826.775208,319
826.893677,335
827.012024,321
827.130493,314
827.248962,331
827.36731,316
827.485779,325
827.604248,323
827.722595,322
827.841064,321
827.959412,338
828.077942,333
828.196289,319
828.314636,326
828.433105,326
828.551514,310
828.669861,316
828.78833,326
828.906677,328
829.025085,324
829.143433,335
829.261841,314
829.38031,331
829.498657,317
829.617004,319
829.735413,311
829.85376,324
829.972107,330
830.090515,333
830.208862,322
830.327209,318
830.445557,320
830.563904,321
830.682312,315
830.800659,319
830.919006,325
831.037354,313
831.155701,329
831.274048,318
831.392395,327
831.51062,310
831.629028,328
831.747314,314
831.865662,326
831.984009,316
832.102356,318
832.220642,321
832.338928,311
832.457275,334
832.575623,318
832.693909,318
832.812134,326
832.930481,315
833.048828,318
833.167114,332
833.2854,321
833.403687,318
833.521973,320
833.640259,321
833.758545,322
833.876831,322
833.995056,318
834.113281,332
834.231628,325
834.349915,319
834.468201,309
834.586426,327
834.704651,322
834.822998,332
834.941162,312
835.059448,323
835.177673,326
835.295959,323
835.414246,323
835.53241,330
835.650635,322
835.768921,326
835.887146,321
836.005371,334
836.123596,324
836.241821,336
836.360046,319
836.478271,312
836.596497,321
836.714722,318
836.832886,313
836.95105,317
837.069336,321
837.1875,322
837.305725,316
837.423889,309
837.542053,312
837.660339,317
837.778503,329
837.896667,332
838.014832,335
838.132996,317
838.25116,320
838.369385,317
838.487488,313
838.605713,314
838.723877,333
838.84198,314
838.960205,326
839.078308,319
839.196472,315
839.314636,330
839.4328,318
839.550964,329
839.669067,317
839.787231,327
839.905396,328
840.023499,336
840.141602,321
840.259766,323
840.377869,304
840.495972,327
840.614136,341
840.732239,311
840.850342,322
840.968445,314
841.086548,327
841.204651,317
841.322754,315
841.440918,324
841.55896,330
841.677002,334
841.795166,322
841.913208,338
842.031311,333
842.149353,318
842.267456,319
842.385498,327
842.503601,310
842.621643,324
842.739746,333
842.857788,334
842.97583,328
843.093933,318
843.211975,329
843.330017,319
843.44812,314
843.566101,318
843.684204,318
843.802246,322
843.920227,306
844.038269,333
844.156311,329
844.274292,326
844.392395,321
844.510376,323
844.628357,328
844.74646,320
844.864441,322
844.982422,340
845.100403,320
845.218384,319
845.336426,326
845.454468,325
845.572449,328
845.69043,330
845.808411,315
845.926453,330
846.044373,343
846.162354,323
846.280396,321
846.398315,327
846.516296,329
846.634216,323
846.752197,320
846.870178,327
846.988098,331
847.106079,334
847.22406,335
847.34198,321
847.4599,320
847.577881,334
847.695801,318
847.813782,315
847.931641,323
848.049561,323
848.167603,322
848.285461,328
848.403381,328
848.521362,327
848.639221,304
848.75708,320
848.875,334
848.99292,325
849.110901,322
849.22876,324
849.34668,317
849.464539,318
849.582458,332
849.700317,339
849.818176,326
849.936096,324
850.053955,330
850.171875,327
850.289673,334
850.407593,323
850.525452,322
850.643311,332
850.761169,321
850.878967,340
850.996887,324
851.114746,326
851.232544,320
851.350403,330
851.468262,326
851.58606,331
851.703979,315
851.821777,315
851.939636,326
852.057434,333
852.175232,333
852.293091,326
852.410889,332
852.528687,329
852.646545,338
852.764343,321
852.88208,325
852.999939,319
853.117676,327
853.235535,314
853.353271,332
853.471069,339
853.588928,323
853.706604,330
853.824402,333
853.9422,325
854.059998,331
854.177734,325
854.295532,335
854.413269,320
854.531006,309
854.648804,327
854.766541,315
854.884277,324
855.002014,330
855.119751,330
855.237549,308
855.355225,324
855.473022,326
855.590698,319
855.708435,335
855.826172,319
855.943848,327
856.061646,319
856.179321,324
856.296997,325
856.414795,328
856.53241,337
856.650085,319
856.767822,333
856.885559,322
857.003174,336
857.120911,323
857.238586,332
857.356201,333
857.473938,323
857.591614,327
857.709351,315
857.826965,326
857.944641,319
858.062317,314
858.179993,310
858.297668,332
858.415283,320
858.532959,327
858.650574,325
858.768188,345
858.885803,322
859.003479,321
859.121094,326
859.23877,327
859.356384,326
859.473999,334
859.591675,326
859.709229,317
859.826843,321
859.944458,332
860.062012,319
860.179626,316
860.297302,332
860.414856,325
860.532471,317
860.650024,327
860.767639,332
860.885193,325
861.002808,322
861.120361,331
861.237976,320
861.35553,322
861.473022,330
861.590698,318
861.708191,327
861.825745,333
861.943298,322
862.060852,310
862.178406,324
862.295959,336
862.413513,320
862.531006,334
862.64856,320
862.766113,324
862.883667,327
863.00116,327
863.118713,336
863.236206,335
863.353699,308
863.471252,326
863.588745,318
863.706177,330
863.82373,318
863.941162,326
864.058716,325
864.176208,321
864.29364,327
864.411194,323
864.528687,331
864.646118,331
864.763611,319
864.881042,323
864.998535,311
865.116028,309
865.233459,326
865.350891,326
865.468384,318
865.585754,317
865.703308,324
865.820679,320
865.938171,327
866.055542,322
866.173035,304
866.290466,320
866.407837,335
866.52533,325
866.6427,318
866.760071,317
866.877563,331
866.994934,335
867.112305,323
867.229736,323
867.347107,329
867.464539,320
867.58197,313
867.699341,329
867.81665,322
867.934082,318
868.051453,313
868.168823,315
868.286194,324
868.403564,325
868.520935,317
868.638306,317
868.755676,318
868.872986,312
868.990295,327
869.107727,318
869.225037,319
869.342346,313
869.459717,334
869.577026,331
869.694336,334
869.811707,323
869.929016,316
870.046326,326
870.163635,344
870.280945,321
870.398254,325
870.515564,322
870.632812,326
870.750183,331
870.867432,320
870.984741,332
871.102051,325
871.219299,323
871.336609,337
871.453918,332
871.571106,329
871.688416,323
871.805664,321
871.922852,330
872.040222,331
872.157471,334
872.274719,331
872.391968,313
872.509155,325
872.626465,336
872.743652,329
872.860962,333
872.978149,339
873.095337,324
873.212646,320
873.329834,325
873.44696,335
873.564209,318
873.681396,336
873.798645,314
873.915894,320
874.03302,337
874.150208,327
874.267456,333
874.384583,329
874.501831,319
874.618958,348
874.736145,310
874.853333,314
874.970459,323
875.087646,330
875.204834,330
875.32196,323
875.439148,335
875.556274,332
875.673401,303
875.790527,338
875.907715,328
876.024841,328
876.141968,318
876.259094,321
876.376282,321
876.493347,321
876.610474,330
876.7276,335
876.844727,333
876.961853,323
877.078918,311
877.195984,331
877.313171,337
877.430237,330
877.547302,316
877.664368,326
877.781433,328
877.898499,327
878.015625,318
878.13269,327
878.249695,324
878.366821,330
878.483887,321
878.600952,325
878.717957,328
878.834961,326
878.952087,321
879.069092,314
879.186157,316
879.303162,315
879.420227,319
879.537231,340
879.654236,325
879.77124,336
879.888306,326
880.005249,322
880.122314,322
880.239319,322
880.356323,324
880.473328,332
880.590271,317
880.707275,332
880.824341,319
880.941284,312
881.058228,320
881.175232,319
881.292236,312
881.40918,322
881.526123,326
881.643066,329
881.760071,320
881.877014,327
881.993958,334
882.11084,316
882.227783,320
882.344727,339
882.46167,314
882.578613,334
882.695618,310
882.812439,324
882.929382,322
883.046326,326
883.163208,318
883.280151,331
883.397034,310
883.513916,334
883.630798,328
883.747742,324
883.864563,316
883.981506,326
884.098389,318
884.21521,333
884.332153,321
884.448975,320
884.565796,314
884.682678,322
884.7995,347
884.916443,321
885.033264,333
885.150085,341
885.266968,330
885.383789,338
885.500671,337
885.617493,346
885.734314,342
885.851196,339
885.967896,331
886.084717,357
886.201599,328
886.318359,333
886.435181,333
886.552002,337
886.668762,334
886.785645,330
886.902344,316
887.019165,320
887.135925,329
887.252747,331
887.369446,323
887.486267,331
887.603027,323
887.719788,315
887.836548,336
887.953247,324
888.070068,327
888.186829,323
888.303528,330
888.420288,315
888.536987,324
888.653687,323
888.770447,311
888.887146,329
889.003967,307
889.120667,317
889.237305,321
889.354065,326
889.470703,323
889.587463,322
889.704163,314
889.820862,328
889.937561,305
890.054199,329
890.170837,325
890.287598,316
890.404236,318
890.520874,320
890.637634,315
890.754211,310
890.87085,313
890.987549,323
891.104187,336
891.220886,329
891.337463,310
891.454102,314
891.57074,310
891.687378,324
891.804077,329
891.920654,318
892.037231,316
892.15387,328
892.270447,324
892.387085,313
892.503723,315
892.6203,326
892.736877,332
892.853516,320
892.970032,334
893.08667,317
893.203186,311
893.319763,336
893.43634,308
893.552917,328
893.669556,311
893.786011,308
893.902588,315
894.019165,325
894.135681,327
894.252197,305
894.368835,320
894.485291,334
894.601868,315
894.718384,323
894.8349,318
894.951355,318
895.067932,316
895.184448,317
895.300964,324
895.417419,324
895.533936,306
895.650452,321
895.766907,310
895.883423,329
895.999878,309
896.116333,319
896.232849,308
896.349304,311
896.465759,321
896.582214,303
896.698669,317
896.815125,324
896.931641,321
897.048035,331
897.164551,329
897.280884,327
897.397339,312
897.513794,309
897.630249,321
897.746582,322
897.863098,323
897.979431,315
898.095886,322
898.212341,304
898.328674,326
898.445129,336
898.561462,305
898.677795,317
898.794312,318
898.910645,311
899.026978,306
899.143433,323
899.259766,317
899.37616,323
899.492493,313
899.608765,326
899.725159,326
899.841553,317
899.957947,328
900.07428,330
900.190552,326
900.306946,324
900.423157,312
900.53949,326
900.655884,322
900.772156,324
900.888489,309
901.004822,317
901.121033,320
901.237366,323
901.353699,321
901.46991,322
901.586304,323
901.702515,315
901.818787,322
901.93512,333
902.051331,317
902.167603,328
902.283875,332
902.400085,313
902.516418,320
902.632629,329
902.74884,312
902.865112,315
902.981384,326
903.097595,326
903.213867,334
903.330017,334
903.446289,330
903.5625,319
903.67865,334
903.794922,313
903.911072,317
904.027344,333
904.143494,313
904.259705,321
904.375916,330
904.492065,324
904.608215,321
904.724426,324
904.840576,315
904.956726,320
905.072876,310
905.189087,342
905.305176,325
905.421387,325
905.537537,320
905.653687,308
905.769775,311
905.885925,322
906.002014,323
906.118164,313
906.234314,325
906.350403,325
906.466492,318
906.582642,321
906.69873,303
906.814758,320
906.930908,312
907.046936,327
907.163086,315
907.279175,322
907.395264,314
907.511353,310
907.62738,337
907.743408,325
907.859497,314
907.975525,314
908.091553,313
908.207703,333
908.32373,312
908.439758,319
908.555786,309
908.671814,324
908.787842,314
908.90387,325
909.019775,314
909.135864,320
909.251892,307
909.367859,318
909.483826,332
909.599854,305
909.715881,319
909.831848,325
909.947815,322
910.063782,317
910.179749,311
910.295776,305
910.411743,309
910.527649,317
910.643616,317
910.759583,321
910.875488,316
910.991455,327
911.107361,307
911.223267,325
911.339294,315
911.4552,318
911.571106,320
911.687073,321
911.802979,319
911.918823,322
912.034729,316
912.150635,330
912.266602,304
912.382446,312
912.498352,307
912.614197,319
912.730103,323
912.846008,304
792.44574,363
792.56488,392
792.68396,454
792.80304,433
792.92218,381
793.041199,335
793.160339,366
793.279419,369
793.398499,374
793.517578,373
793.636658,366
793.755737,371
793.874817,391
793.993896,396
794.112976,381
794.232056,344
794.351074,338
794.470215,356
794.589233,369
794.708313,359
794.827393,360
794.946411,350
795.065552,360
795.18457,361
795.303589,373
795.422668,351
795.541687,356
795.660767,358
795.779846,352
795.898865,342
796.017883,351
796.136963,349
796.255981,360
796.375061,344
796.49408,348
796.613037,347
796.732117,350
796.851135,335
796.970154,358
797.089233,359
797.208191,338
797.327271,348
797.446228,328
797.565186,344
797.684265,327
797.803223,337
797.922241,335
798.04126,342
798.160278,355
798.279297,333
798.398315,342
798.517273,335
798.636292,357
798.75531,332
798.874268,340
798.993286,320
799.112244,353
799.231323,327
799.350281,342
799.469238,347
799.588257,343
799.707153,340
799.826111,335
799.945129,332
800.064087,338
800.183044,334
800.302063,320
800.421021,350
800.539978,330
800.658936,329
800.777893,313
800.896912,320
801.015747,331
801.134705,331
801.253723,330
801.37262,331
801.491638,327
801.610535,321
801.729492,346
801.84845,338
801.967407,339
802.086243,328
802.205261,335
802.324158,344
802.443115,320
802.562073,344
802.680969,318
802.799927,337
802.918762,343
803.037659,322
803.156677,323
803.275574,342
803.39447,345
803.513428,332
803.632263,338
803.751221,343
803.870117,329
803.989014,319
804.107971,325
804.226746,319
804.345642,307
804.4646,346
804.583496,324
804.702393,322
804.821228,341
804.940125,331
805.059021,341
805.177917,331
805.296814,317
805.415649,330
805.534546,323
805.653442,346
805.772278,331
805.891113,330
806.01001,320
806.128906,330
806.247742,323
806.366577,324
806.485413,327
806.604309,335
806.723145,330
806.84198,324
806.960876,324
807.079712,328
807.198486,330
807.317383,330
807.436218,316
807.554993,331
807.673889,334
807.792725,323
807.91156,341
808.030396,329
808.14917,331
808.268005,327
808.386841,333
808.505676,329
808.624451,329
808.743286,319
808.862122,321
808.980896,321
809.099731,327
809.218506,319
809.337341,337
809.456116,333
809.57489,326
809.693726,321
809.8125,328
809.931274,327
810.050049,319
810.168884,336
810.287659,331
810.406372,321
810.525269,315
810.643982,329
810.762756,312
810.881531,312
811.000305,330
811.11908,319
811.237854,343
811.356567,336
811.475403,331
811.594116,338
811.71283,328
811.831604,332
811.950378,335
812.069153,326
812.187927,313
812.30658,325
812.425415,344
812.544128,312
812.662781,333
812.781616,320
812.900269,321
813.019043,325
813.137756,330
813.256531,318
813.375244,337
813.493896,323
813.612671,327
813.731384,322
813.850037,335
813.96875,323
814.087524,334
814.206238,323
814.324951,323
814.443604,329
814.562256,330
814.68103,323
814.799683,327
814.918335,342
815.037109,318
815.155762,322
815.274475,323
815.393188,335
815.511841,316
815.630554,319
815.749146,313
815.867859,324
815.986572,335
816.105164,332
816.223877,333
816.342529,335
816.461182,321
816.579895,310
816.698486,335
816.817139,327
816.935791,331
817.054504,332
817.173096,331
817.291748,332
817.4104,323
817.529053,322
817.647644,322
817.766235,325
817.884949,325
818.00354,316
818.122192,320
818.240845,330
818.359436,323
818.478088,302
818.59668,327
818.715271,314
818.833923,318
818.952515,312
819.071106,326
819.189758,316
819.30835,338
819.426941,307
819.545532,336
819.664124,330
819.782715,312
819.901306,334
820.019897,326
820.138489,323
820.25708,317
820.375671,332
820.494202,334
820.612732,311
820.731384,324
820.849915,308
820.968506,324
821.087097,334
821.205627,316
821.324158,323
821.442749,319
821.561279,323
821.679871,331
821.798401,325
821.916931,328
822.035461,327
822.154053,327
822.272583,321
822.391174,322
822.509583,320
822.628174,318
822.746704,320
822.865234,331
822.983765,307
823.102295,324
823.220825,314
823.339294,329
823.457825,328
823.576355,327
823.694824,327
823.813354,320
823.931885,326
824.050354,316
824.168884,328
824.287354,335
824.405823,317
824.524353,328
824.642822,310
824.761353,333
824.879822,316
824.998291,318
825.116699,322
825.235291,326
825.353699,318
825.472168,316
825.590637,330
825.709106,314
825.827576,323
825.946045,330
826.064453,320
826.182983,328
826.301392,323
826.4198,325
826.53833,318
826.656738,319
826.775208,328
826.893677,330
827.012024,306
827.130493,319
827.248962,314
827.36731,325
827.485779,320
827.604248,327
827.722595,315
827.841064,329
827.959412,321
828.077942,300
828.196289,324
828.314636,316
828.433105,315
828.551514,325
828.669861,319
828.78833,323
828.906677,321
829.025085,325
829.143433,312
829.261841,319
829.38031,322
829.498657,319
829.617004,312
829.735413,323
829.85376,320
829.972107,322
830.090515,324
830.208862,334
830.327209,322
830.445557,315
830.563904,312
830.682312,320
830.800659,315
830.919006,340
831.037354,306
831.155701,330
831.274048,314
831.392395,316
831.51062,306
831.629028,331
831.747314,320
831.865662,321
831.984009,319
832.102356,315
832.220642,313
832.338928,332
832.457275,322
832.575623,310
832.693909,333
832.812134,327
832.930481,334
833.048828,318
833.167114,321
833.2854,316
833.403687,313
833.521973,316
833.640259,317
833.758545,323
833.876831,310
833.995056,331
834.113281,318
834.231628,330
834.349915,323
834.468201,317
834.586426,322
834.704651,315
834.822998,318
834.941162,330
835.059448,304
835.177673,313
835.295959,337
835.414246,326
835.53241,314
835.650635,328
835.768921,316
835.887146,339
836.005371,324
836.123596,319
836.241821,327
836.360046,328
836.478271,324
836.596497,318
836.714722,311
836.832886,309
836.95105,303
837.069336,328
837.1875,319
837.305725,313
837.423889,323
837.542053,338
837.660339,323
837.778503,334
837.896667,330
838.014832,326
838.132996,311
838.25116,314
838.369385,310
838.487488,323
838.605713,329
838.723877,322
838.84198,325
838.960205,330
839.078308,321
839.196472,318
839.314636,319
839.4328,332
839.550964,309
839.669067,340
839.787231,316
839.905396,319
840.023499,323
840.141602,313
840.259766,327
840.377869,312
840.495972,331
840.614136,323
840.732239,316
840.850342,325
840.968445,314
841.086548,331
841.204651,320
841.322754,313
841.440918,322
841.55896,328
841.677002,316
841.795166,321
841.913208,317
842.031311,330
842.149353,325
842.267456,319
842.385498,323
842.503601,317
842.621643,321
842.739746,318
842.857788,322
842.97583,323
843.093933,308
843.211975,327
843.330017,333
843.44812,321
843.566101,330
843.684204,322
843.802246,314
843.920227,333
844.038269,320
844.156311,334
844.274292,305
844.392395,341
844.510376,316
844.628357,325
844.74646,328
844.864441,319
844.982422,320
845.100403,304
845.218384,323
845.336426,338
845.454468,333
845.572449,334
845.69043,317
845.808411,332
845.926453,314
846.044373,330
846.162354,321
846.280396,336
846.398315,321
846.516296,332
846.634216,315
846.752197,333
846.870178,308
846.988098,329
847.106079,313
847.22406,325
847.34198,329
847.4599,326
847.577881,311
847.695801,315
847.813782,328
847.931641,332
848.049561,336
848.167603,335
848.285461,329
848.403381,320
848.521362,313
848.639221,325
848.75708,310
848.875,323
848.99292,318
849.110901,330
849.22876,315
849.34668,335
849.464539,324
849.582458,331
849.700317,330
849.818176,323
849.936096,333
850.053955,328
850.171875,321
850.289673,335
850.407593,319
850.525452,323
850.643311,317
850.761169,328
850.878967,319
850.996887,325
851.114746,313
851.232544,315
851.350403,314
851.468262,322
851.58606,302
851.703979,324
851.821777,318
851.939636,331
852.057434,318
852.175232,320
852.293091,326
852.410889,317
852.528687,317
852.646545,328
852.764343,328
852.88208,327
852.999939,333
853.117676,321
853.235535,318
853.353271,315
853.471069,309
853.588928,313
853.706604,313
853.824402,334
853.9422,318
854.059998,320
854.177734,332
854.295532,326
854.413269,322
854.531006,321
854.648804,318
854.766541,333
854.884277,318
855.002014,328
855.119751,316
855.237549,307
855.355225,325
855.473022,334
855.590698,318
855.708435,331
855.826172,328
855.943848,327
856.061646,332
856.179321,324
856.296997,325
856.414795,320
856.53241,320
856.650085,338
856.767822,329
856.885559,322
857.003174,325
857.120911,344
857.238586,317
857.356201,319
857.473938,318
857.591614,320
857.709351,331
857.826965,331
857.944641,328
858.062317,325
858.179993,316
858.297668,325
858.415283,325
858.532959,324
858.650574,328
858.768188,315
858.885803,320
859.003479,335
859.121094,319
859.23877,331
859.356384,318
859.473999,335
859.591675,323
859.709229,333
859.826843,320
859.944458,311
860.062012,314
860.179626,324
860.297302,306
860.414856,333
860.532471,314
860.650024,323
860.767639,311
860.885193,322
861.002808,316
861.120361,329
861.237976,327
861.35553,320
861.473022,325
861.590698,339
861.708191,322
861.825745,334
861.943298,318
862.060852,321
862.178406,321
862.295959,314
862.413513,329
862.531006,330
862.64856,331
862.766113,338
862.883667,330
863.00116,319
863.118713,310
863.236206,320
863.353699,318
863.471252,321
863.588745,309
863.706177,333
863.82373,320
863.941162,326
864.058716,324
864.176208,325
864.29364,330
864.411194,317
864.528687,317
864.646118,318
864.763611,318
864.881042,330
864.998535,310
865.116028,330
865.233459,302
865.350891,322
865.468384,316
865.585754,330
865.703308,313
865.820679,325
865.938171,331
866.055542,320
866.173035,320
866.290466,326
866.407837,318
866.52533,327
866.6427,316
866.760071,319
866.877563,317
866.994934,330
867.112305,328
867.229736,324
867.347107,321
867.464539,318
867.58197,321
867.699341,333
867.81665,317
867.934082,325
868.051453,313
868.168823,340
868.286194,326
868.403564,329
868.520935,324
868.638306,326
868.755676,320
868.872986,317
868.990295,316
869.107727,327
869.225037,308
869.342346,300
869.459717,321
869.577026,327
869.694336,321
869.811707,334
869.929016,331
870.046326,334
870.163635,325
870.280945,323
870.398254,318
870.515564,323
870.632812,321
870.750183,322
870.867432,324
870.984741,332
871.102051,313
871.219299,345
871.336609,317
871.453918,334
871.571106,327
871.688416,327
871.805664,325
871.922852,335
872.040222,316
872.157471,337
872.274719,324
872.391968,335
872.509155,325
872.626465,328
872.743652,335
872.860962,331
872.978149,324
873.095337,333
873.212646,317
873.329834,331
873.44696,327
873.564209,319
873.681396,319
873.798645,328
873.915894,322
874.03302,326
874.150208,335
874.267456,322
874.384583,332
874.501831,322
874.618958,323
874.736145,329
874.853333,309
874.970459,330
875.087646,303
875.204834,321
875.32196,321
875.439148,331
875.556274,327
875.673401,331
875.790527,311
875.907715,317
876.024841,323
876.141968,327
876.259094,323
876.376282,323
876.493347,315
876.610474,328
876.7276,316
876.844727,323
876.961853,320
877.078918,328
877.195984,312
877.313171,340
877.430237,315
877.547302,320
877.664368,322
877.781433,328
877.898499,324
878.015625,314
878.13269,311
878.249695,319
878.366821,330
878.483887,321
878.600952,314
878.717957,341
878.834961,327
878.952087,316
879.069092,319
879.186157,324
879.303162,314
879.420227,336
879.537231,312
879.654236,322
879.77124,311
879.888306,313
880.005249,317
880.122314,334
880.239319,326
880.356323,329
880.473328,321
880.590271,305
880.707275,316
880.824341,318
880.941284,319
881.058228,318
881.175232,313
881.292236,318
881.40918,326
881.526123,319
881.643066,314
881.760071,312
881.877014,311
881.993958,319
882.11084,322
882.227783,303
882.344727,328
882.46167,322
882.578613,314
882.695618,307
882.812439,322
882.929382,341
883.046326,301
883.163208,337
883.280151,330
883.397034,314
883.513916,316
883.630798,320
883.747742,323
883.864563,324
883.981506,322
884.098389,320
884.21521,329
884.332153,318
884.448975,314
884.565796,330
884.682678,333
884.7995,323
884.916443,328
885.033264,324
885.150085,326
885.266968,329
885.383789,324
885.500671,341
885.617493,337
885.734314,332
885.851196,326
885.967896,320
886.084717,326
886.201599,327
886.318359,329
886.435181,326
886.552002,336
886.668762,336
886.785645,337
886.902344,335
887.019165,334
887.135925,324
887.252747,322
887.369446,332
887.486267,307
887.603027,324
887.719788,312
887.836548,328
887.953247,310
888.070068,330
888.186829,326
888.303528,327
888.420288,323
888.536987,324
888.653687,327
888.770447,327
888.887146,320
889.003967,312
889.120667,319
889.237305,333
889.354065,321
889.470703,321
889.587463,318
889.704163,325
889.820862,308
889.937561,308
890.054199,308
890.170837,314
890.287598,325
890.404236,311
890.520874,316
890.637634,317
890.754211,317
890.87085,333
890.987549,312
891.104187,316
891.220886,309
891.337463,322
891.454102,290
891.57074,316
891.687378,311
891.804077,318
891.920654,317
892.037231,309
892.15387,311
892.270447,330
892.387085,318
892.503723,316
892.6203,312
892.736877,330
892.853516,310
892.970032,327
893.08667,319
893.203186,318
893.319763,319
893.43634,315
893.552917,316
893.669556,315
893.786011,317
893.902588,322
894.019165,315
894.135681,316
894.252197,323
894.368835,321
894.485291,321
894.601868,327
894.718384,322
894.8349,320
894.951355,326
895.067932,332
895.184448,326
895.300964,317
895.417419,309
895.533936,329
895.650452,315
895.766907,320
895.883423,318
895.999878,309
896.116333,314
896.232849,321
896.349304,323
896.465759,315
896.582214,310
896.698669,314
896.815125,322
896.931641,328
897.048035,331
897.164551,321
897.280884,311
897.397339,315
897.513794,308
897.630249,327
897.746582,314
897.863098,323
897.979431,308
898.095886,322
898.212341,313
898.328674,321
898.445129,329
898.561462,324
898.677795,318
898.794312,319
898.910645,331
899.026978,321
899.143433,313
899.259766,319
899.37616,307
899.492493,323
899.608765,308
899.725159,310
899.841553,329
899.957947,312
900.07428,314
900.190552,319
900.306946,315
900.423157,324
900.53949,303
900.655884,333
900.772156,309
900.888489,310
901.004822,318
901.121033,307
901.237366,326
901.353699,331
901.46991,304
901.586304,322
901.702515,319
901.818787,318
901.93512,320
902.051331,317
902.167603,319
902.283875,328
902.400085,317
902.516418,329
902.632629,321
902.74884,334
902.865112,317
902.981384,333
903.097595,317
903.213867,330
903.330017,320
903.446289,327
903.5625,344
903.67865,334
903.794922,321
903.911072,337
904.027344,307
904.143494,330
904.259705,329
904.375916,328
904.492065,329
904.608215,328
904.724426,324
904.840576,323
904.956726,320
905.072876,322
905.189087,309
905.305176,330
905.421387,323
905.537537,317
905.653687,330
905.769775,323
905.885925,331
906.002014,328
906.118164,297
906.234314,314
906.350403,315
906.466492,309
906.582642,311
906.69873,316
906.814758,314
906.930908,321
907.046936,318
907.163086,325
907.279175,318
907.395264,315
907.511353,316
907.62738,324
907.743408,316
907.859497,330
907.975525,306
908.091553,303
908.207703,324
908.32373,324
908.439758,311
908.555786,311
908.671814,312
908.787842,312
908.90387,323
909.019775,315
909.135864,317
909.251892,320
909.367859,310
909.483826,323
909.599854,314
909.715881,321
909.831848,316
909.947815,324
910.063782,308
910.179749,322
910.295776,319
910.411743,323
910.527649,314
910.643616,319
910.759583,315
910.875488,316
910.991455,310
911.107361,334
911.223267,302
911.339294,325
911.4552,311
911.571106,311
911.687073,317
911.802979,323
911.918823,309
912.034729,328
912.150635,309
912.266602,326
912.382446,321
912.498352,324
912.614197,314
912.730103,324
912.846008,317
792.44574,357
792.56488,417
792.68396,458
792.80304,420
792.92218,384
793.041199,375
793.160339,363
793.279419,388
793.398499,378
793.517578,352
793.636658,370
793.755737,373
793.874817,382
793.993896,374
794.112976,364
794.232056,352
794.351074,362
794.470215,362
794.589233,355
794.708313,350
794.827393,338
794.946411,351
795.065552,377
795.18457,357
795.303589,359
795.422668,346
795.541687,350
795.660767,349
795.779846,360
795.898865,341
796.017883,334
796.136963,353
796.255981,346
796.375061,345
796.49408,350
796.613037,340
796.732117,348
796.851135,350
796.970154,350
797.089233,353
797.208191,356
797.327271,332
797.446228,349
797.565186,325
797.684265,340
797.803223,353
797.922241,337
798.04126,337
798.160278,343
798.279297,338
798.398315,341
798.517273,338
798.636292,338
798.75531,336
798.874268,333
798.993286,339
799.112244,332
799.231323,343
799.350281,332
799.469238,345
799.588257,337
799.707153,345
799.826111,357
799.945129,342
800.064087,355
800.183044,317
800.302063,346
800.421021,324
800.539978,358
800.658936,329
800.777893,332
800.896912,329
801.015747,337
801.134705,340
801.253723,334
801.37262,346
801.491638,332
801.610535,332
801.729492,323
801.84845,330
801.967407,328
802.086243,338
802.205261,341
802.324158,325
802.443115,337
802.562073,340
802.680969,326
802.799927,328
802.918762,332
803.037659,337
803.156677,323
803.275574,326
803.39447,336
803.513428,321
803.632263,338
803.751221,336
803.870117,312
803.989014,336
804.107971,336
804.226746,330
804.345642,345
804.4646,326
804.583496,342
804.702393,336
804.821228,343
804.940125,329
805.059021,329
805.177917,327
805.296814,334
805.415649,339
805.534546,321
805.653442,338
805.772278,349
805.891113,327
806.01001,324
806.128906,333
806.247742,326
806.366577,335
806.485413,323
806.604309,348
806.723145,323
806.84198,319
806.960876,338
807.079712,329
807.198486,332
807.317383,331
807.436218,344
807.554993,329
807.673889,335
807.792725,324
807.91156,332
808.030396,333
808.14917,329
808.268005,332
808.386841,333
808.505676,336
808.624451,319
808.743286,331
808.862122,326
808.980896,315
809.099731,337
809.218506,326
809.337341,328
809.456116,330
809.57489,336
809.693726,329
809.8125,331
809.931274,333
810.050049,322
810.168884,338
810.287659,343
810.406372,335
810.525269,340
810.643982,330
810.762756,329
810.881531,340
811.000305,334
811.11908,338
811.237854,334
811.356567,314
811.475403,346
811.594116,321
811.71283,326
811.831604,317
811.950378,340
812.069153,344
812.187927,332
812.30658,341
812.425415,325
812.544128,316
812.662781,325
812.781616,333
812.900269,323
813.019043,334
813.137756,328
813.256531,322
813.375244,328
813.493896,337
813.612671,327
813.731384,321
813.850037,329
813.96875,339
814.087524,312
814.206238,332
814.324951,342
814.443604,326
814.562256,316
814.68103,316
814.799683,333
814.918335,336
815.037109,328
815.155762,321
815.274475,328
815.393188,324
815.511841,344
815.630554,317
815.749146,329
815.867859,318
815.986572,343
816.105164,325
816.223877,349
816.342529,317
816.461182,319
816.579895,344
816.698486,349
816.817139,332
816.935791,326
817.054504,334
817.173096,337
817.291748,337
817.4104,337
817.529053,318
817.647644,329
817.766235,316
817.884949,338
818.00354,328
818.122192,337
818.240845,331
818.359436,333
818.478088,332
818.59668,331
818.715271,316
818.833923,323
818.952515,318
819.071106,335
819.189758,321
819.30835,327
819.426941,318
819.545532,330
819.664124,326
819.782715,338
819.901306,319
820.019897,325
820.138489,318
820.25708,315
820.375671,315
820.494202,331
820.612732,315
820.731384,330
820.849915,317
820.968506,350
821.087097,317
821.205627,337
821.324158,314
821.442749,313
821.561279,317
821.679871,316
821.798401,322
821.916931,319
822.035461,325
822.154053,334
822.272583,315
822.391174,327
822.509583,327
822.628174,322
822.746704,327
822.865234,311
822.983765,318
823.102295,316
823.220825,326
823.339294,313
823.457825,317
823.576355,322
823.694824,319
823.813354,332
823.931885,311
824.050354,320
824.168884,322
824.287354,336
824.405823,317
824.524353,329
824.642822,317
824.761353,316
824.879822,325
824.998291,327
825.116699,326
825.235291,319
825.353699,322
825.472168,325
825.590637,323
825.709106,333
825.827576,298
825.946045,331
826.064453,315
826.182983,333
826.301392,327
826.4198,320
826.53833,320
826.656738,317
826.775208,326
826.893677,321
827.012024,319
827.130493,319
827.248962,305
827.36731,323
827.485779,330
827.604248,320
827.722595,321
827.841064,328
827.959412,321
828.077942,337
828.196289,324
828.314636,327
828.433105,308
828.551514,332
828.669861,321
828.78833,312
828.906677,312
829.025085,321
829.143433,322
829.261841,329
829.38031,315
829.498657,319
829.617004,318
829.735413,326
829.85376,326
829.972107,321
830.090515,330
830.208862,323
830.327209,318
830.445557,327
830.563904,314
830.682312,332
830.800659,316
830.919006,321
831.037354,321
831.155701,316
831.274048,331
831.392395,327
831.51062,321
831.629028,321
831.747314,330
831.865662,334
831.984009,333
832.102356,323
832.220642,315
832.338928,315
832.457275,323
832.575623,312
832.693909,322
832.812134,327
832.930481,320
833.048828,321
833.167114,331
833.2854,327
833.403687,320
833.521973,324
833.640259,329
833.758545,320
833.876831,312
833.995056,311
834.113281,327
834.231628,329
834.349915,316
834.468201,305
834.586426,318
834.704651,326
834.822998,317
834.941162,320
835.059448,340
835.177673,318
835.295959,318
835.414246,318
835.53241,317
835.650635,320
835.768921,316
835.887146,316
836.005371,336
836.123596,333
836.241821,320
836.360046,326
836.478271,313
836.596497,335
836.714722,316
836.832886,320
836.95105,322
837.069336,330
837.1875,323
837.305725,336
837.423889,321
837.542053,329
837.660339,318
837.778503,326
837.896667,317
838.014832,339
838.132996,325
838.25116,318
838.369385,309
838.487488,318
838.605713,318
838.723877,310
838.84198,319
838.960205,326
839.078308,310
839.196472,336
839.314636,324
839.4328,338
839.550964,320
839.669067,329
839.787231,320
839.905396,326
840.023499,313
840.141602,335
840.259766,318
840.377869,322
840.495972,325
840.614136,334
840.732239,330
840.850342,330
840.968445,310
841.086548,333
841.204651,324
841.322754,333
841.440918,320
841.55896,330
841.677002,337
841.795166,322
841.913208,318
842.031311,337
842.149353,326
842.267456,334
842.385498,327
842.503601,332
842.621643,325
842.739746,334
842.857788,308
842.97583,324
843.093933,341
843.211975,324
843.330017,327
843.44812,338
843.566101,336
843.684204,321
843.802246,326
843.920227,337
844.038269,321
844.156311,324
844.274292,313
844.392395,329
844.510376,324
844.628357,332
844.74646,312
844.864441,340
844.982422,328
845.100403,323
845.218384,331
845.336426,326
845.454468,319
845.572449,314
845.69043,317
845.808411,312
845.926453,327
846.044373,322
846.162354,333
846.280396,328
846.398315,321
846.516296,320
846.634216,320
846.752197,323
846.870178,336
846.988098,322
847.106079,329
847.22406,341
847.34198,318
847.4599,323
847.577881,323
847.695801,321
847.813782,328
847.931641,332
848.049561,333
848.167603,317
848.285461,329
848.403381,316
848.521362,334
848.639221,335
848.75708,326
848.875,319
848.99292,328
849.110901,336
849.22876,326
849.34668,335
849.464539,315
849.582458,324
849.700317,300
849.818176,320
849.936096,321
850.053955,322
850.171875,318
850.289673,329
850.407593,319
850.525452,325
850.643311,322
850.761169,330
850.878967,319
850.996887,334
851.114746,325
851.232544,335
851.350403,316
851.468262,328
851.58606,318
851.703979,327
851.821777,328
851.939636,323
852.057434,319
852.175232,316
852.293091,324
852.410889,332
852.528687,319
852.646545,324
852.764343,328
852.88208,343
852.999939,321
853.117676,323
853.235535,312
853.353271,326
853.471069,326
853.588928,318
853.706604,327
853.824402,322
853.9422,332
854.059998,325
854.177734,321
854.295532,313
854.413269,329
854.531006,324
854.648804,331
854.766541,336
854.884277,316
855.002014,322
855.119751,316
855.237549,331
855.355225,326
855.473022,323
855.590698,315
855.708435,327
855.826172,327
855.943848,329
856.061646,328
856.179321,327
856.296997,326
856.414795,328
856.53241,325
856.650085,327
856.767822,332
856.885559,344
857.003174,324
857.120911,329
857.238586,332
857.356201,324
857.473938,324
857.591614,333
857.709351,312
857.826965,336
857.944641,324
858.062317,320
858.179993,317
858.297668,331
858.415283,338
858.532959,318
858.650574,329
858.768188,327
858.885803,313
859.003479,329
859.121094,317
859.23877,323
859.356384,323
859.473999,324
859.591675,328
859.709229,316
859.826843,326
859.944458,323
860.062012,317
860.179626,323
860.297302,321
860.414856,318
860.532471,327
860.650024,321
860.767639,317
860.885193,319
861.002808,321
861.120361,322
861.237976,331
861.35553,330
861.473022,325
861.590698,336
861.708191,331
861.825745,326
861.943298,313
862.060852,333
862.178406,322
862.295959,330
862.413513,322
862.531006,329
862.64856,309
862.766113,324
862.883667,325
863.00116,316
863.118713,322
863.236206,322
863.353699,321
863.471252,323
863.588745,319
863.706177,338
863.82373,324
863.941162,329
864.058716,312
864.176208,314
864.29364,322
864.411194,323
864.528687,307
864.646118,335
864.763611,314
864.881042,315
864.998535,326
865.116028,322
865.233459,329
865.350891,307
865.468384,323
865.585754,315
865.703308,323
865.820679,326
865.938171,322
866.055542,321
866.173035,316
866.290466,319
866.407837,304
866.52533,316
866.6427,318
866.760071,309
866.877563,331
866.994934,327
867.112305,329
867.229736,328
867.347107,314
867.464539,317
867.58197,336
867.699341,328
867.81665,317
867.934082,318
868.051453,318
868.168823,319
868.286194,326
868.403564,335
868.520935,309
868.638306,323
868.755676,326
868.872986,322
868.990295,326
869.107727,320
869.225037,328
869.342346,324
869.459717,312
869.577026,331
869.694336,309
869.811707,343
869.929016,329
870.046326,333
870.163635,326
870.280945,327
870.398254,319
870.515564,337
870.632812,314
870.750183,330
870.867432,329
870.984741,334
871.102051,329
871.219299,333
871.336609,317
871.453918,315
871.571106,332
871.688416,333
871.805664,323
871.922852,335
872.040222,317
872.157471,332
872.274719,319
872.391968,335
872.509155,327
872.626465,337
872.743652,331
872.860962,327
872.978149,315
873.095337,325
873.212646,308
873.329834,344
873.44696,324
873.564209,332
873.681396,314
873.798645,327
873.915894,322
874.03302,331
874.150208,319
874.267456,327
874.384583,323
874.501831,339
874.618958,318
874.736145,335
874.853333,325
874.970459,337
875.087646,324
875.204834,330
875.32196,318
875.439148,345
875.556274,305
875.673401,332
875.790527,329
875.907715,339
876.024841,314
876.141968,336
876.259094,323
876.376282,327
876.493347,322
876.610474,326
876.7276,323
876.844727,326
876.961853,330
877.078918,333
877.195984,328
877.313171,305
877.430237,326
877.547302,335
877.664368,317
877.781433,323
877.898499,337
878.015625,328
878.13269,327
878.249695,317
878.366821,319
878.483887,317
878.600952,335
878.717957,331
878.834961,314
878.952087,307
879.069092,321
879.186157,331
879.303162,325
879.420227,326
879.537231,315
879.654236,328
879.77124,320
879.888306,313
880.005249,319
880.122314,339
880.239319,317
880.356323,315
880.473328,321
880.590271,318
880.707275,329
880.824341,326
880.941284,314
881.058228,323
881.175232,323
881.292236,313
881.40918,316
881.526123,332
881.643066,319
881.760071,324
881.877014,318
881.993958,322
882.11084,319
882.227783,322
882.344727,318
882.46167,331
882.578613,301
882.695618,337
882.812439,329
882.929382,325
883.046326,327
883.163208,330
883.280151,316
883.397034,321
883.513916,315
883.630798,316
883.747742,329
883.864563,326
883.981506,323
884.098389,323
884.21521,321
884.332153,330
884.448975,327
884.565796,324
884.682678,318
884.7995,328
884.916443,327
885.033264,331
885.150085,316
885.266968,345
885.383789,332
885.500671,329
885.617493,345
885.734314,344
885.851196,338
885.967896,341
886.084717,332
886.201599,323
886.318359,324
886.435181,326
886.552002,333
886.668762,330
886.785645,343
886.902344,339
887.019165,326
887.135925,329
887.252747,336
887.369446,344
887.486267,330
887.603027,327
887.719788,324
887.836548,318
887.953247,307
888.070068,323
888.186829,323
888.303528,332
888.420288,316
888.536987,330
888.653687,326
888.770447,337
888.887146,314
889.003967,327
889.120667,325
889.237305,323
889.354065,310
889.470703,325
889.587463,310
889.704163,331
889.820862,310
889.937561,323
890.054199,317
890.170837,316
890.287598,312
890.404236,324
890.520874,325
890.637634,333
890.754211,316
890.87085,327
890.987549,302
891.104187,314
891.220886,325
891.337463,324
891.454102,310
891.57074,324
891.687378,310
891.804077,329
891.920654,316
892.037231,322
892.15387,315
892.270447,311
892.387085,324
892.503723,327
892.6203,328
892.736877,304
892.853516,315
892.970032,335
893.08667,317
893.203186,332
893.319763,323
893.43634,317
893.552917,314
893.669556,321
893.786011,313
893.902588,318
894.019165,312
894.135681,333
894.252197,312
894.368835,330
894.485291,307
894.601868,315
894.718384,320
894.8349,314
894.951355,319
895.067932,321
895.184448,308
895.300964,313
895.417419,318
895.533936,342
895.650452,313
895.766907,337
895.883423,331
895.999878,312
896.116333,325
896.232849,316
896.349304,307
896.465759,302
896.582214,313
896.698669,324
896.815125,315
896.931641,315
897.048035,309
897.164551,317
897.280884,325
897.397339,327
897.513794,309
897.630249,320
897.746582,328
897.863098,340
897.979431,320
898.095886,321
898.212341,320
898.328674,329
898.445129,306
898.561462,311
898.677795,328
898.794312,316
898.910645,313
899.026978,318
899.143433,324
899.259766,330
899.37616,310
899.492493,326
899.608765,325
899.725159,326
899.841553,315
899.957947,319
900.07428,322
900.190552,328
900.306946,318
900.423157,315
900.53949,320
900.655884,320
900.772156,326
900.888489,325
901.004822,311
901.121033,329
901.237366,319
901.353699,329
901.46991,327
901.586304,330
901.702515,308
901.818787,321
901.93512,326
902.051331,324
902.167603,312
902.283875,330
902.400085,320
902.516418,328
902.632629,326
902.74884,325
902.865112,322
902.981384,340
903.097595,330
903.213867,338
903.330017,309
903.446289,328
903.5625,329
903.67865,333
903.794922,323
903.911072,320
904.027344,331
904.143494,316
904.259705,319
904.375916,325
904.492065,306
904.608215,318
904.724426,324
904.840576,323
904.956726,323
905.072876,327
905.189087,319
905.305176,324
905.421387,319
905.537537,327
905.653687,319
905.769775,313
905.885925,311
906.002014,321
906.118164,307
906.234314,326
906.350403,324
906.466492,319
906.582642,307
906.69873,317
906.814758,314
906.930908,334
907.046936,301
907.163086,311
907.279175,318
907.395264,317
907.511353,325
907.62738,329
907.743408,315
907.859497,315
907.975525,315
908.091553,324
908.207703,302
908.32373,323
908.439758,313
908.555786,330
908.671814,314
908.787842,329
908.90387,314
909.019775,316
909.135864,308
909.251892,319
909.367859,315
909.483826,327
909.599854,309
909.715881,334
909.831848,327
909.947815,323
910.063782,310
910.179749,332
910.295776,309
910.411743,321
910.527649,308
910.643616,332
910.759583,319
910.875488,315
910.991455,328
911.107361,322
911.223267,330
911.339294,316
911.4552,316
911.571106,330
911.687073,316
911.802979,332
911.918823,315
912.034729,323
912.150635,314
912.266602,311
912.382446,306
912.498352,322
912.614197,316
912.730103,333
912.846008,311
