792.44574,363
792.56488,399
792.68396,433
792.80304,431
792.92218,380
793.041199,356
793.160339,346
793.279419,352
793.398499,353
793.517578,359
793.636658,358
793.755737,369
793.874817,367
793.993896,366
794.112976,357
794.232056,347
794.351074,355
794.470215,333
794.589233,365
794.708313,344
794.827393,361
794.946411,350
795.065552,345
795.18457,357
795.303589,354
795.422668,348
795.541687,341
795.660767,342
795.779846,348
795.898865,345
796.017883,354
796.136963,337
796.255981,340
796.375061,359
796.49408,347
796.613037,342
796.732117,346
796.851135,331
796.970154,346
797.089233,351
797.208191,348
797.327271,338
797.446228,343
797.565186,342
797.684265,331
797.803223,353
797.922241,339
798.04126,344
798.160278,343
798.279297,341
798.398315,338
798.517273,329
798.636292,348
798.75531,346
798.874268,348
798.993286,325
799.112244,344
799.231323,334
799.350281,337
799.469238,331
799.588257,339
799.707153,334
799.826111,334
799.945129,343
800.064087,333
800.183044,340
800.302063,345
800.421021,346
800.539978,336
800.658936,343
800.777893,334
800.896912,336
801.015747,332
801.134705,337
801.253723,322
801.37262,342
801.491638,338
801.610535,316
801.729492,342
801.84845,339
801.967407,329
802.086243,333
802.205261,325
802.324158,336
802.443115,320
802.562073,331
802.680969,319
802.799927,324
802.918762,342
803.037659,323
803.156677,333
803.275574,328
803.39447,333
803.513428,315
803.632263,337
803.751221,328
803.870117,335
803.989014,319
804.107971,321
804.226746,325
804.345642,331
804.4646,334
804.583496,329
804.702393,331
804.821228,327
804.940125,334
805.059021,313
805.177917,334
805.296814,331
805.415649,317
805.534546,334
805.653442,333
805.772278,314
805.891113,335
806.01001,328
806.128906,325
806.247742,333
806.366577,330
806.485413,333
806.604309,334
806.723145,329
806.84198,333
806.960876,326
807.079712,332
807.198486,332
807.317383,337
807.436218,339
807.554993,326
807.673889,319
807.792725,320
807.91156,318
808.030396,321
808.14917,329
808.268005,322
808.386841,332
808.505676,329
808.624451,322
808.743286,321
808.862122,320
808.980896,314
809.099731,333
809.218506,323
809.337341,331
809.456116,340
809.57489,328
809.693726,321
809.8125,335
809.931274,340
810.050049,316
810.168884,327
810.287659,338
810.406372,318
810.525269,341
810.643982,334
810.762756,335
810.881531,331
811.000305,332
811.11908,329
811.237854,345
811.356567,323
811.475403,318
811.594116,325
811.71283,321
811.831604,329
811.950378,332
812.069153,335
812.187927,327
812.30658,333
812.425415,324
812.544128,334
812.662781,330
812.781616,337
812.900269,325
813.019043,320
813.137756,332
813.256531,326
813.375244,322
813.493896,327
813.612671,339
813.731384,332
813.850037,315
813.96875,341
814.087524,327
814.206238,341
814.324951,325
814.443604,340
814.562256,330
814.68103,321
814.799683,330
814.918335,323
815.037109,337
815.155762,330
815.274475,326
815.393188,318
815.511841,345
815.630554,315
815.749146,331
815.867859,322
815.986572,346
816.105164,326
816.223877,339
816.342529,325
816.461182,323
816.579895,329
816.698486,332
816.817139,327
816.935791,328
817.054504,322
817.173096,323
817.291748,314
817.4104,320
817.529053,331
817.647644,334
817.766235,323
817.884949,329
818.00354,332
818.122192,321
818.240845,326
818.359436,331
818.478088,333
818.59668,335
818.715271,326
818.833923,334
818.952515,321
819.071106,321
819.189758,317
819.30835,333
819.426941,321
819.545532,320
819.664124,320
819.782715,318
819.901306,315
820.019897,322
820.138489,315
820.25708,335
820.375671,332
820.494202,330
820.612732,322
820.731384,315
820.849915,312
820.968506,327
821.087097,327
821.205627,331
821.324158,325
821.442749,324
821.561279,322
821.679871,319
821.798401,317
821.916931,330
822.035461,318
822.154053,329
822.272583,310
822.391174,322
822.509583,329
822.628174,328
822.746704,330
822.865234,313
822.983765,328
823.102295,331
823.220825,320
823.339294,335
823.457825,309
823.576355,338
823.694824,318
823.813354,323
823.931885,313
824.050354,332
824.168884,318
824.287354,324
824.405823,327
824.524353,327
824.642822,313
824.761353,321
824.879822,311
824.998291,321
825.116699,311
825.235291,327
825.353699,301
825.472168,329
825.590637,321
825.709106,320
825.827576,317
825.946045,329
826.064453,322
826.182983,314
826.301392,324
826.4198,329
826.53833,307
826.656738,318
826.775208,319
826.893677,319
827.012024,324
827.130493,327
827.248962,320
827.36731,330
827.485779,333
827.604248,329
827.722595,316
827.841064,326
827.959412,327
828.077942,332
828.196289,325
828.314636,327
828.433105,320
828.551514,319
828.669861,327
828.78833,317
828.906677,321
829.025085,320
829.143433,309
829.261841,304
829.38031,324
829.498657,332
829.617004,315
829.735413,323
829.85376,310
829.972107,337
830.090515,313
830.208862,311
830.327209,314
830.445557,315
830.563904,318
830.682312,321
830.800659,309
830.919006,329
831.037354,325
831.155701,324
831.274048,316
831.392395,330
831.51062,315
831.629028,323
831.747314,304
831.865662,327
831.984009,314
832.102356,327
832.220642,320
832.338928,331
832.457275,316
832.575623,319
832.693909,317
832.812134,330
832.930481,310
833.048828,333
833.167114,313
833.2854,306
833.403687,319
833.521973,332
833.640259,333
833.758545,314
833.876831,322
833.995056,319
834.113281,310
834.231628,321
834.349915,312
834.468201,330
834.586426,328
834.704651,329
834.822998,314
834.941162,324
835.059448,332
835.177673,325
835.295959,314
835.414246,301
835.53241,316
835.650635,316
835.768921,315
835.887146,328
836.005371,316
836.123596,319
836.241821,317
836.360046,342
836.478271,318
836.596497,324
836.714722,313
836.832886,321
836.95105,328
837.069336,324
837.1875,315
837.305725,314
837.423889,307
837.542053,333
837.660339,313
837.778503,310
837.896667,332
838.014832,326
838.132996,317
838.25116,328
838.369385,311
838.487488,331
838.605713,319
838.723877,313
838.84198,331
838.960205,323
839.078308,310
839.196472,332
839.314636,317
839.4328,321
839.550964,319
839.669067,329
839.787231,332
839.905396,329
840.023499,324
840.141602,336
840.259766,333
840.377869,326
840.495972,331
840.614136,335
840.732239,322
840.850342,324
840.968445,315
841.086548,333
841.204651,330
841.322754,328
841.440918,310
841.55896,316
841.677002,322
841.795166,342
841.913208,321
842.031311,317
842.149353,319
842.267456,329
842.385498,325
842.503601,323
842.621643,319
842.739746,315
842.857788,304
842.97583,330
843.093933,323
843.211975,324
843.330017,313
843.44812,327
843.566101,309
843.684204,322
843.802246,330
843.920227,315
844.038269,310
844.156311,325
844.274292,329
844.392395,315
844.510376,319
844.628357,328
844.74646,317
844.864441,329
844.982422,322
845.100403,314
845.218384,323
845.336426,315
845.454468,310
845.572449,334
845.69043,317
845.808411,323
845.926453,324
846.044373,326
846.162354,316
846.280396,315
846.398315,321
846.516296,330
846.634216,320
846.752197,320
846.870178,310
846.988098,324
847.106079,317
847.22406,311
847.34198,313
847.4599,338
847.577881,313
847.695801,320
847.813782,314
847.931641,318
848.049561,326
848.167603,310
848.285461,325
848.403381,329
848.521362,330
848.639221,320
848.75708,323
848.875,321
848.99292,326
849.110901,322
849.22876,317
849.34668,329
849.464539,326
849.582458,317
849.700317,326
849.818176,335
849.936096,312
850.053955,329
850.171875,322
850.289673,326
850.407593,327
850.525452,318
850.643311,315
850.761169,324
850.878967,325
850.996887,333
851.114746,321
851.232544,328
851.350403,319
851.468262,326
851.58606,322
851.703979,317
851.821777,321
851.939636,329
852.057434,321
852.175232,344
852.293091,318
852.410889,326
852.528687,324
852.646545,323
852.764343,308
852.88208,308
852.999939,323
853.117676,317
853.235535,321
853.353271,323
853.471069,329
853.588928,329
853.706604,333
853.824402,325
853.9422,320
854.059998,317
854.177734,318
854.295532,329
854.413269,322
854.531006,316
854.648804,323
854.766541,321
854.884277,330
855.002014,320
855.119751,316
855.237549,337
855.355225,313
855.473022,320
855.590698,325
855.708435,307
855.826172,335
855.943848,335
856.061646,328
856.179321,323
856.296997,317
856.414795,342
856.53241,332
856.650085,324
856.767822,314
856.885559,327
857.003174,319
857.120911,334
857.238586,331
857.356201,334
857.473938,312
857.591614,336
857.709351,326
857.826965,325
857.944641,335
858.062317,317
858.179993,322
858.297668,320
858.415283,309
858.532959,336
858.650574,328
858.768188,320
858.885803,327
859.003479,317
859.121094,318
859.23877,320
859.356384,322
859.473999,326
859.591675,331
859.709229,331
859.826843,318
859.944458,332
860.062012,330
860.179626,324
860.297302,323
860.414856,327
860.532471,327
860.650024,334
860.767639,319
860.885193,334
861.002808,312
861.120361,335
861.237976,323
861.35553,327
861.473022,327
861.590698,331
861.708191,319
861.825745,325
861.943298,333
862.060852,325
862.178406,323
862.295959,330
862.413513,325
862.531006,321
862.64856,320
862.766113,322
862.883667,327
863.00116,331
863.118713,328
863.236206,336
863.353699,313
863.471252,324
863.588745,315
863.706177,327
863.82373,310
863.941162,332
864.058716,305
864.176208,326
864.29364,325
864.411194,328
864.528687,318
864.646118,332
864.763611,321
864.881042,321
864.998535,318
865.116028,325
865.233459,329
865.350891,317
865.468384,314
865.585754,327
865.703308,314
865.820679,326
865.938171,316
866.055542,315
866.173035,320
866.290466,315
866.407837,306
866.52533,336
866.6427,312
866.760071,324
866.877563,322
866.994934,323
867.112305,315
867.229736,321
867.347107,313
867.464539,312
867.58197,325
867.699341,333
867.81665,322
867.934082,333
868.051453,322
868.168823,324
868.286194,326
868.403564,331
868.520935,320
868.638306,325
868.755676,331
868.872986,336
868.990295,314
869.107727,319
869.225037,325
869.342346,312
869.459717,321
869.577026,327
869.694336,328
869.811707,314
869.929016,312
870.046326,323
870.163635,334
870.280945,326
870.398254,325
870.515564,314
870.632812,329
870.750183,327
870.867432,312
870.984741,345
871.102051,322
871.219299,324
871.336609,324
871.453918,329
871.571106,317
871.688416,331
871.805664,334
871.922852,338
872.040222,325
872.157471,318
872.274719,318
872.391968,336
872.509155,329
872.626465,323
872.743652,323
872.860962,327
872.978149,307
873.095337,329
873.212646,327
873.329834,323
873.44696,317
873.564209,331
873.681396,329
873.798645,326
873.915894,316
874.03302,323
874.150208,327
874.267456,334
874.384583,313
874.501831,323
874.618958,325
874.736145,327
874.853333,309
874.970459,319
875.087646,315
875.204834,336
875.32196,325
875.439148,336
875.556274,317
875.673401,318
875.790527,323
875.907715,331
876.024841,325
876.141968,330
876.259094,314
876.376282,314
876.493347,324
876.610474,320
876.7276,326
876.844727,311
876.961853,324
877.078918,329
877.195984,337
877.313171,324
877.430237,326
877.547302,325
877.664368,333
877.781433,324
877.898499,325
878.015625,310
878.13269,330
878.249695,320
878.366821,314
878.483887,331
878.600952,317
878.717957,316
878.834961,311
878.952087,329
879.069092,320
879.186157,309
879.303162,317
879.420227,319
879.537231,332
879.654236,320
879.77124,307
879.888306,310
880.005249,331
880.122314,330
880.239319,316
880.356323,328
880.473328,306
880.590271,319
880.707275,307
880.824341,329
880.941284,318
881.058228,318
881.175232,328
881.292236,300
881.40918,320
881.526123,327
881.643066,320
881.760071,333
881.877014,315
881.993958,317
882.11084,324
882.227783,341
882.344727,311
882.46167,321
882.578613,330
882.695618,326
882.812439,325
882.929382,323
883.046326,308
883.163208,313
883.280151,308
883.397034,320
883.513916,331
883.630798,328
883.747742,330
883.864563,323
883.981506,332
884.098389,323
884.21521,316
884.332153,340
884.448975,319
884.565796,326
884.682678,317
884.7995,325
884.916443,333
885.033264,321
885.150085,325
885.266968,334
885.383789,321
885.500671,344
885.617493,320
885.734314,331
885.851196,334
885.967896,326
886.084717,340
886.201599,315
886.318359,329
886.435181,342
886.552002,330
886.668762,341
886.785645,319
886.902344,343
887.019165,327
887.135925,315
887.252747,332
887.369446,320
887.486267,323
887.603027,321
887.719788,320
887.836548,322
887.953247,320
888.070068,322
888.186829,321
888.303528,317
888.420288,322
888.536987,324
888.653687,321
888.770447,316
888.887146,315
889.003967,322
889.120667,325
889.237305,324
889.354065,300
889.470703,320
889.587463,305
889.704163,330
889.820862,305
889.937561,310
890.054199,311
890.170837,320
890.287598,303
890.404236,323
890.520874,308
890.637634,321
890.754211,319
890.87085,305
890.987549,311
891.104187,324
891.220886,323
891.337463,322
891.454102,314
891.57074,325
891.687378,321
891.804077,319
891.920654,318
892.037231,321
892.15387,317
892.270447,322
892.387085,331
892.503723,327
892.6203,309
892.736877,320
892.853516,322
892.970032,314
893.08667,323
893.203186,321
893.319763,321
893.43634,325
893.552917,301
893.669556,333
893.786011,315
893.902588,313
894.019165,320
894.135681,322
894.252197,315
894.368835,327
894.485291,318
894.601868,308
894.718384,316
894.8349,328
894.951355,310
895.067932,310
895.184448,321
895.300964,317
895.417419,310
895.533936,310
895.650452,318
895.766907,326
895.883423,308
895.999878,312
896.116333,321
896.232849,326
896.349304,324
896.465759,315
896.582214,325
896.698669,328
896.815125,319
896.931641,326
897.048035,307
897.164551,321
897.280884,314
897.397339,326
897.513794,313
897.630249,321
897.746582,297
897.863098,314
897.979431,325
898.095886,320
898.212341,305
898.328674,313
898.445129,323
898.561462,335
898.677795,322
898.794312,321
898.910645,316
899.026978,310
899.143433,326
899.259766,315
899.37616,325
899.492493,319
899.608765,327
899.725159,328
899.841553,306
899.957947,328
900.07428,324
900.190552,325
900.306946,331
900.423157,319
900.53949,311
900.655884,327
900.772156,314
900.888489,314
901.004822,314
901.121033,311
901.237366,324
901.353699,334
901.46991,312
901.586304,326
901.702515,310
901.818787,321
901.93512,311
902.051331,317
902.167603,307
902.283875,321
902.400085,319
902.516418,316
902.632629,335
902.74884,340
902.865112,317
902.981384,338
903.097595,329
903.213867,323
903.330017,312
903.446289,319
903.5625,305
903.67865,324
903.794922,321
903.911072,327
904.027344,312
904.143494,311
904.259705,323
904.375916,336
904.492065,315
904.608215,333
904.724426,305
904.840576,309
904.956726,320
905.072876,337
905.189087,312
905.305176,326
905.421387,317
905.537537,332
905.653687,310
905.769775,320
905.885925,306
906.002014,323
906.118164,314
906.234314,317
906.350403,299
906.466492,332
906.582642,325
906.69873,323
906.814758,318
906.930908,331
907.046936,328
907.163086,318
907.279175,324
907.395264,321
907.511353,306
907.62738,335
907.743408,304
907.859497,307
907.975525,308
908.091553,327
908.207703,319
908.32373,317
908.439758,319
908.555786,325
908.671814,304
908.787842,317
908.90387,317
909.019775,337
909.135864,315
909.251892,309
909.367859,320
909.483826,299
909.599854,309
909.715881,312
909.831848,328
909.947815,324
910.063782,317
910.179749,310
910.295776,310
910.411743,327
910.527649,313
910.643616,331
910.759583,314
910.875488,316
910.991455,314
911.107361,331
911.223267,305
911.339294,332
911.4552,308
911.571106,309
911.687073,312
911.802979,330
911.918823,305
912.034729,332
912.150635,301
912.266602,316
912.382446,318
912.498352,303
912.614197,320
912.730103,322
912.846008,313
792.44574,359
792.56488,391
792.68396,449
792.80304,423
792.92218,376
793.041199,374
793.160339,358
793.279419,382
793.398499,350
793.517578,372
793.636658,358
793.755737,355
793.874817,368
793.993896,374
794.112976,350
794.232056,361
794.351074,353
794.470215,350
794.589233,357
794.708313,345
794.827393,344
794.946411,337
795.065552,362
795.18457,364
795.303589,351
795.422668,357
795.541687,353
795.660767,347
795.779846,347
795.898865,357
796.017883,344
796.136963,342
796.255981,344
796.375061,358
796.49408,339
796.613037,339
796.732117,344
796.851135,340
796.970154,344
797.089233,338
797.208191,342
797.327271,349
797.446228,332
797.565186,330
797.684265,340
797.803223,340
797.922241,341
798.04126,339
798.160278,345
798.279297,332
798.398315,333
798.517273,332
798.636292,349
798.75531,337
798.874268,334
798.993286,347
799.112244,334
799.231323,336
799.350281,347
799.469238,331
799.588257,345
799.707153,335
799.826111,347
799.945129,347
800.064087,328
800.183044,341
800.302063,352
800.421021,333
800.539978,331
800.658936,339
800.777893,324
800.896912,342
801.015747,334
801.134705,330
801.253723,335
801.37262,322
801.491638,326
801.610535,332
801.729492,333
801.84845,340
801.967407,344
802.086243,333
802.205261,329
802.324158,318
802.443115,324
802.562073,331
802.680969,336
802.799927,330
802.918762,334
803.037659,342
803.156677,327
803.275574,331
803.39447,316
803.513428,322
803.632263,321
803.751221,331
803.870117,331
803.989014,330
804.107971,327
804.226746,326
804.345642,344
804.4646,332
804.583496,333
804.702393,337
804.821228,325
804.940125,329
805.059021,328
805.177917,319
805.296814,334
805.415649,321
805.534546,335
805.653442,331
805.772278,336
805.891113,329
806.01001,330
806.128906,325
806.247742,326
806.366577,326
806.485413,338
806.604309,326
806.723145,327
806.84198,320
806.960876,321
807.079712,323
807.198486,335
807.317383,333
807.436218,317
807.554993,332
807.673889,327
807.792725,326
807.91156,352
808.030396,323
808.14917,325
808.268005,319
808.386841,327
808.505676,323
808.624451,335
808.743286,337
808.862122,315
808.980896,320
809.099731,341
809.218506,316
809.337341,332
809.456116,330
809.57489,326
809.693726,322
809.8125,329
809.931274,323
810.050049,337
810.168884,323
810.287659,317
810.406372,335
810.525269,330
810.643982,322
810.762756,328
810.881531,329
811.000305,326
811.11908,329
811.237854,330
811.356567,326
811.475403,331
811.594116,330
811.71283,326
811.831604,329
811.950378,328
812.069153,319
812.187927,337
812.30658,332
812.425415,333
812.544128,331
812.662781,324
812.781616,335
812.900269,326
813.019043,326
813.137756,311
813.256531,336
813.375244,331
813.493896,323
813.612671,348
813.731384,317
813.850037,331
813.96875,348
814.087524,322
814.206238,342
814.324951,327
814.443604,328
814.562256,340
814.68103,328
814.799683,345
814.918335,325
815.037109,337
815.155762,335
815.274475,319
815.393188,330
815.511841,327
815.630554,329
815.749146,318
815.867859,328
815.986572,330
816.105164,327
816.223877,336
816.342529,319
816.461182,342
816.579895,333
816.698486,337
816.817139,336
816.935791,336
817.054504,322
817.173096,321
817.291748,337
817.4104,326
817.529053,315
817.647644,326
817.766235,335
817.884949,331
818.00354,328
818.122192,321
818.240845,323
818.359436,319
818.478088,327
818.59668,328
818.715271,320
818.833923,324
818.952515,335
819.071106,315
819.189758,329
819.30835,311
819.426941,325
819.545532,323
819.664124,328
819.782715,334
819.901306,312
820.019897,337
820.138489,294
820.25708,328
820.375671,319
820.494202,327
820.612732,321
820.731384,331
820.849915,313
820.968506,307
821.087097,332
821.205627,333
821.324158,314
821.442749,320
821.561279,313
821.679871,318
821.798401,325
821.916931,323
822.035461,330
822.154053,325
822.272583,325
822.391174,340
822.509583,312
822.628174,318
822.746704,318
822.865234,321
822.983765,316
823.102295,324
823.220825,317
823.339294,323
823.457825,321
823.576355,323
823.694824,325
823.813354,335
823.931885,317
824.050354,339
824.168884,310
824.287354,327
824.405823,318
824.524353,324
824.642822,317
824.761353,322
824.879822,308
824.998291,321
825.116699,321
825.235291,315
825.353699,325
825.472168,328
825.590637,315
825.709106,332
825.827576,327
825.946045,320
826.064453,314
826.182983,311
826.301392,321
826.4198,324
826.53833,319
826.656738,327
826.775208,317
826.893677,316
827.012024,322
827.130493,339
827.248962,325
827.36731,319
827.485779,322
827.604248,324
827.722595,325
827.841064,327
827.959412,324
828.077942,317
828.196289,323
828.314636,314
828.433105,311
828.551514,310
828.669861,319
828.78833,327
828.906677,325
829.025085,328
829.143433,324
829.261841,327
829.38031,310
829.498657,322
829.617004,314
829.735413,318
829.85376,320
829.972107,325
830.090515,329
830.208862,315
830.327209,318
830.445557,307
830.563904,326
830.682312,315
830.800659,316
830.919006,324
831.037354,307
831.155701,321
831.274048,328
831.392395,323
831.51062,318
831.629028,329
831.747314,308
831.865662,335
831.984009,322
832.102356,307
832.220642,320
832.338928,325
832.457275,314
832.575623,336
832.693909,325
832.812134,321
832.930481,319
833.048828,325
833.167114,323
833.2854,324
833.403687,318
833.521973,324
833.640259,303
833.758545,313
833.876831,307
833.995056,323
834.113281,312
834.231628,340
834.349915,315
834.468201,331
834.586426,314
834.704651,325
834.822998,314
834.941162,323
835.059448,313
835.177673,328
835.295959,311
835.414246,318
835.53241,333
835.650635,325
835.768921,321
835.887146,308
836.005371,322
836.123596,321
836.241821,307
836.360046,321
836.478271,318
836.596497,334
836.714722,326
836.832886,309
836.95105,321
837.069336,315
837.1875,311
837.305725,322
837.423889,308
837.542053,330
837.660339,315
837.778503,324
837.896667,320
838.014832,329
838.132996,323
838.25116,337
838.369385,328
838.487488,314
838.605713,314
838.723877,319
838.84198,322
838.960205,323
839.078308,314
839.196472,323
839.314636,308
839.4328,315
839.550964,320
839.669067,323
839.787231,319
839.905396,324
840.023499,328
840.141602,338
840.259766,329
840.377869,327
840.495972,315
840.614136,333
840.732239,314
840.850342,336
840.968445,310
841.086548,340
841.204651,324
841.322754,329
841.440918,315
841.55896,330
841.677002,319
841.795166,337
841.913208,326
842.031311,336
842.149353,307
842.267456,341
842.385498,341
842.503601,319
842.621643,320
842.739746,331
842.857788,333
842.97583,327
843.093933,320
843.211975,326
843.330017,318
843.44812,334
843.566101,316
843.684204,331
843.802246,329
843.920227,333
844.038269,331
844.156311,322
844.274292,312
844.392395,327
844.510376,318
844.628357,332
844.74646,314
844.864441,324
844.982422,325
845.100403,321
845.218384,320
845.336426,339
845.454468,332
845.572449,330
845.69043,320
845.808411,311
845.926453,323
846.044373,333
846.162354,305
846.280396,328
846.398315,326
846.516296,321
846.634216,309
846.752197,325
846.870178,315
846.988098,331
847.106079,329
847.22406,324
847.34198,335
847.4599,328
847.577881,321
847.695801,330
847.813782,336
847.931641,329
848.049561,317
848.167603,325
848.285461,329
848.403381,328
848.521362,318
848.639221,327
848.75708,315
848.875,323
848.99292,342
849.110901,324
849.22876,316
849.34668,336
849.464539,322
849.582458,332
849.700317,331
849.818176,331
849.936096,315
850.053955,322
850.171875,318
850.289673,316
850.407593,321
850.525452,321
850.643311,315
850.761169,327
850.878967,332
850.996887,307
851.114746,322
851.232544,319
851.350403,319
851.468262,322
851.58606,318
851.703979,329
851.821777,311
851.939636,325
852.057434,318
852.175232,329
852.293091,316
852.410889,319
852.528687,328
852.646545,322
852.764343,334
852.88208,331
852.999939,315
853.117676,336
853.235535,321
853.353271,313
853.471069,324
853.588928,318
853.706604,307
853.824402,330
853.9422,316
854.059998,342
854.177734,312
854.295532,318
854.413269,308
854.531006,346
854.648804,314
854.766541,324
854.884277,318
855.002014,323
855.119751,307
855.237549,339
855.355225,315
855.473022,313
855.590698,322
855.708435,322
855.826172,334
855.943848,330
856.061646,319
856.179321,337
856.296997,311
856.414795,327
856.53241,316
856.650085,321
856.767822,325
856.885559,328
857.003174,323
857.120911,333
857.238586,330
857.356201,336
857.473938,312
857.591614,332
857.709351,324
857.826965,325
857.944641,329
858.062317,336
858.179993,323
858.297668,321
858.415283,318
858.532959,324
858.650574,315
858.768188,331
858.885803,322
859.003479,331
859.121094,322
859.23877,332
859.356384,323
859.473999,327
859.591675,322
859.709229,318
859.826843,329
859.944458,336
860.062012,312
860.179626,329
860.297302,314
860.414856,321
860.532471,316
860.650024,321
860.767639,327
860.885193,324
861.002808,336
861.120361,321
861.237976,329
861.35553,327
861.473022,310
861.590698,322
861.708191,327
861.825745,322
861.943298,335
862.060852,320
862.178406,314
862.295959,327
862.413513,315
862.531006,327
862.64856,326
862.766113,315
862.883667,329
863.00116,317
863.118713,330
863.236206,320
863.353699,318
863.471252,328
863.588745,310
863.706177,335
863.82373,312
863.941162,325
864.058716,326
864.176208,324
864.29364,309
864.411194,320
864.528687,319
864.646118,330
864.763611,320
864.881042,327
864.998535,329
865.116028,320
865.233459,321
865.350891,325
865.468384,317
865.585754,318
865.703308,323
865.820679,321
865.938171,308
866.055542,327
866.173035,316
866.290466,314
866.407837,321
866.52533,326
866.6427,328
866.760071,333
866.877563,310
866.994934,337
867.112305,322
867.229736,327
867.347107,327
867.464539,330
867.58197,326
867.699341,316
867.81665,330
867.934082,332
868.051453,324
868.168823,325
868.286194,324
868.403564,312
868.520935,309
868.638306,329
868.755676,308
868.872986,318
868.990295,322
869.107727,312
869.225037,320
869.342346,325
869.459717,317
869.577026,338
869.694336,319
869.811707,317
869.929016,316
870.046326,321
870.163635,314
870.280945,334
870.398254,317
870.515564,333
870.632812,325
870.750183,333
870.867432,326
870.984741,322
871.102051,315
871.219299,332
871.336609,322
871.453918,326
871.571106,335
871.688416,329
871.805664,325
871.922852,335
872.040222,321
872.157471,334
872.274719,319
872.391968,325
872.509155,339
872.626465,320
872.743652,326
872.860962,332
872.978149,324
873.095337,323
873.212646,323
873.329834,322
873.44696,336
873.564209,325
873.681396,329
873.798645,327
873.915894,320
874.03302,333
874.150208,320
874.267456,323
874.384583,333
874.501831,317
874.618958,313
874.736145,331
874.853333,325
874.970459,314
875.087646,321
875.204834,326
875.32196,309
875.439148,307
875.556274,330
875.673401,319
875.790527,318
875.907715,319
876.024841,332
876.141968,335
876.259094,302
876.376282,326
876.493347,334
876.610474,328
876.7276,326
876.844727,317
876.961853,320
877.078918,320
877.195984,326
877.313171,330
877.430237,314
877.547302,325
877.664368,323
877.781433,326
877.898499,318
878.015625,324
878.13269,324
878.249695,337
878.366821,331
878.483887,330
878.600952,321
878.717957,323
878.834961,319
878.952087,327
879.069092,321
879.186157,322
879.303162,325
879.420227,318
879.537231,320
879.654236,319
879.77124,317
879.888306,314
880.005249,316
880.122314,325
880.239319,323
880.356323,320
880.473328,306
880.590271,327
880.707275,329
880.824341,316
880.941284,327
881.058228,328
881.175232,325
881.292236,312
881.40918,310
881.526123,331
881.643066,304
881.760071,331
881.877014,314
881.993958,323
882.11084,310
882.227783,320
882.344727,318
882.46167,341
882.578613,313
882.695618,324
882.812439,325
882.929382,319
883.046326,315
883.163208,318
883.280151,316
883.397034,322
883.513916,310
883.630798,321
883.747742,319
883.864563,329
883.981506,318
884.098389,327
884.21521,322
884.332153,327
884.448975,322
884.565796,336
884.682678,318
884.7995,325
884.916443,324
885.033264,340
885.150085,332
885.266968,343
885.383789,325
885.500671,342
885.617493,333
885.734314,329
885.851196,315
885.967896,333
886.084717,333
886.201599,344
886.318359,327
886.435181,331
886.552002,334
886.668762,326
886.785645,332
886.902344,326
887.019165,322
887.135925,344
887.252747,318
887.369446,340
887.486267,327
887.603027,330
887.719788,344
887.836548,333
887.953247,319
888.070068,333
888.186829,318
888.303528,324
888.420288,328
888.536987,323
888.653687,329
888.770447,323
888.887146,317
889.003967,321
889.120667,318
889.237305,306
889.354065,321
889.470703,326
889.587463,323
889.704163,315
889.820862,329
889.937561,323
890.054199,319
890.170837,314
890.287598,314
890.404236,321
890.520874,328
890.637634,313
890.754211,315
890.87085,318
890.987549,315
891.104187,313
891.220886,315
891.337463,312
891.454102,313
891.57074,325
891.687378,306
891.804077,329
891.920654,331
892.037231,318
892.15387,319
892.270447,318
892.387085,309
892.503723,318
892.6203,329
892.736877,318
892.853516,306
892.970032,335
893.08667,314
893.203186,318
893.319763,325
893.43634,308
893.552917,333
893.669556,336
893.786011,311
893.902588,317
894.019165,302
894.135681,320
894.252197,326
894.368835,316
894.485291,308
894.601868,328
894.718384,320
894.8349,316
894.951355,319
895.067932,330
895.184448,310
895.300964,327
895.417419,323
895.533936,310
895.650452,320
895.766907,327
895.883423,324
895.999878,330
896.116333,308
896.232849,326
896.349304,307
896.465759,314
896.582214,316
896.698669,311
896.815125,303
896.931641,327
897.048035,311
897.164551,326
897.280884,309
897.397339,337
897.513794,319
897.630249,333
897.746582,324
897.863098,325
897.979431,302
898.095886,322
898.212341,325
898.328674,318
898.445129,318
898.561462,327
898.677795,309
898.794312,315
898.910645,316
899.026978,312
899.143433,310
899.259766,318
899.37616,335
899.492493,309
899.608765,321
899.725159,319
899.841553,317
899.957947,311
900.07428,308
900.190552,320
900.306946,313
900.423157,319
900.53949,328
900.655884,316
900.772156,313
900.888489,312
901.004822,316
901.121033,327
901.237366,319
901.353699,327
901.46991,320
901.586304,324
901.702515,305
901.818787,315
901.93512,331
902.051331,316
902.167603,321
902.283875,312
902.400085,322
902.516418,326
902.632629,315
902.74884,325
902.865112,328
902.981384,337
903.097595,337
903.213867,319
903.330017,327
903.446289,317
903.5625,313
903.67865,331
903.794922,325
903.911072,331
904.027344,318
904.143494,315
904.259705,302
904.375916,313
904.492065,325
904.608215,324
904.724426,315
904.840576,323
904.956726,311
905.072876,311
905.189087,319
905.305176,322
905.421387,318
905.537537,309
905.653687,313
905.769775,328
905.885925,330
906.002014,333
906.118164,328
906.234314,321
906.350403,317
906.466492,323
906.582642,302
906.69873,319
906.814758,328
906.930908,314
907.046936,318
907.163086,309
907.279175,313
907.395264,314
907.511353,324
907.62738,326
907.743408,322
907.859497,323
907.975525,313
908.091553,322
908.207703,305
908.32373,324
908.439758,320
908.555786,310
908.671814,322
908.787842,321
908.90387,320
909.019775,307
909.135864,320
909.251892,325
909.367859,321
909.483826,327
909.599854,310
909.715881,317
909.831848,309
909.947815,324
910.063782,305
910.179749,330
910.295776,297
910.411743,322
910.527649,311
910.643616,319
910.759583,330
910.875488,318
910.991455,304
911.107361,315
911.223267,313
911.339294,327
911.4552,320
911.571106,339
911.687073,308
911.802979,325
911.918823,318
912.034729,318
912.150635,324
912.266602,330
912.382446,311
912.498352,318
912.614197,303
912.730103,311
912.846008,314
792.44574,360
792.56488,382
792.68396,440
792.80304,421
792.92218,364
793.041199,353
793.160339,358
793.279419,368
793.398499,374
793.517578,343
793.636658,342
793.755737,351
793.874817,371
793.993896,378
794.112976,358
794.232056,340
794.351074,373
794.470215,349
794.589233,345
794.708313,353
794.827393,350
794.946411,347
795.065552,343
795.18457,340
795.303589,351
795.422668,347
795.541687,364
795.660767,344
795.779846,355
795.898865,348
796.017883,348
796.136963,346
796.255981,362
796.375061,350
796.49408,348
796.613037,351
796.732117,343
796.851135,358
796.970154,347
797.089233,328
797.208191,337
797.327271,340
797.446228,354
797.565186,341
797.684265,335
797.803223,348
797.922241,330
798.04126,346
798.160278,340
798.279297,329
798.398315,336
798.517273,345
798.636292,340
798.75531,350
798.874268,329
798.993286,315
799.112244,334
799.231323,337
799.350281,337
799.469238,345
799.588257,343
799.707153,333
799.826111,339
799.945129,330
800.064087,341
800.183044,332
800.302063,328
800.421021,322
800.539978,341
800.658936,342
800.777893,333
800.896912,330
801.015747,333
801.134705,323
801.253723,329
801.37262,346
801.491638,329
801.610535,318
801.729492,325
801.84845,340
801.967407,343
802.086243,319
802.205261,331
802.324158,339
802.443115,345
802.562073,327
802.680969,325
802.799927,337
802.918762,339
803.037659,327
803.156677,325
803.275574,330
803.39447,334
803.513428,323
803.632263,337
803.751221,327
803.870117,346
803.989014,331
804.107971,332
804.226746,321
804.345642,327
804.4646,319
804.583496,331
804.702393,338
804.821228,352
804.940125,321
805.059021,325
805.177917,328
805.296814,334
805.415649,312
805.534546,340
805.653442,326
805.772278,320
805.891113,327
806.01001,325
806.128906,334
806.247742,331
806.366577,309
806.485413,333
806.604309,330
806.723145,322
806.84198,337
806.960876,324
807.079712,320
807.198486,332
807.317383,332
807.436218,332
807.554993,341
807.673889,319
807.792725,335
807.91156,335
808.030396,316
808.14917,335
808.268005,314
808.386841,338
808.505676,321
808.624451,332
808.743286,324
808.862122,325
808.980896,331
809.099731,328
809.218506,328
809.337341,321
809.456116,324
809.57489,322
809.693726,324
809.8125,332
809.931274,325
810.050049,328
810.168884,314
810.287659,331
810.406372,340
810.525269,323
810.643982,342
810.762756,336
810.881531,332
811.000305,346
811.11908,332
811.237854,332
811.356567,326
811.475403,336
811.594116,334
811.71283,337
811.831604,331
811.950378,333
812.069153,334
812.187927,323
812.30658,322
812.425415,335
812.544128,334
812.662781,341
812.781616,318
812.900269,336
813.019043,327
813.137756,322
813.256531,328
813.375244,323
813.493896,320
813.612671,326
813.731384,327
813.850037,324
813.96875,325
814.087524,323
814.206238,338
814.324951,327
814.443604,327
814.562256,328
814.68103,319
814.799683,332
814.918335,315
815.037109,330
815.155762,328
815.274475,343
815.393188,314
815.511841,336
815.630554,321
815.749146,330
815.867859,324
815.986572,327
816.105164,324
816.223877,321
816.342529,332
816.461182,324
816.579895,321
816.698486,332
816.817139,322
816.935791,335
817.054504,315
817.173096,335
817.291748,317
817.4104,328
817.529053,322
817.647644,334
817.766235,318
817.884949,341
818.00354,321
818.122192,324
818.240845,301
818.359436,319
818.478088,330
818.59668,330
818.715271,335
818.833923,329
818.952515,332
819.071106,321
819.189758,313
819.30835,324
819.426941,312
819.545532,334
819.664124,318
819.782715,317
819.901306,316
820.019897,346
820.138489,327
820.25708,321
820.375671,323
820.494202,320
820.612732,327
820.731384,326
820.849915,343
820.968506,320
821.087097,323
821.205627,329
821.324158,324
821.442749,332
821.561279,321
821.679871,327
821.798401,322
821.916931,324
822.035461,320
822.154053,326
822.272583,309
822.391174,316
822.509583,333
822.628174,330
822.746704,310
822.865234,321
822.983765,320
823.102295,328
823.220825,331
823.339294,308
823.457825,325
823.576355,322
823.694824,311
823.813354,345
823.931885,316
824.050354,331
824.168884,311
824.287354,326
824.405823,333
824.524353,330
824.642822,327
824.761353,342
824.879822,315
824.998291,321
825.116699,326
825.235291,317
825.353699,324
825.472168,313
825.590637,317
825.709106,325
825.827576,322
825.946045,342
826.064453,319
826.182983,327
826.301392,320
826.4198,322
826.53833,313
826.656738,331
826.775208,331
826.893677,325
827.012024,322
827.130493,325
827.248962,323
827.36731,316
827.485779,310
827.604248,318
827.722595,315
827.841064,321
827.959412,316
828.077942,327
828.196289,317
828.314636,328
828.433105,307
828.551514,325
828.669861,334
828.78833,309
828.906677,327
829.025085,319
829.143433,325
829.261841,330
829.38031,319
829.498657,334
829.617004,314
829.735413,317
829.85376,319
829.972107,310
830.090515,328
830.208862,322
830.327209,318
830.445557,317
830.563904,315
830.682312,308
830.800659,309
830.919006,321
831.037354,324
831.155701,318
831.274048,316
831.392395,323
831.51062,328
831.629028,318
831.747314,322
831.865662,312
831.984009,334
832.102356,333
832.220642,316
832.338928,332
832.457275,325
832.575623,311
832.693909,325
832.812134,335
832.930481,325
833.048828,316
833.167114,327
833.2854,317
833.403687,306
833.521973,321
833.640259,317
833.758545,324
833.876831,316
833.995056,315
834.113281,320
834.231628,328
834.349915,319
834.468201,313
834.586426,322
834.704651,324
834.822998,309
834.941162,326
835.059448,336
835.177673,338
835.295959,316
835.414246,319
835.53241,316
835.650635,320
835.768921,314
835.887146,317
836.005371,315
836.123596,337
836.241821,329
836.360046,312
836.478271,311
836.596497,315
836.714722,317
836.832886,318
836.95105,300
837.069336,325
837.1875,325
837.305725,325
837.423889,324
837.542053,318
837.660339,319
837.778503,317
837.896667,324
838.014832,311
838.132996,320
838.25116,326
838.369385,317
838.487488,323
838.605713,326
838.723877,313
838.84198,312
838.960205,313
839.078308,327
839.196472,332
839.314636,315
839.4328,325
839.550964,321
839.669067,332
839.787231,317
839.905396,321
840.023499,318
840.141602,316
840.259766,307
840.377869,318
840.495972,307
840.614136,325
840.732239,321
840.850342,331
840.968445,327
841.086548,337
841.204651,323
841.322754,312
841.440918,326
841.55896,324
841.677002,311
841.795166,330
841.913208,310
842.031311,330
842.149353,331
842.267456,328
842.385498,318
842.503601,331
842.621643,337
842.739746,328
842.857788,318
842.97583,327
843.093933,320
843.211975,333
843.330017,333
843.44812,323
843.566101,329
843.684204,330
843.802246,324
843.920227,336
844.038269,330
844.156311,320
844.274292,322
844.392395,330
844.510376,329
844.628357,321
844.74646,326
844.864441,311
844.982422,322
845.100403,328
845.218384,316
845.336426,328
845.454468,318
845.572449,330
845.69043,321
845.808411,315
845.926453,320
846.044373,324
846.162354,318
846.280396,329
846.398315,322
846.516296,328
846.634216,325
846.752197,325
846.870178,336
846.988098,316
847.106079,340
847.22406,325
847.34198,322
847.4599,325
847.577881,301
847.695801,314
847.813782,322
847.931641,340
848.049561,331
848.167603,317
848.285461,329
848.403381,329
848.521362,331
848.639221,329
848.75708,312
848.875,312
848.99292,321
849.110901,327
849.22876,324
849.34668,318
849.464539,317
849.582458,332
849.700317,317
849.818176,335
849.936096,314
850.053955,334
850.171875,314
850.289673,332
850.407593,327
850.525452,322
850.643311,319
850.761169,329
850.878967,321
850.996887,331
851.114746,311
851.232544,333
851.350403,319
851.468262,329
851.58606,329
851.703979,319
851.821777,323
851.939636,317
852.057434,315
852.175232,323
852.293091,329
852.410889,335
852.528687,311
852.646545,329
852.764343,325
852.88208,329
852.999939,328
853.117676,332
853.235535,331
853.353271,327
853.471069,317
853.588928,334
853.706604,318
853.824402,328
853.9422,307
854.059998,326
854.177734,313
854.295532,332
854.413269,308
854.531006,328
854.648804,313
854.766541,325
854.884277,315
855.002014,329
855.119751,304
855.237549,317
855.355225,327
855.473022,334
855.590698,325
855.708435,325
855.826172,319
855.943848,319
856.061646,309
856.179321,336
856.296997,317
856.414795,332
856.53241,316
856.650085,313
856.767822,322
856.885559,327
857.003174,311
857.120911,330
857.238586,322
857.356201,330
857.473938,344
857.591614,327
857.709351,325
857.826965,331
857.944641,330
858.062317,337
858.179993,328
858.297668,326
858.415283,314
858.532959,317
858.650574,317
858.768188,331
858.885803,324
859.003479,319
859.121094,321
859.23877,322
859.356384,315
859.473999,344
859.591675,309
859.709229,327
859.826843,315
859.944458,325
860.062012,321
860.179626,323
860.297302,313
860.414856,315
860.532471,316
860.650024,327
860.767639,319
860.885193,315
861.002808,326
861.120361,319
861.237976,330
861.35553,314
861.473022,321
861.590698,327
861.708191,317
861.825745,329
861.943298,312
862.060852,331
862.178406,325
862.295959,314
862.413513,316
862.531006,325
862.64856,327
862.766113,310
862.883667,317
863.00116,316
863.118713,315
863.236206,329
863.353699,316
863.471252,302
863.588745,317
863.706177,316
863.82373,331
863.941162,324
864.058716,329
864.176208,325
864.29364,320
864.411194,330
864.528687,318
864.646118,324
864.763611,339
864.881042,334
864.998535,322
865.116028,321
865.233459,317
865.350891,314
865.468384,317
865.585754,321
865.703308,328
865.820679,323
865.938171,330
866.055542,318
866.173035,315
866.290466,320
866.407837,300
866.52533,309
866.6427,305
866.760071,330
866.877563,302
866.994934,331
867.112305,331
867.229736,314
867.347107,321
867.464539,324
867.58197,316
867.699341,332
867.81665,325
867.934082,320
868.051453,315
868.168823,319
868.286194,329
868.403564,323
868.520935,313
868.638306,321
868.755676,324
868.872986,330
868.990295,318
869.107727,331
869.225037,319
869.342346,326
869.459717,332
869.577026,323
869.694336,328
869.811707,333
869.929016,312
870.046326,334
870.163635,320
870.280945,319
870.398254,319
870.515564,330
870.632812,329
870.750183,318
870.867432,332
870.984741,325
871.102051,321
871.219299,318
871.336609,319
871.453918,324
871.571106,325
871.688416,323
871.805664,339
871.922852,325
872.040222,321
872.157471,332
872.274719,318
872.391968,336
872.509155,319
872.626465,322
872.743652,335
872.860962,308
872.978149,324
873.095337,332
873.212646,337
873.329834,327
873.44696,326
873.564209,341
873.681396,313
873.798645,333
873.915894,304
874.03302,310
874.150208,309
874.267456,316
874.384583,331
874.501831,323
874.618958,343
874.736145,327
874.853333,329
874.970459,337
875.087646,320
875.204834,332
875.32196,343
875.439148,334
875.556274,330
875.673401,339
875.790527,320
875.907715,322
876.024841,322
876.141968,330
876.259094,312
876.376282,312
876.493347,323
876.610474,325
876.7276,344
876.844727,334
876.961853,315
877.078918,324
877.195984,313
877.313171,325
877.430237,319
877.547302,321
877.664368,320
877.781433,320
877.898499,333
878.015625,324
878.13269,315
878.249695,328
878.366821,325
878.483887,330
878.600952,334
878.717957,322
878.834961,320
878.952087,326
879.069092,322
879.186157,325
879.303162,327
879.420227,315
879.537231,329
879.654236,308
879.77124,321
879.888306,319
880.005249,313
880.122314,323
880.239319,332
880.356323,328
880.473328,311
880.590271,317
880.707275,310
880.824341,318
880.941284,315
881.058228,312
881.175232,329
881.292236,325
881.40918,316
881.526123,316
881.643066,302
881.760071,323
881.877014,312
881.993958,326
882.11084,328
882.227783,326
882.344727,319
882.46167,330
882.578613,323
882.695618,329
882.812439,312
882.929382,319
883.046326,320
883.163208,334
883.280151,319
883.397034,302
883.513916,323
883.630798,329
883.747742,319
883.864563,327
883.981506,315
884.098389,331
884.21521,316
884.332153,320
884.448975,330
884.565796,320
884.682678,318
884.7995,332
884.916443,320
885.033264,324
885.150085,313
885.266968,330
885.383789,317
885.500671,336
885.617493,345
885.734314,325
885.851196,331
885.967896,335
886.084717,328
886.201599,321
886.318359,320
886.435181,328
886.552002,320
886.668762,336
886.785645,329
886.902344,333
887.019165,312
887.135925,330
887.252747,314
887.369446,345
887.486267,311
887.603027,334
887.719788,324
887.836548,339
887.953247,325
888.070068,329
888.186829,325
888.303528,333
888.420288,323
888.536987,326
888.653687,310
888.770447,327
888.887146,313
889.003967,336
889.120667,328
889.237305,312
889.354065,312
889.470703,322
889.587463,305
889.704163,327
889.820862,315
889.937561,315
890.054199,300
890.170837,335
890.287598,320
890.404236,328
890.520874,317
890.637634,327
890.754211,317
890.87085,327
890.987549,308
891.104187,314
891.220886,316
891.337463,312
891.454102,319
891.57074,320
891.687378,320
891.804077,316
891.920654,311
892.037231,325
892.15387,325
892.270447,320
892.387085,317
892.503723,314
892.6203,317
892.736877,316
892.853516,320
892.970032,331
893.08667,312
893.203186,311
893.319763,307
893.43634,328
893.552917,314
893.669556,323
893.786011,318
893.902588,321
894.019165,320
894.135681,322
894.252197,321
894.368835,325
894.485291,304
894.601868,323
894.718384,309
894.8349,321
894.951355,318
895.067932,326
895.184448,314
895.300964,323
895.417419,322
895.533936,323
895.650452,316
895.766907,324
895.883423,311
895.999878,314
896.116333,317
896.232849,312
896.349304,315
896.465759,318
896.582214,322
896.698669,317
896.815125,324
896.931641,324
897.048035,322
897.164551,321
897.280884,309
897.397339,315
897.513794,318
897.630249,317
897.746582,319
897.863098,328
897.979431,318
898.095886,336
898.212341,316
898.328674,330
898.445129,319
898.561462,317
898.677795,312
898.794312,317
898.910645,318
899.026978,304
899.143433,310
899.259766,330
899.37616,312
899.492493,317
899.608765,319
899.725159,323
899.841553,302
899.957947,322
900.07428,318
900.190552,303
900.306946,316
900.423157,320
900.53949,316
900.655884,334
900.772156,316
900.888489,319
901.004822,319
901.121033,308
901.237366,319
901.353699,330
901.46991,304
901.586304,315
901.702515,310
901.818787,325
901.93512,326
902.051331,322
902.167603,333
902.283875,322
902.400085,312
902.516418,334
902.632629,321
902.74884,326
902.865112,321
902.981384,335
903.097595,316
903.213867,318
903.330017,322
903.446289,320
903.5625,319
903.67865,335
903.794922,314
903.911072,334
904.027344,320
904.143494,326
904.259705,322
904.375916,314
904.492065,327
904.608215,322
904.724426,316
904.840576,307
904.956726,327
905.072876,329
905.189087,324
905.305176,325
905.421387,310
905.537537,337
905.653687,329
905.769775,324
905.885925,326
906.002014,323
906.118164,304
906.234314,317
906.350403,312
906.466492,333
906.582642,318
906.69873,320
906.814758,322
906.930908,311
907.046936,321
907.163086,332
907.279175,332
907.395264,328
907.511353,309
907.62738,307
907.743408,302
907.859497,318
907.975525,323
908.091553,310
908.207703,309
908.32373,315
908.439758,319
908.555786,322
908.671814,320
908.787842,321
908.90387,314
909.019775,320
909.135864,314
909.251892,320
909.367859,317
909.483826,323
909.599854,319
909.715881,319
909.831848,303
909.947815,323
910.063782,313
910.179749,327
910.295776,321
910.411743,312
910.527649,320
910.643616,322
910.759583,313
910.875488,306
910.991455,318
911.107361,309
911.223267,324
911.339294,317
911.4552,318
911.571106,324
911.687073,310
911.802979,334
911.918823,301
912.034729,325
912.150635,318
912.266602,313
912.382446,307
912.498352,319
912.614197,309
912.730103,323
912.846008,306
