792.44574,324
792.56488,354
792.68396,405
792.80304,395
792.92218,345
793.041199,331
793.160339,347
793.279419,344
793.398499,330
793.517578,324
793.636658,339
793.755737,338
793.874817,355
793.993896,357
794.112976,334
794.232056,340
794.351074,338
794.470215,344
794.589233,344
794.708313,338
794.827393,331
794.946411,333
795.065552,342
795.18457,351
795.303589,333
795.422668,342
795.541687,342
795.660767,337
795.779846,330
795.898865,344
796.017883,335
796.136963,333
796.255981,350
796.375061,344
796.49408,324
796.613037,329
796.732117,341
796.851135,335
796.970154,342
797.089233,313
797.208191,326
797.327271,334
797.446228,339
797.565186,332
797.684265,330
797.803223,337
797.922241,332
798.04126,338
798.160278,329
798.279297,339
798.398315,331
798.517273,329
798.636292,334
798.75531,337
798.874268,342
798.993286,329
799.112244,335
799.231323,329
799.350281,330
799.469238,339
799.588257,327
799.707153,330
799.826111,335
799.945129,341
800.064087,330
800.183044,337
800.302063,324
800.421021,346
800.539978,316
800.658936,341
800.777893,338
800.896912,338
801.015747,325
801.134705,333
801.253723,336
801.37262,347
801.491638,325
801.610535,322
801.729492,345
801.84845,341
801.967407,340
802.086243,335
802.205261,327
802.324158,333
802.443115,329
802.562073,332
802.680969,327
802.799927,330
802.918762,344
803.037659,329
803.156677,335
803.275574,318
803.39447,333
803.513428,324
803.632263,328
803.751221,330
803.870117,326
803.989014,330
804.107971,344
804.226746,334
804.345642,320
804.4646,323
804.583496,336
804.702393,324
804.821228,329
804.940125,329
805.059021,329
805.177917,325
805.296814,327
805.415649,332
805.534546,330
805.653442,337
805.772278,344
805.891113,325
806.01001,329
806.128906,327
806.247742,329
806.366577,334
806.485413,329
806.604309,336
806.723145,325
806.84198,335
806.960876,335
807.079712,334
807.198486,343
807.317383,337
807.436218,334
807.554993,325
807.673889,340
807.792725,341
807.91156,336
808.030396,325
808.14917,343
808.268005,335
808.386841,339
808.505676,338
808.624451,336
808.743286,344
808.862122,350
808.980896,334
809.099731,338
809.218506,337
809.337341,340
809.456116,323
809.57489,326
809.693726,339
809.8125,319
809.931274,335
810.050049,325
810.168884,324
810.287659,323
810.406372,346
810.525269,335
810.643982,345
810.762756,328
810.881531,340
811.000305,331
811.11908,336
811.237854,338
811.356567,327
811.475403,325
811.594116,337
811.71283,342
811.831604,342
811.950378,340
812.069153,326
812.187927,333
812.30658,331
812.425415,325
812.544128,324
812.662781,341
812.781616,334
812.900269,326
813.019043,343
813.137756,316
813.256531,330
813.375244,341
813.493896,329
813.612671,346
813.731384,331
813.850037,329
813.96875,328
814.087524,334
814.206238,323
814.324951,322
814.443604,332
814.562256,343
814.68103,330
814.799683,327
814.918335,338
815.037109,338
815.155762,324
815.274475,320
815.393188,330
815.511841,329
815.630554,335
815.749146,342
815.867859,326
815.986572,341
816.105164,324
816.223877,320
816.342529,337
816.461182,330
816.579895,340
816.698486,344
816.817139,333
816.935791,330
817.054504,336
817.173096,324
817.291748,340
817.4104,325
817.529053,329
817.647644,327
817.766235,332
817.884949,337
818.00354,325
818.122192,333
818.240845,339
818.359436,328
818.478088,318
818.59668,336
818.715271,323
818.833923,323
818.952515,317
819.071106,315
819.189758,326
819.30835,328
819.426941,315
819.545532,320
819.664124,314
819.782715,320
819.901306,323
820.019897,325
820.138489,321
820.25708,318
820.375671,330
820.494202,324
820.612732,326
820.731384,326
820.849915,318
820.968506,324
821.087097,329
821.205627,321
821.324158,318
821.442749,317
821.561279,321
821.679871,320
821.798401,315
821.916931,321
822.035461,332
822.154053,315
822.272583,321
822.391174,309
822.509583,317
822.628174,321
822.746704,326
822.865234,325
822.983765,312
823.102295,330
823.220825,317
823.339294,317
823.457825,321
823.576355,317
823.694824,325
823.813354,325
823.931885,323
824.050354,308
824.168884,327
824.287354,330
824.405823,332
824.524353,321
824.642822,320
824.761353,327
824.879822,330
824.998291,335
825.116699,317
825.235291,324
825.353699,329
825.472168,323
825.590637,316
825.709106,318
825.827576,320
825.946045,319
826.064453,326
826.182983,319
826.301392,314
826.4198,316
826.53833,324
826.656738,306
826.775208,322
826.893677,320
827.012024,331
827.130493,311
827.248962,304
827.36731,324
827.485779,301
827.604248,326
827.722595,307
827.841064,329
827.959412,311
828.077942,322
828.196289,314
828.314636,310
828.433105,309
828.551514,323
828.669861,318
828.78833,321
828.906677,314
829.025085,328
829.143433,309
829.261841,320
829.38031,333
829.498657,317
829.617004,327
829.735413,311
829.85376,327
829.972107,313
830.090515,316
830.208862,314
830.327209,320
830.445557,318
830.563904,314
830.682312,305
830.800659,309
830.919006,329
831.037354,320
831.155701,323
831.274048,327
831.392395,332
831.51062,315
831.629028,317
831.747314,335
831.865662,317
831.984009,323
832.102356,309
832.220642,305
832.338928,326
832.457275,314
832.575623,321
832.693909,317
832.812134,313
832.930481,320
833.048828,324
833.167114,316
833.2854,317
833.403687,315
833.521973,314
833.640259,318
833.758545,323
833.876831,322
833.995056,316
834.113281,310
834.231628,316
834.349915,320
834.468201,322
834.586426,316
834.704651,311
834.822998,312
834.941162,312
835.059448,327
835.177673,315
835.295959,319
835.414246,308
835.53241,314
835.650635,330
835.768921,318
835.887146,323
836.005371,318
836.123596,324
836.241821,323
836.360046,318
836.478271,321
836.596497,318
836.714722,330
836.832886,313
836.95105,326
837.069336,310
837.1875,330
837.305725,312
837.423889,317
837.542053,318
837.660339,317
837.778503,318
837.896667,309
838.014832,327
838.132996,314
838.25116,321
838.369385,329
838.487488,328
838.605713,318
838.723877,317
838.84198,328
838.960205,307
839.078308,320
839.196472,318
839.314636,317
839.4328,319
839.550964,327
839.669067,321
839.787231,314
839.905396,317
840.023499,326
840.141602,324
840.259766,329
840.377869,314
840.495972,323
840.614136,319
840.732239,319
840.850342,321
840.968445,309
841.086548,318
841.204651,311
841.322754,317
841.440918,329
841.55896,318
841.677002,333
841.795166,307
841.913208,311
842.031311,328
842.149353,325
842.267456,323
842.385498,329
842.503601,325
842.621643,328
842.739746,340
842.857788,330
842.97583,323
843.093933,314
843.211975,332
843.330017,318
843.44812,315
843.566101,313
843.684204,325
843.802246,333
843.920227,314
844.038269,321
844.156311,321
844.274292,323
844.392395,316
844.510376,316
844.628357,318
844.74646,319
844.864441,325
844.982422,321
845.100403,313
845.218384,318
845.336426,323
845.454468,338
845.572449,320
845.69043,317
845.808411,318
845.926453,320
846.044373,314
846.162354,326
846.280396,301
846.398315,320
846.516296,321
846.634216,315
846.752197,321
846.870178,332
846.988098,312
847.106079,333
847.22406,314
847.34198,324
847.4599,316
847.577881,328
847.695801,314
847.813782,315
847.931641,307
848.049561,322
848.167603,321
848.285461,322
848.403381,317
848.521362,320
848.639221,323
848.75708,328
848.875,308
848.99292,306
849.110901,318
849.22876,326
849.34668,319
849.464539,334
849.582458,314
849.700317,312
849.818176,319
849.936096,308
850.053955,323
850.171875,325
850.289673,317
850.407593,323
850.525452,313
850.643311,325
850.761169,322
850.878967,324
850.996887,313
851.114746,308
851.232544,314
851.350403,318
851.468262,304
851.58606,307
851.703979,318
851.821777,319
851.939636,309
852.057434,325
852.175232,316
852.293091,314
852.410889,330
852.528687,318
852.646545,322
852.764343,328
852.88208,332
852.999939,305
853.117676,317
853.235535,329
853.353271,314
853.471069,326
853.588928,322
853.706604,324
853.824402,324
853.9422,332
854.059998,325
854.177734,317
854.295532,325
854.413269,328
854.531006,317
854.648804,322
854.766541,323
854.884277,329
855.002014,328
855.119751,309
855.237549,324
855.355225,315
855.473022,320
855.590698,328
855.708435,327
855.826172,323
855.943848,326
856.061646,307
856.179321,334
856.296997,317
856.414795,313
856.53241,324
856.650085,312
856.767822,333
856.885559,318
857.003174,320
857.120911,321
857.238586,321
857.356201,317
857.473938,324
857.591614,308
857.709351,331
857.826965,323
857.944641,320
858.062317,318
858.179993,328
858.297668,305
858.415283,326
858.532959,328
858.650574,317
858.768188,306
858.885803,311
859.003479,324
859.121094,329
859.23877,309
859.356384,315
859.473999,329
859.591675,308
859.709229,324
859.826843,317
859.944458,314
860.062012,332
860.179626,305
860.297302,333
860.414856,317
860.532471,304
860.650024,328
860.767639,321
860.885193,319
861.002808,320
861.120361,321
861.237976,313
861.35553,312
861.473022,317
861.590698,308
861.708191,309
861.825745,305
861.943298,306
862.060852,319
862.178406,318
862.295959,315
862.413513,309
862.531006,311
862.64856,319
862.766113,316
862.883667,302
863.00116,320
863.118713,320
863.236206,321
863.353699,312
863.471252,311
863.588745,315
863.706177,311
863.82373,317
863.941162,309
864.058716,307
864.176208,326
864.29364,328
864.411194,331
864.528687,312
864.646118,320
864.763611,323
864.881042,322
864.998535,299
865.116028,320
865.233459,317
865.350891,320
865.468384,316
865.585754,320
865.703308,318
865.820679,319
865.938171,324
866.055542,311
866.173035,328
866.290466,320
866.407837,309
866.52533,323
866.6427,319
866.760071,322
866.877563,328
866.994934,314
867.112305,305
867.229736,309
867.347107,312
867.464539,329
867.58197,308
867.699341,312
867.81665,321
867.934082,326
868.051453,326
868.168823,308
868.286194,320
868.403564,316
868.520935,313
868.638306,317
868.755676,322
868.872986,338
868.990295,324
869.107727,331
869.225037,323
869.342346,317
869.459717,318
869.577026,318
869.694336,303
869.811707,318
869.929016,313
870.046326,326
870.163635,321
870.280945,317
870.398254,324
870.515564,323
870.632812,331
870.750183,312
870.867432,325
870.984741,321
871.102051,326
871.219299,323
871.336609,338
871.453918,315
871.571106,318
871.688416,315
871.805664,323
871.922852,322
872.040222,321
872.157471,304
872.274719,310
872.391968,314
872.509155,323
872.626465,319
872.743652,321
872.860962,320
872.978149,326
873.095337,314
873.212646,323
873.329834,315
873.44696,324
873.564209,331
873.681396,319
873.798645,310
873.915894,322
874.03302,316
874.150208,319
874.267456,316
874.384583,327
874.501831,314
874.618958,324
874.736145,320
874.853333,315
874.970459,317
875.087646,318
875.204834,322
875.32196,316
875.439148,310
875.556274,319
875.673401,314
875.790527,307
875.907715,301
876.024841,315
876.141968,326
876.259094,330
876.376282,312
876.493347,308
876.610474,300
876.7276,319
876.844727,315
876.961853,324
877.078918,302
877.195984,310
877.313171,321
877.430237,331
877.547302,302
877.664368,307
877.781433,310
877.898499,319
878.015625,324
878.13269,326
878.249695,304
878.366821,312
878.483887,312
878.600952,319
878.717957,324
878.834961,327
878.952087,303
879.069092,328
879.186157,324
879.303162,317
879.420227,321
879.537231,306
879.654236,316
879.77124,320
879.888306,322
880.005249,316
880.122314,298
880.239319,315
880.356323,317
880.473328,340
880.590271,320
880.707275,326
880.824341,308
880.941284,320
881.058228,300
881.175232,312
881.292236,317
881.40918,318
881.526123,328
881.643066,317
881.760071,319
881.877014,315
881.993958,325
882.11084,321
882.227783,318
882.344727,319
882.46167,300
882.578613,324
882.695618,328
882.812439,311
882.929382,325
883.046326,324
883.163208,317
883.280151,323
883.397034,310
883.513916,318
883.630798,323
883.747742,328
883.864563,313
883.981506,316
884.098389,322
884.21521,321
884.332153,315
884.448975,334
884.565796,314
884.682678,319
884.7995,313
884.916443,316
885.033264,314
885.150085,315
885.266968,317
885.383789,312
885.500671,314
885.617493,321
885.734314,326
885.851196,329
885.967896,321
886.084717,326
886.201599,320
886.318359,316
886.435181,332
886.552002,328
886.668762,325
886.785645,320
886.902344,309
887.019165,320
887.135925,324
887.252747,316
887.369446,310
887.486267,325
887.603027,316
887.719788,316
887.836548,323
887.953247,320
888.070068,315
888.186829,327
888.303528,308
888.420288,322
888.536987,307
888.653687,304
888.770447,318
888.887146,317
889.003967,322
889.120667,313
889.237305,306
889.354065,321
889.470703,315
889.587463,321
889.704163,323
889.820862,319
889.937561,322
890.054199,314
890.170837,316
890.287598,323
890.404236,297
890.520874,303
890.637634,314
890.754211,316
890.87085,310
890.987549,315
891.104187,310
891.220886,315
891.337463,316
891.454102,312
891.57074,326
891.687378,320
891.804077,317
891.920654,337
892.037231,324
892.15387,316
892.270447,316
892.387085,310
892.503723,312
892.6203,321
892.736877,308
892.853516,313
892.970032,319
893.08667,321
893.203186,317
893.319763,327
893.43634,312
893.552917,313
893.669556,321
893.786011,305
893.902588,304
894.019165,323
894.135681,315
894.252197,324
894.368835,327
894.485291,325
894.601868,314
894.718384,326
894.8349,324
894.951355,328
895.067932,326
895.184448,316
895.300964,319
895.417419,328
895.533936,300
895.650452,315
895.766907,324
895.883423,315
895.999878,305
896.116333,328
896.232849,303
896.349304,324
896.465759,327
896.582214,318
896.698669,327
896.815125,328
896.931641,314
897.048035,315
897.164551,313
897.280884,326
897.397339,321
897.513794,316
897.630249,313
897.746582,313
897.863098,300
897.979431,307
898.095886,317
898.212341,314
898.328674,317
898.445129,318
898.561462,310
898.677795,312
898.794312,312
898.910645,329
899.026978,319
899.143433,328
899.259766,305
899.37616,325
899.492493,307
899.608765,320
899.725159,315
899.841553,324
899.957947,311
900.07428,309
900.190552,320
900.306946,311
900.423157,318
900.53949,334
900.655884,324
900.772156,308
900.888489,312
901.004822,326
901.121033,310
901.237366,314
901.353699,324
901.46991,329
901.586304,316
901.702515,327
901.818787,307
901.93512,315
902.051331,311
902.167603,316
902.283875,314
902.400085,319
902.516418,310
902.632629,323
902.74884,317
902.865112,313
902.981384,325
903.097595,313
903.213867,333
903.330017,318
903.446289,315
903.5625,314
903.67865,307
903.794922,313
903.911072,309
904.027344,318
904.143494,332
904.259705,326
904.375916,315
904.492065,326
904.608215,310
904.724426,323
904.840576,320
904.956726,310
905.072876,301
905.189087,318
905.305176,326
905.421387,317
905.537537,307
905.653687,317
905.769775,310
905.885925,309
906.002014,335
906.118164,321
906.234314,310
906.350403,325
906.466492,325
906.582642,327
906.69873,308
906.814758,328
906.930908,321
907.046936,319
907.163086,326
907.279175,308
907.395264,314
907.511353,314
907.62738,330
907.743408,317
907.859497,306
907.975525,312
908.091553,313
908.207703,324
908.32373,323
908.439758,314
908.555786,306
908.671814,313
908.787842,310
908.90387,322
909.019775,323
909.135864,322
909.251892,316
909.367859,324
909.483826,325
909.599854,324
909.715881,304
909.831848,319
909.947815,325
910.063782,312
910.179749,320
910.295776,331
910.411743,313
910.527649,320
910.643616,323
910.759583,317
910.875488,320
910.991455,317
911.107361,324
911.223267,308
911.339294,309
911.4552,329
911.571106,309
911.687073,334
911.802979,324
911.918823,326
912.034729,309
912.150635,318
912.266602,316
912.382446,304
912.498352,311
912.614197,314
912.730103,296
912.846008,320
792.44574,316
792.56488,374
792.68396,408
792.80304,379
792.92218,350
793.041199,331
793.160339,349
793.279419,343
793.398499,341
793.517578,322
793.636658,337
793.755737,332
793.874817,370
793.993896,348
794.112976,345
794.232056,327
794.351074,340
794.470215,332
794.589233,342
794.708313,337
794.827393,336
794.946411,343
795.065552,337
795.18457,354
795.303589,341
795.422668,326
795.541687,343
795.660767,354
795.779846,316
795.898865,336
796.017883,330
796.136963,331
796.255981,334
796.375061,356
796.49408,332
796.613037,340
796.732117,325
796.851135,342
796.970154,330
797.089233,328
797.208191,346
797.327271,325
797.446228,329
797.565186,342
797.684265,326
797.803223,332
797.922241,347
798.04126,331
798.160278,323
798.279297,346
798.398315,334
798.517273,336
798.636292,324
798.75531,340
798.874268,331
798.993286,342
799.112244,327
799.231323,340
799.350281,339
799.469238,329
799.588257,327
799.707153,332
799.826111,336
799.945129,332
800.064087,329
800.183044,332
800.302063,320
800.421021,325
800.539978,319
800.658936,342
800.777893,334
800.896912,321
801.015747,339
801.134705,317
801.253723,334
801.37262,339
801.491638,341
801.610535,339
801.729492,322
801.84845,330
801.967407,343
802.086243,327
802.205261,333
802.324158,325
802.443115,329
802.562073,326
802.680969,339
802.799927,324
802.918762,338
803.037659,329
803.156677,328
803.275574,327
803.39447,330
803.513428,315
803.632263,339
803.751221,324
803.870117,318
803.989014,341
804.107971,332
804.226746,327
804.345642,319
804.4646,345
804.583496,329
804.702393,323
804.821228,337
804.940125,329
805.059021,334
805.177917,332
805.296814,334
805.415649,334
805.534546,332
805.653442,320
805.772278,334
805.891113,331
806.01001,336
806.128906,328
806.247742,327
806.366577,330
806.485413,348
806.604309,343
806.723145,322
806.84198,332
806.960876,312
807.079712,345
807.198486,318
807.317383,342
807.436218,332
807.554993,328
807.673889,341
807.792725,326
807.91156,325
808.030396,325
808.14917,334
808.268005,334
808.386841,337
808.505676,329
808.624451,342
808.743286,331
808.862122,325
808.980896,337
809.099731,312
809.218506,334
809.337341,335
809.456116,325
809.57489,337
809.693726,331
809.8125,322
809.931274,326
810.050049,343
810.168884,325
810.287659,331
810.406372,339
810.525269,339
810.643982,332
810.762756,345
810.881531,343
811.000305,339
811.11908,337
811.237854,331
811.356567,332
811.475403,316
811.594116,324
811.71283,341
811.831604,334
811.950378,324
812.069153,344
812.187927,345
812.30658,328
812.425415,324
812.544128,326
812.662781,323
812.781616,334
812.900269,325
813.019043,334
813.137756,326
813.256531,337
813.375244,342
813.493896,340
813.612671,349
813.731384,328
813.850037,336
813.96875,327
814.087524,331
814.206238,339
814.324951,340
814.443604,325
814.562256,327
814.68103,325
814.799683,337
814.918335,331
815.037109,350
815.155762,332
815.274475,344
815.393188,337
815.511841,319
815.630554,335
815.749146,313
815.867859,334
815.986572,334
816.105164,334
816.223877,341
816.342529,345
816.461182,346
816.579895,326
816.698486,324
816.817139,323
816.935791,350
817.054504,332
817.173096,339
817.291748,326
817.4104,325
817.529053,325
817.647644,329
817.766235,330
817.884949,326
818.00354,332
818.122192,323
818.240845,323
818.359436,325
818.478088,327
818.59668,329
818.715271,321
818.833923,325
818.952515,312
819.071106,334
819.189758,324
819.30835,333
819.426941,319
819.545532,330
819.664124,323
819.782715,332
819.901306,329
820.019897,328
820.138489,341
820.25708,331
820.375671,320
820.494202,331
820.612732,323
820.731384,312
820.849915,314
820.968506,325
821.087097,322
821.205627,327
821.324158,322
821.442749,333
821.561279,319
821.679871,318
821.798401,313
821.916931,320
822.035461,314
822.154053,332
822.272583,329
822.391174,308
822.509583,318
822.628174,322
822.746704,310
822.865234,310
822.983765,321
823.102295,313
823.220825,313
823.339294,315
823.457825,317
823.576355,333
823.694824,330
823.813354,334
823.931885,318
824.050354,328
824.168884,316
824.287354,315
824.405823,321
824.524353,320
824.642822,327
824.761353,322
824.879822,312
824.998291,308
825.116699,324
825.235291,312
825.353699,325
825.472168,311
825.590637,327
825.709106,318
825.827576,308
825.946045,326
826.064453,321
826.182983,313
826.301392,332
826.4198,313
826.53833,327
826.656738,313
826.775208,324
826.893677,326
827.012024,321
827.130493,327
827.248962,304
827.36731,317
827.485779,321
827.604248,319
827.722595,319
827.841064,321
827.959412,318
828.077942,319
828.196289,323
828.314636,307
828.433105,320
828.551514,316
828.669861,309
828.78833,323
828.906677,314
829.025085,320
829.143433,314
829.261841,306
829.38031,315
829.498657,318
829.617004,306
829.735413,313
829.85376,322
829.972107,313
830.090515,314
830.208862,317
830.327209,319
830.445557,304
830.563904,308
830.682312,327
830.800659,310
830.919006,324
831.037354,314
831.155701,319
831.274048,318
831.392395,317
831.51062,314
831.629028,312
831.747314,318
831.865662,316
831.984009,304
832.102356,320
832.220642,319
832.338928,304
832.457275,322
832.575623,313
832.693909,318
832.812134,310
832.930481,310
833.048828,304
833.167114,316
833.2854,332
833.403687,312
833.521973,316
833.640259,317
833.758545,312
833.876831,318
833.995056,312
834.113281,316
834.231628,322
834.349915,307
834.468201,326
834.586426,312
834.704651,317
834.822998,321
834.941162,322
835.059448,306
835.177673,321
835.295959,312
835.414246,313
835.53241,321
835.650635,313
835.768921,300
835.887146,323
836.005371,317
836.123596,326
836.241821,331
836.360046,307
836.478271,320
836.596497,315
836.714722,320
836.832886,323
836.95105,328
837.069336,321
837.1875,321
837.305725,310
837.423889,303
837.542053,321
837.660339,312
837.778503,335
837.896667,315
838.014832,326
838.132996,327
838.25116,310
838.369385,320
838.487488,327
838.605713,323
838.723877,318
838.84198,336
838.960205,326
839.078308,310
839.196472,322
839.314636,317
839.4328,323
839.550964,313
839.669067,317
839.787231,324
839.905396,314
840.023499,321
840.141602,326
840.259766,326
840.377869,334
840.495972,331
840.614136,322
840.732239,332
840.850342,313
840.968445,325
841.086548,315
841.204651,320
841.322754,323
841.440918,336
841.55896,321
841.677002,313
841.795166,321
841.913208,323
842.031311,309
842.149353,316
842.267456,322
842.385498,328
842.503601,326
842.621643,315
842.739746,324
842.857788,315
842.97583,325
843.093933,319
843.211975,311
843.330017,316
843.44812,317
843.566101,309
843.684204,326
843.802246,308
843.920227,328
844.038269,318
844.156311,320
844.274292,314
844.392395,323
844.510376,330
844.628357,323
844.74646,321
844.864441,333
844.982422,320
845.100403,313
845.218384,331
845.336426,330
845.454468,309
845.572449,317
845.69043,317
845.808411,331
845.926453,310
846.044373,307
846.162354,310
846.280396,323
846.398315,310
846.516296,322
846.634216,308
846.752197,297
846.870178,323
846.988098,316
847.106079,311
847.22406,322
847.34198,302
847.4599,292
847.577881,325
847.695801,313
847.813782,317
847.931641,309
848.049561,301
848.167603,296
848.285461,326
848.403381,320
848.521362,323
848.639221,330
848.75708,307
848.875,307
848.99292,309
849.110901,311
849.22876,323
849.34668,317
849.464539,320
849.582458,303
849.700317,327
849.818176,340
849.936096,315
850.053955,324
850.171875,309
850.289673,327
850.407593,299
850.525452,309
850.643311,319
850.761169,309
850.878967,320
850.996887,316
851.114746,321
851.232544,321
851.350403,325
851.468262,310
851.58606,321
851.703979,330
851.821777,334
851.939636,324
852.057434,319
852.175232,315
852.293091,324
852.410889,321
852.528687,317
852.646545,318
852.764343,310
852.88208,304
852.999939,318
853.117676,308
853.235535,312
853.353271,316
853.471069,301
853.588928,319
853.706604,336
853.824402,314
853.9422,313
854.059998,319
854.177734,317
854.295532,316
854.413269,321
854.531006,306
854.648804,335
854.766541,328
854.884277,322
855.002014,304
855.119751,321
855.237549,311
855.355225,324
855.473022,323
855.590698,306
855.708435,307
855.826172,312
855.943848,323
856.061646,309
856.179321,331
856.296997,308
856.414795,325
856.53241,333
856.650085,329
856.767822,316
856.885559,317
857.003174,312
857.120911,314
857.238586,323
857.356201,317
857.473938,333
857.591614,321
857.709351,319
857.826965,302
857.944641,320
858.062317,308
858.179993,320
858.297668,314
858.415283,317
858.532959,308
858.650574,319
858.768188,315
858.885803,313
859.003479,305
859.121094,316
859.23877,324
859.356384,320
859.473999,317
859.591675,316
859.709229,314
859.826843,321
859.944458,305
860.062012,322
860.179626,316
860.297302,312
860.414856,308
860.532471,324
860.650024,321
860.767639,325
860.885193,323
861.002808,313
861.120361,309
861.237976,328
861.35553,315
861.473022,332
861.590698,321
861.708191,307
861.825745,306
861.943298,316
862.060852,315
862.178406,327
862.295959,319
862.413513,325
862.531006,325
862.64856,321
862.766113,315
862.883667,310
863.00116,314
863.118713,313
863.236206,311
863.353699,328
863.471252,319
863.588745,324
863.706177,315
863.82373,321
863.941162,327
864.058716,313
864.176208,307
864.29364,321
864.411194,313
864.528687,321
864.646118,310
864.763611,334
864.881042,315
864.998535,317
865.116028,329
865.233459,301
865.350891,316
865.468384,324
865.585754,308
865.703308,318
865.820679,314
865.938171,318
866.055542,316
866.173035,307
866.290466,311
866.407837,312
866.52533,316
866.6427,313
866.760071,319
866.877563,325
866.994934,318
867.112305,317
867.229736,323
867.347107,310
867.464539,321
867.58197,316
867.699341,311
867.81665,321
867.934082,323
868.051453,323
868.168823,322
868.286194,313
868.403564,309
868.520935,317
868.638306,317
868.755676,328
868.872986,320
868.990295,328
869.107727,316
869.225037,313
869.342346,329
869.459717,319
869.577026,315
869.694336,320
869.811707,321
869.929016,317
870.046326,318
870.163635,318
870.280945,315
870.398254,314
870.515564,312
870.632812,323
870.750183,320
870.867432,312
870.984741,324
871.102051,338
871.219299,306
871.336609,310
871.453918,312
871.571106,321
871.688416,314
871.805664,325
871.922852,315
872.040222,325
872.157471,305
872.274719,316
872.391968,321
872.509155,308
872.626465,315
872.743652,325
872.860962,322
872.978149,324
873.095337,314
873.212646,326
873.329834,311
873.44696,312
873.564209,329
873.681396,322
873.798645,314
873.915894,323
874.03302,307
874.150208,321
874.267456,324
874.384583,320
874.501831,306
874.618958,308
874.736145,313
874.853333,317
874.970459,318
875.087646,318
875.204834,302
875.32196,312
875.439148,306
875.556274,310
875.673401,321
875.790527,314
875.907715,303
876.024841,314
876.141968,312
876.259094,317
876.376282,310
876.493347,319
876.610474,319
876.7276,313
876.844727,305
876.961853,314
877.078918,321
877.195984,319
877.313171,302
877.430237,330
877.547302,320
877.664368,334
877.781433,307
877.898499,314
878.015625,316
878.13269,311
878.249695,318
878.366821,318
878.483887,329
878.600952,320
878.717957,312
878.834961,318
878.952087,304
879.069092,318
879.186157,323
879.303162,307
879.420227,318
879.537231,317
879.654236,334
879.77124,323
879.888306,322
880.005249,310
880.122314,317
880.239319,320
880.356323,319
880.473328,327
880.590271,323
880.707275,327
880.824341,311
880.941284,315
881.058228,322
881.175232,330
881.292236,320
881.40918,310
881.526123,308
881.643066,307
881.760071,322
881.877014,317
881.993958,308
882.11084,324
882.227783,305
882.344727,309
882.46167,324
882.578613,316
882.695618,318
882.812439,335
882.929382,311
883.046326,327
883.163208,311
883.280151,311
883.397034,317
883.513916,316
883.630798,313
883.747742,322
883.864563,307
883.981506,310
884.098389,326
884.21521,326
884.332153,315
884.448975,318
884.565796,315
884.682678,324
884.7995,321
884.916443,321
885.033264,318
885.150085,309
885.266968,319
885.383789,317
885.500671,321
885.617493,324
885.734314,312
885.851196,318
885.967896,319
886.084717,311
886.201599,310
886.318359,305
886.435181,318
886.552002,322
886.668762,325
886.785645,322
886.902344,321
887.019165,314
887.135925,309
887.252747,318
887.369446,324
887.486267,327
887.603027,313
887.719788,328
887.836548,316
887.953247,313
888.070068,310
888.186829,321
888.303528,308
888.420288,325
888.536987,309
888.653687,318
888.770447,312
888.887146,316
889.003967,312
889.120667,323
889.237305,323
889.354065,330
889.470703,322
889.587463,311
889.704163,328
889.820862,328
889.937561,323
890.054199,317
890.170837,318
890.287598,317
890.404236,316
890.520874,312
890.637634,308
890.754211,312
890.87085,316
890.987549,316
891.104187,305
891.220886,323
891.337463,301
891.454102,318
891.57074,305
891.687378,312
891.804077,323
891.920654,307
892.037231,319
892.15387,308
892.270447,306
892.387085,315
892.503723,316
892.6203,321
892.736877,320
892.853516,303
892.970032,316
893.08667,312
893.203186,323
893.319763,307
893.43634,319
893.552917,310
893.669556,314
893.786011,312
893.902588,314
894.019165,321
894.135681,318
894.252197,307
894.368835,321
894.485291,315
894.601868,311
894.718384,310
894.8349,312
894.951355,335
895.067932,311
895.184448,310
895.300964,315
895.417419,318
895.533936,316
895.650452,319
895.766907,300
895.883423,322
895.999878,329
896.116333,325
896.232849,320
896.349304,319
896.465759,318
896.582214,314
896.698669,320
896.815125,318
896.931641,318
897.048035,325
897.164551,312
897.280884,316
897.397339,306
897.513794,307
897.630249,310
897.746582,322
897.863098,327
897.979431,316
898.095886,317
898.212341,310
898.328674,309
898.445129,312
898.561462,308
898.677795,316
898.794312,312
898.910645,315
899.026978,324
899.143433,310
899.259766,311
899.37616,318
899.492493,314
899.608765,318
899.725159,313
899.841553,322
899.957947,324
900.07428,314
900.190552,323
900.306946,308
900.423157,308
900.53949,316
900.655884,310
900.772156,324
900.888489,305
901.004822,331
901.121033,309
901.237366,324
901.353699,306
901.46991,326
901.586304,312
901.702515,313
901.818787,315
901.93512,328
902.051331,312
902.167603,326
902.283875,310
902.400085,317
902.516418,317
902.632629,318
902.74884,310
902.865112,320
902.981384,313
903.097595,310
903.213867,315
903.330017,324
903.446289,321
903.5625,324
903.67865,315
903.794922,318
903.911072,328
904.027344,302
904.143494,320
904.259705,315
904.375916,314
904.492065,321
904.608215,312
904.724426,325
904.840576,317
904.956726,323
905.072876,317
905.189087,316
905.305176,318
905.421387,310
905.537537,317
905.653687,316
905.769775,321
905.885925,307
906.002014,315
906.118164,310
906.234314,320
906.350403,323
906.466492,317
906.582642,310
906.69873,311
906.814758,327
906.930908,317
907.046936,327
907.163086,311
907.279175,317
907.395264,313
907.511353,318
907.62738,318
907.743408,304
907.859497,318
907.975525,325
908.091553,323
908.207703,311
908.32373,315
908.439758,321
908.555786,334
908.671814,324
908.787842,313
908.90387,318
909.019775,314
909.135864,322
909.251892,307
909.367859,323
909.483826,318
909.599854,313
909.715881,317
909.831848,321
909.947815,314
910.063782,305
910.179749,321
910.295776,320
910.411743,316
910.527649,322
910.643616,320
910.759583,318
910.875488,306
910.991455,317
911.107361,320
911.223267,321
911.339294,317
911.4552,322
911.571106,321
911.687073,311
911.802979,308
911.918823,327
912.034729,305
912.150635,319
912.266602,308
912.382446,304
912.498352,314
912.614197,309
912.730103,310
912.846008,301
792.44574,335
792.56488,351
792.68396,406
792.80304,400
792.92218,338
793.041199,332
793.160339,336
793.279419,344
793.398499,340
793.517578,332
793.636658,326
793.755737,353
793.874817,362
793.993896,344
794.112976,344
794.232056,334
794.351074,331
794.470215,341
794.589233,358
794.708313,334
794.827393,335
794.946411,329
795.065552,354
795.18457,343
795.303589,339
795.422668,328
795.541687,328
795.660767,339
795.779846,339
795.898865,332
796.017883,332
796.136963,348
796.255981,334
796.375061,328
796.49408,327
796.613037,344
796.732117,333
796.851135,336
796.970154,315
797.089233,336
797.208191,336
797.327271,346
797.446228,333
797.565186,326
797.684265,333
797.803223,324
797.922241,328
798.04126,334
798.160278,332
798.279297,324
798.398315,337
798.517273,335
798.636292,344
798.75531,329
798.874268,317
798.993286,349
799.112244,327
799.231323,334
799.350281,326
799.469238,344
799.588257,319
799.707153,345
799.826111,343
799.945129,324
800.064087,330
800.183044,326
800.302063,333
800.421021,333
800.539978,331
800.658936,330
800.777893,328
800.896912,332
801.015747,324
801.134705,317
801.253723,343
801.37262,331
801.491638,341
801.610535,325
801.729492,326
801.84845,326
801.967407,329
802.086243,321
802.205261,327
802.324158,325
802.443115,327
802.562073,322
802.680969,340
802.799927,344
802.918762,340
803.037659,334
803.156677,331
803.275574,337
803.39447,321
803.513428,326
803.632263,322
803.751221,335
803.870117,334
803.989014,330
804.107971,333
804.226746,326
804.345642,328
804.4646,339
804.583496,340
804.702393,325
804.821228,332
804.940125,342
805.059021,336
805.177917,330
805.296814,330
805.415649,331
805.534546,323
805.653442,329
805.772278,328
805.891113,339
806.01001,335
806.128906,319
806.247742,335
806.366577,339
806.485413,322
806.604309,342
806.723145,323
806.84198,329
806.960876,319
807.079712,330
807.198486,340
807.317383,337
807.436218,343
807.554993,319
807.673889,338
807.792725,325
807.91156,332
808.030396,327
808.14917,337
808.268005,326
808.386841,344
808.505676,327
808.624451,336
808.743286,331
808.862122,343
808.980896,314
809.099731,335
809.218506,341
809.337341,321
809.456116,333
809.57489,333
809.693726,324
809.8125,337
809.931274,338
810.050049,335
810.168884,328
810.287659,322
810.406372,339
810.525269,333
810.643982,334
810.762756,324
810.881531,342
811.000305,325
811.11908,340
811.237854,327
811.356567,323
811.475403,333
811.594116,338
811.71283,338
811.831604,321
811.950378,320
812.069153,333
812.187927,343
812.30658,336
812.425415,335
812.544128,338
812.662781,320
812.781616,342
812.900269,335
813.019043,338
813.137756,324
813.256531,333
813.375244,337
813.493896,333
813.612671,342
813.731384,339
813.850037,320
813.96875,338
814.087524,339
814.206238,322
814.324951,334
814.443604,331
814.562256,338
814.68103,321
814.799683,325
814.918335,323
815.037109,340
815.155762,343
815.274475,334
815.393188,339
815.511841,333
815.630554,330
815.749146,330
815.867859,341
815.986572,320
816.105164,330
816.223877,336
816.342529,323
816.461182,347
816.579895,325
816.698486,330
816.817139,316
816.935791,331
817.054504,325
817.173096,334
817.291748,317
817.4104,308
817.529053,347
817.647644,326
817.766235,338
817.884949,327
818.00354,328
818.122192,324
818.240845,331
818.359436,309
818.478088,325
818.59668,316
818.715271,315
818.833923,327
818.952515,328
819.071106,333
819.189758,331
819.30835,322
819.426941,333
819.545532,330
819.664124,332
819.782715,325
819.901306,311
820.019897,331
820.138489,318
820.25708,318
820.375671,318
820.494202,331
820.612732,301
820.731384,317
820.849915,331
820.968506,333
821.087097,316
821.205627,319
821.324158,329
821.442749,309
821.561279,323
821.679871,327
821.798401,315
821.916931,321
822.035461,318
822.154053,310
822.272583,326
822.391174,324
822.509583,318
822.628174,329
822.746704,319
822.865234,316
822.983765,307
823.102295,317
823.220825,308
823.339294,319
823.457825,325
823.576355,317
823.694824,321
823.813354,324
823.931885,323
824.050354,318
824.168884,329
824.287354,297
824.405823,319
824.524353,321
824.642822,310
824.761353,318
824.879822,330
824.998291,326
825.116699,321
825.235291,318
825.353699,320
825.472168,318
825.590637,321
825.709106,305
825.827576,313
825.946045,326
826.064453,319
826.182983,317
826.301392,324
826.4198,301
826.53833,323
826.656738,320
826.775208,327
826.893677,317
827.012024,319
827.130493,303
827.248962,312
827.36731,324
827.485779,326
827.604248,321
827.722595,331
827.841064,317
827.959412,317
828.077942,324
828.196289,321
828.314636,324
828.433105,311
828.551514,309
828.669861,320
828.78833,315
828.906677,323
829.025085,313
829.143433,313
829.261841,313
829.38031,332
829.498657,323
829.617004,325
829.735413,319
829.85376,326
829.972107,310
830.090515,324
830.208862,306
830.327209,319
830.445557,315
830.563904,323
830.682312,325
830.800659,313
830.919006,323
831.037354,321
831.155701,314
831.274048,329
831.392395,311
831.51062,310
831.629028,316
831.747314,317
831.865662,321
831.984009,310
832.102356,314
832.220642,319
832.338928,313
832.457275,320
832.575623,316
832.693909,313
832.812134,335
832.930481,325
833.048828,316
833.167114,314
833.2854,327
833.403687,312
833.521973,322
833.640259,324
833.758545,329
833.876831,332
833.995056,316
834.113281,317
834.231628,314
834.349915,317
834.468201,320
834.586426,322
834.704651,320
834.822998,323
834.941162,308
835.059448,326
835.177673,311
835.295959,328
835.414246,326
835.53241,319
835.650635,312
835.768921,316
835.887146,331
836.005371,326
836.123596,309
836.241821,316
836.360046,312
836.478271,307
836.596497,319
836.714722,316
836.832886,312
836.95105,330
837.069336,309
837.1875,313
837.305725,326
837.423889,318
837.542053,320
837.660339,320
837.778503,324
837.896667,321
838.014832,304
838.132996,333
838.25116,315
838.369385,311
838.487488,313
838.605713,323
838.723877,311
838.84198,318
838.960205,325
839.078308,309
839.196472,322
839.314636,324
839.4328,303
839.550964,320
839.669067,313
839.787231,318
839.905396,324
840.023499,318
840.141602,321
840.259766,315
840.377869,333
840.495972,314
840.614136,313
840.732239,318
840.850342,311
840.968445,321
841.086548,314
841.204651,320
841.322754,332
841.440918,327
841.55896,332
841.677002,310
841.795166,337
841.913208,317
842.031311,313
842.149353,333
842.267456,312
842.385498,334
842.503601,322
842.621643,317
842.739746,327
842.857788,317
842.97583,317
843.093933,324
843.211975,308
843.330017,322
843.44812,321
843.566101,314
843.684204,326
843.802246,322
843.920227,308
844.038269,319
844.156311,320
844.274292,322
844.392395,320
844.510376,311
844.628357,328
844.74646,324
844.864441,305
844.982422,309
845.100403,312
845.218384,326
845.336426,313
845.454468,314
845.572449,316
845.69043,321
845.808411,313
845.926453,320
846.044373,311
846.162354,329
846.280396,315
846.398315,323
846.516296,315
846.634216,314
846.752197,323
846.870178,320
846.988098,316
847.106079,323
847.22406,317
847.34198,316
847.4599,309
847.577881,307
847.695801,315
847.813782,334
847.931641,324
848.049561,319
848.167603,315
848.285461,322
848.403381,328
848.521362,301
848.639221,326
848.75708,310
848.875,300
848.99292,317
849.110901,322
849.22876,325
849.34668,326
849.464539,311
849.582458,302
849.700317,322
849.818176,312
849.936096,314
850.053955,314
850.171875,317
850.289673,313
850.407593,321
850.525452,327
850.643311,331
850.761169,312
850.878967,328
850.996887,316
851.114746,299
851.232544,324
851.350403,317
851.468262,309
851.58606,323
851.703979,311
851.821777,317
851.939636,318
852.057434,320
852.175232,317
852.293091,314
852.410889,323
852.528687,317
852.646545,308
852.764343,312
852.88208,319
852.999939,330
853.117676,315
853.235535,315
853.353271,309
853.471069,322
853.588928,319
853.706604,326
853.824402,309
853.9422,314
854.059998,338
854.177734,325
854.295532,302
854.413269,329
854.531006,313
854.648804,315
854.766541,303
854.884277,322
855.002014,313
855.119751,314
855.237549,311
855.355225,328
855.473022,332
855.590698,322
855.708435,326
855.826172,327
855.943848,320
856.061646,309
856.179321,326
856.296997,306
856.414795,321
856.53241,330
856.650085,317
856.767822,321
856.885559,322
857.003174,317
857.120911,317
857.238586,330
857.356201,319
857.473938,305
857.591614,318
857.709351,315
857.826965,321
857.944641,324
858.062317,321
858.179993,313
858.297668,311
858.415283,315
858.532959,319
858.650574,324
858.768188,310
858.885803,325
859.003479,314
859.121094,323
859.23877,323
859.356384,316
859.473999,308
859.591675,331
859.709229,306
859.826843,314
859.944458,316
860.062012,321
860.179626,318
860.297302,327
860.414856,316
860.532471,325
860.650024,322
860.767639,333
860.885193,321
861.002808,308
861.120361,305
861.237976,333
861.35553,306
861.473022,325
861.590698,314
861.708191,324
861.825745,327
861.943298,314
862.060852,311
862.178406,318
862.295959,325
862.413513,324
862.531006,316
862.64856,317
862.766113,320
862.883667,315
863.00116,329
863.118713,319
863.236206,323
863.353699,326
863.471252,320
863.588745,316
863.706177,326
863.82373,318
863.941162,307
864.058716,320
864.176208,319
864.29364,317
864.411194,312
864.528687,323
864.646118,316
864.763611,308
864.881042,317
864.998535,326
865.116028,304
865.233459,316
865.350891,314
865.468384,329
865.585754,311
865.703308,333
865.820679,324
865.938171,320
866.055542,322
866.173035,332
866.290466,323
866.407837,318
866.52533,309
866.6427,333
866.760071,299
866.877563,327
866.994934,320
867.112305,316
867.229736,309
867.347107,317
867.464539,317
867.58197,325
867.699341,312
867.81665,327
867.934082,306
868.051453,306
868.168823,315
868.286194,312
868.403564,313
868.520935,323
868.638306,306
868.755676,312
868.872986,333
868.990295,326
869.107727,317
869.225037,334
869.342346,311
869.459717,319
869.577026,335
869.694336,322
869.811707,326
869.929016,314
870.046326,318
870.163635,308
870.280945,325
870.398254,319
870.515564,313
870.632812,333
870.750183,318
870.867432,328
870.984741,325
871.102051,331
871.219299,314
871.336609,316
871.453918,315
871.571106,321
871.688416,306
871.805664,319
871.922852,313
872.040222,315
872.157471,302
872.274719,308
872.391968,331
872.509155,314
872.626465,317
872.743652,321
872.860962,313
872.978149,317
873.095337,330
873.212646,312
873.329834,322
873.44696,325
873.564209,316
873.681396,313
873.798645,318
873.915894,316
874.03302,319
874.150208,324
874.267456,319
874.384583,324
874.501831,312
874.618958,318
874.736145,325
874.853333,324
874.970459,323
875.087646,324
875.204834,319
875.32196,323
875.439148,320
875.556274,326
875.673401,311
875.790527,319
875.907715,322
876.024841,303
876.141968,322
876.259094,339
876.376282,305
876.493347,328
876.610474,315
876.7276,316
876.844727,319
876.961853,310
877.078918,323
877.195984,312
877.313171,310
877.430237,320
877.547302,312
877.664368,313
877.781433,315
877.898499,319
878.015625,303
878.13269,307
878.249695,308
878.366821,326
878.483887,321
878.600952,316
878.717957,324
878.834961,320
878.952087,314
879.069092,307
879.186157,310
879.303162,309
879.420227,333
879.537231,334
879.654236,318
879.77124,333
879.888306,304
880.005249,318
880.122314,316
880.239319,325
880.356323,302
880.473328,309
880.590271,326
880.707275,321
880.824341,324
880.941284,330
881.058228,319
881.175232,324
881.292236,309
881.40918,316
881.526123,308
881.643066,307
881.760071,320
881.877014,308
881.993958,323
882.11084,309
882.227783,320
882.344727,318
882.46167,328
882.578613,330
882.695618,309
882.812439,314
882.929382,320
883.046326,315
883.163208,321
883.280151,310
883.397034,306
883.513916,317
883.630798,320
883.747742,319
883.864563,323
883.981506,319
884.098389,328
884.21521,327
884.332153,309
884.448975,302
884.565796,329
884.682678,321
884.7995,320
884.916443,324
885.033264,324
885.150085,326
885.266968,317
885.383789,313
885.500671,320
885.617493,321
885.734314,316
885.851196,309
885.967896,318
886.084717,322
886.201599,318
886.318359,324
886.435181,310
886.552002,319
886.668762,301
886.785645,329
886.902344,311
887.019165,327
887.135925,324
887.252747,323
887.369446,321
887.486267,318
887.603027,308
887.719788,313
887.836548,325
887.953247,327
888.070068,336
888.186829,325
888.303528,315
888.420288,323
888.536987,309
888.653687,310
888.770447,324
888.887146,329
889.003967,324
889.120667,326
889.237305,311
889.354065,316
889.470703,327
889.587463,319
889.704163,334
889.820862,319
889.937561,321
890.054199,324
890.170837,316
890.287598,319
890.404236,320
890.520874,328
890.637634,320
890.754211,322
890.87085,317
890.987549,320
891.104187,316
891.220886,313
891.337463,321
891.454102,313
891.57074,320
891.687378,330
891.804077,312
891.920654,325
892.037231,322
892.15387,317
892.270447,321
892.387085,312
892.503723,320
892.6203,322
892.736877,322
892.853516,329
892.970032,311
893.08667,312
893.203186,317
893.319763,318
893.43634,316
893.552917,324
893.669556,310
893.786011,310
893.902588,322
894.019165,324
894.135681,337
894.252197,312
894.368835,317
894.485291,306
894.601868,317
894.718384,316
894.8349,314
894.951355,328
895.067932,306
895.184448,323
895.300964,300
895.417419,326
895.533936,320
895.650452,320
895.766907,325
895.883423,315
895.999878,322
896.116333,324
896.232849,328
896.349304,325
896.465759,320
896.582214,313
896.698669,308
896.815125,303
896.931641,316
897.048035,320
897.164551,316
897.280884,309
897.397339,319
897.513794,316
897.630249,335
897.746582,330
897.863098,316
897.979431,320
898.095886,316
898.212341,319
898.328674,309
898.445129,323
898.561462,307
898.677795,311
898.794312,321
898.910645,319
899.026978,318
899.143433,324
899.259766,313
899.37616,327
899.492493,316
899.608765,325
899.725159,319
899.841553,312
899.957947,314
900.07428,316
900.190552,314
900.306946,317
900.423157,322
900.53949,315
900.655884,304
900.772156,328
900.888489,321
901.004822,315
901.121033,308
901.237366,328
901.353699,313
901.46991,326
901.586304,307
901.702515,328
901.818787,316
901.93512,321
902.051331,312
902.167603,321
902.283875,324
902.400085,317
902.516418,328
902.632629,311
902.74884,304
902.865112,327
902.981384,323
903.097595,320
903.213867,305
903.330017,330
903.446289,317
903.5625,316
903.67865,343
903.794922,321
903.911072,310
904.027344,322
904.143494,319
904.259705,317
904.375916,316
904.492065,313
904.608215,311
904.724426,322
904.840576,325
904.956726,306
905.072876,326
905.189087,319
905.305176,315
905.421387,321
905.537537,307
905.653687,328
905.769775,324
905.885925,320
906.002014,319
906.118164,330
906.234314,325
906.350403,320
906.466492,326
906.582642,320
906.69873,311
906.814758,317
906.930908,320
907.046936,327
907.163086,312
907.279175,322
907.395264,316
907.511353,317
907.62738,306
907.743408,322
907.859497,331
907.975525,317
908.091553,316
908.207703,318
908.32373,319
908.439758,319
908.555786,315
908.671814,315
908.787842,325
908.90387,311
909.019775,316
909.135864,316
909.251892,306
909.367859,323
909.483826,324
909.599854,304
909.715881,320
909.831848,317
909.947815,306
910.063782,319
910.179749,313
910.295776,327
910.411743,317
910.527649,320
910.643616,319
910.759583,320
910.875488,306
910.991455,314
911.107361,314
911.223267,312
911.339294,309
911.4552,326
911.571106,329
911.687073,315
911.802979,322
911.918823,330
912.034729,315
912.150635,317
912.266602,314
912.382446,313
912.498352,304
912.614197,318
912.730103,311
912.846008,319
