792.44574,318
792.56488,350
792.68396,415
792.80304,383
792.92218,347
793.041199,326
793.160339,338
793.279419,343
793.398499,336
793.517578,319
793.636658,321
793.755737,335
793.874817,353
793.993896,348
794.112976,359
794.232056,323
794.351074,338
794.470215,326
794.589233,337
794.708313,315
794.827393,339
794.946411,330
795.065552,342
795.18457,337
795.303589,347
795.422668,336
795.541687,322
795.660767,336
795.779846,316
795.898865,319
796.017883,349
796.136963,327
796.255981,329
796.375061,335
796.49408,343
796.613037,323
796.732117,343
796.851135,355
796.970154,327
797.089233,317
797.208191,337
797.327271,336
797.446228,335
797.565186,327
797.684265,330
797.803223,325
797.922241,335
798.04126,322
798.160278,326
798.279297,335
798.398315,346
798.517273,330
798.636292,332
798.75531,344
798.874268,326
798.993286,341
799.112244,341
799.231323,329
799.350281,319
799.469238,322
799.588257,343
799.707153,332
799.826111,328
799.945129,326
800.064087,342
800.183044,333
800.302063,331
800.421021,337
800.539978,319
800.658936,322
800.777893,333
800.896912,333
801.015747,319
801.134705,337
801.253723,342
801.37262,339
801.491638,331
801.610535,323
801.729492,339
801.84845,335
801.967407,316
802.086243,328
802.205261,332
802.324158,330
802.443115,322
802.562073,328
802.680969,340
802.799927,327
802.918762,327
803.037659,339
803.156677,340
803.275574,337
803.39447,333
803.513428,336
803.632263,324
803.751221,342
803.870117,325
803.989014,330
804.107971,323
804.226746,316
804.345642,343
804.4646,324
804.583496,343
804.702393,325
804.821228,346
804.940125,330
805.059021,324
805.177917,324
805.296814,336
805.415649,334
805.534546,321
805.653442,334
805.772278,325
805.891113,339
806.01001,336
806.128906,324
806.247742,334
806.366577,332
806.485413,326
806.604309,345
806.723145,326
806.84198,348
806.960876,340
807.079712,324
807.198486,325
807.317383,329
807.436218,348
807.554993,324
807.673889,346
807.792725,317
807.91156,337
808.030396,335
808.14917,336
808.268005,330
808.386841,334
808.505676,324
808.624451,331
808.743286,335
808.862122,340
808.980896,329
809.099731,331
809.218506,328
809.337341,325
809.456116,335
809.57489,332
809.693726,329
809.8125,350
809.931274,325
810.050049,342
810.168884,343
810.287659,327
810.406372,342
810.525269,353
810.643982,344
810.762756,342
810.881531,336
811.000305,331
811.11908,323
811.237854,356
811.356567,343
811.475403,333
811.594116,337
811.71283,336
811.831604,351
811.950378,348
812.069153,350
812.187927,331
812.30658,321
812.425415,334
812.544128,339
812.662781,330
812.781616,335
812.900269,335
813.019043,335
813.137756,330
813.256531,325
813.375244,337
813.493896,340
813.612671,338
813.731384,327
813.850037,355
813.96875,323
814.087524,332
814.206238,354
814.324951,337
814.443604,333
814.562256,335
814.68103,327
814.799683,321
814.918335,328
815.037109,337
815.155762,334
815.274475,332
815.393188,313
815.511841,350
815.630554,334
815.749146,333
815.867859,332
815.986572,338
816.105164,339
816.223877,344
816.342529,331
816.461182,331
816.579895,329
816.698486,352
816.817139,328
816.935791,327
817.054504,332
817.173096,333
817.291748,328
817.4104,343
817.529053,326
817.647644,332
817.766235,318
817.884949,329
818.00354,315
818.122192,341
818.240845,312
818.359436,351
818.478088,317
818.59668,331
818.715271,321
818.833923,342
818.952515,327
819.071106,337
819.189758,332
819.30835,332
819.426941,306
819.545532,338
819.664124,324
819.782715,327
819.901306,318
820.019897,332
820.138489,329
820.25708,322
820.375671,314
820.494202,313
820.612732,318
820.731384,332
820.849915,318
820.968506,327
821.087097,315
821.205627,322
821.324158,317
821.442749,329
821.561279,324
821.679871,336
821.798401,321
821.916931,320
822.035461,331
822.154053,327
822.272583,312
822.391174,310
822.509583,316
822.628174,335
822.746704,308
822.865234,322
822.983765,327
823.102295,310
823.220825,318
823.339294,313
823.457825,316
823.576355,314
823.694824,321
823.813354,335
823.931885,325
824.050354,320
824.168884,301
824.287354,308
824.405823,325
824.524353,321
824.642822,323
824.761353,319
824.879822,323
824.998291,326
825.116699,320
825.235291,310
825.353699,310
825.472168,327
825.590637,315
825.709106,330
825.827576,314
825.946045,324
826.064453,312
826.182983,315
826.301392,324
826.4198,320
826.53833,309
826.656738,324
826.775208,316
826.893677,325
827.012024,316
827.130493,314
827.248962,328
827.36731,313
827.485779,330
827.604248,322
827.722595,311
827.841064,311
827.959412,318
828.077942,320
828.196289,315
828.314636,319
828.433105,318
828.551514,319
828.669861,322
828.78833,331
828.906677,310
829.025085,329
829.143433,315
829.261841,318
829.38031,325
829.498657,329
829.617004,331
829.735413,313
829.85376,318
829.972107,326
830.090515,330
830.208862,313
830.327209,315
830.445557,321
830.563904,308
830.682312,313
830.800659,317
830.919006,333
831.037354,319
831.155701,328
831.274048,319
831.392395,313
831.51062,315
831.629028,321
831.747314,321
831.865662,335
831.984009,316
832.102356,319
832.220642,316
832.338928,327
832.457275,316
832.575623,318
832.693909,314
832.812134,327
832.930481,322
833.048828,316
833.167114,318
833.2854,312
833.403687,320
833.521973,322
833.640259,322
833.758545,316
833.876831,318
833.995056,319
834.113281,314
834.231628,329
834.349915,320
834.468201,330
834.586426,321
834.704651,315
834.822998,308
834.941162,319
835.059448,319
835.177673,326
835.295959,324
835.414246,319
835.53241,319
835.650635,330
835.768921,321
835.887146,314
836.005371,306
836.123596,338
836.241821,325
836.360046,322
836.478271,319
836.596497,310
836.714722,312
836.832886,320
836.95105,318
837.069336,323
837.1875,313
837.305725,321
837.423889,309
837.542053,330
837.660339,308
837.778503,321
837.896667,313
838.014832,321
838.132996,317
838.25116,323
838.369385,328
838.487488,315
838.605713,314
838.723877,318
838.84198,318
838.960205,320
839.078308,325
839.196472,306
839.314636,331
839.4328,319
839.550964,322
839.669067,316
839.787231,321
839.905396,316
840.023499,321
840.141602,308
840.259766,330
840.377869,329
840.495972,320
840.614136,320
840.732239,322
840.850342,318
840.968445,312
841.086548,319
841.204651,324
841.322754,311
841.440918,316
841.55896,318
841.677002,317
841.795166,329
841.913208,315
842.031311,311
842.149353,316
842.267456,324
842.385498,327
842.503601,319
842.621643,308
842.739746,315
842.857788,329
842.97583,315
843.093933,322
843.211975,316
843.330017,311
843.44812,318
843.566101,311
843.684204,315
843.802246,308
843.920227,328
844.038269,330
844.156311,324
844.274292,318
844.392395,322
844.510376,318
844.628357,330
844.74646,312
844.864441,321
844.982422,309
845.100403,305
845.218384,310
845.336426,327
845.454468,321
845.572449,310
845.69043,317
845.808411,320
845.926453,324
846.044373,322
846.162354,318
846.280396,315
846.398315,303
846.516296,324
846.634216,312
846.752197,310
846.870178,313
846.988098,329
847.106079,308
847.22406,309
847.34198,311
847.4599,308
847.577881,323
847.695801,309
847.813782,308
847.931641,324
848.049561,299
848.167603,327
848.285461,315
848.403381,321
848.521362,304
848.639221,317
848.75708,306
848.875,318
848.99292,321
849.110901,333
849.22876,320
849.34668,334
849.464539,310
849.582458,312
849.700317,322
849.818176,312
849.936096,310
850.053955,320
850.171875,311
850.289673,315
850.407593,312
850.525452,326
850.643311,316
850.761169,316
850.878967,308
850.996887,305
851.114746,318
851.232544,320
851.350403,308
851.468262,330
851.58606,307
851.703979,313
851.821777,319
851.939636,320
852.057434,317
852.175232,317
852.293091,317
852.410889,325
852.528687,314
852.646545,328
852.764343,310
852.88208,329
852.999939,317
853.117676,309
853.235535,314
853.353271,313
853.471069,311
853.588928,320
853.706604,315
853.824402,321
853.9422,311
854.059998,317
854.177734,323
854.295532,311
854.413269,319
854.531006,313
854.648804,317
854.766541,307
854.884277,320
855.002014,315
855.119751,323
855.237549,322
855.355225,315
855.473022,324
855.590698,319
855.708435,331
855.826172,328
855.943848,326
856.061646,316
856.179321,331
856.296997,313
856.414795,312
856.53241,333
856.650085,323
856.767822,316
856.885559,320
857.003174,317
857.120911,305
857.238586,320
857.356201,313
857.473938,310
857.591614,323
857.709351,307
857.826965,318
857.944641,316
858.062317,321
858.179993,315
858.297668,327
858.415283,311
858.532959,316
858.650574,320
858.768188,314
858.885803,311
859.003479,323
859.121094,320
859.23877,304
859.356384,321
859.473999,333
859.591675,319
859.709229,319
859.826843,316
859.944458,312
860.062012,308
860.179626,318
860.297302,311
860.414856,315
860.532471,303
860.650024,326
860.767639,317
860.885193,313
861.002808,326
861.120361,326
861.237976,309
861.35553,331
861.473022,320
861.590698,314
861.708191,328
861.825745,327
861.943298,319
862.060852,322
862.178406,310
862.295959,310
862.413513,308
862.531006,321
862.64856,308
862.766113,314
862.883667,316
863.00116,327
863.118713,312
863.236206,318
863.353699,309
863.471252,330
863.588745,300
863.706177,314
863.82373,322
863.941162,309
864.058716,305
864.176208,332
864.29364,322
864.411194,324
864.528687,309
864.646118,320
864.763611,304
864.881042,324
864.998535,323
865.116028,321
865.233459,317
865.350891,335
865.468384,322
865.585754,331
865.703308,320
865.820679,313
865.938171,316
866.055542,318
866.173035,324
866.290466,312
866.407837,323
866.52533,329
866.6427,314
866.760071,324
866.877563,316
866.994934,313
867.112305,313
867.229736,322
867.347107,312
867.464539,325
867.58197,315
867.699341,324
867.81665,312
867.934082,322
868.051453,314
868.168823,328
868.286194,314
868.403564,314
868.520935,310
868.638306,319
868.755676,313
868.872986,330
868.990295,310
869.107727,322
869.225037,317
869.342346,328
869.459717,308
869.577026,313
869.694336,313
869.811707,329
869.929016,313
870.046326,318
870.163635,306
870.280945,327
870.398254,308
870.515564,320
870.632812,313
870.750183,319
870.867432,320
870.984741,317
871.102051,313
871.219299,309
871.336609,305
871.453918,324
871.571106,310
871.688416,325
871.805664,309
871.922852,317
872.040222,322
872.157471,323
872.274719,321
872.391968,330
872.509155,309
872.626465,325
872.743652,310
872.860962,323
872.978149,311
873.095337,324
873.212646,313
873.329834,319
873.44696,323
873.564209,321
873.681396,317
873.798645,309
873.915894,302
874.03302,325
874.150208,318
874.267456,316
874.384583,319
874.501831,326
874.618958,312
874.736145,326
874.853333,328
874.970459,314
875.087646,311
875.204834,324
875.32196,329
875.439148,333
875.556274,321
875.673401,321
875.790527,328
875.907715,315
876.024841,322
876.141968,330
876.259094,312
876.376282,329
876.493347,323
876.610474,312
876.7276,317
876.844727,317
876.961853,308
877.078918,326
877.195984,308
877.313171,318
877.430237,318
877.547302,331
877.664368,318
877.781433,316
877.898499,317
878.015625,319
878.13269,315
878.249695,318
878.366821,313
878.483887,318
878.600952,311
878.717957,303
878.834961,320
878.952087,311
879.069092,299
879.186157,316
879.303162,318
879.420227,322
879.537231,315
879.654236,313
879.77124,315
879.888306,323
880.005249,312
880.122314,313
880.239319,309
880.356323,310
880.473328,321
880.590271,316
880.707275,312
880.824341,310
880.941284,327
881.058228,333
881.175232,312
881.292236,318
881.40918,315
881.526123,319
881.643066,311
881.760071,336
881.877014,316
881.993958,318
882.11084,316
882.227783,313
882.344727,322
882.46167,312
882.578613,327
882.695618,301
882.812439,313
882.929382,315
883.046326,312
883.163208,308
883.280151,316
883.397034,309
883.513916,309
883.630798,335
883.747742,309
883.864563,304
883.981506,315
884.098389,325
884.21521,307
884.332153,317
884.448975,313
884.565796,318
884.682678,310
884.7995,323
884.916443,305
885.033264,323
885.150085,333
885.266968,325
885.383789,308
885.500671,323
885.617493,322
885.734314,317
885.851196,310
885.967896,309
886.084717,309
886.201599,319
886.318359,319
886.435181,331
886.552002,312
886.668762,312
886.785645,311
886.902344,323
887.019165,313
887.135925,318
887.252747,306
887.369446,326
887.486267,309
887.603027,325
887.719788,313
887.836548,317
887.953247,307
888.070068,316
888.186829,312
888.303528,309
888.420288,322
888.536987,307
888.653687,324
888.770447,314
888.887146,308
889.003967,326
889.120667,310
889.237305,328
889.354065,322
889.470703,309
889.587463,320
889.704163,322
889.820862,320
889.937561,316
890.054199,311
890.170837,321
890.287598,304
890.404236,324
890.520874,316
890.637634,307
890.754211,311
890.87085,320
890.987549,324
891.104187,314
891.220886,315
891.337463,326
891.454102,304
891.57074,333
891.687378,317
891.804077,307
891.920654,310
892.037231,327
892.15387,305
892.270447,328
892.387085,305
892.503723,313
892.6203,322
892.736877,317
892.853516,310
892.970032,316
893.08667,319
893.203186,318
893.319763,320
893.43634,324
893.552917,321
893.669556,331
893.786011,315
893.902588,328
894.019165,312
894.135681,318
894.252197,301
894.368835,333
894.485291,324
894.601868,330
894.718384,312
894.8349,326
894.951355,305
895.067932,321
895.184448,320
895.300964,317
895.417419,305
895.533936,321
895.650452,319
895.766907,322
895.883423,314
895.999878,324
896.116333,320
896.232849,323
896.349304,307
896.465759,311
896.582214,306
896.698669,315
896.815125,321
896.931641,311
897.048035,315
897.164551,305
897.280884,314
897.397339,335
897.513794,316
897.630249,320
897.746582,328
897.863098,322
897.979431,324
898.095886,312
898.212341,318
898.328674,316
898.445129,311
898.561462,327
898.677795,312
898.794312,312
898.910645,324
899.026978,327
899.143433,326
899.259766,321
899.37616,309
899.492493,319
899.608765,306
899.725159,327
899.841553,311
899.957947,325
900.07428,334
900.190552,303
900.306946,329
900.423157,321
900.53949,310
900.655884,325
900.772156,306
900.888489,319
901.004822,312
901.121033,326
901.237366,322
901.353699,312
901.46991,318
901.586304,323
901.702515,303
901.818787,328
901.93512,311
902.051331,316
902.167603,310
902.283875,300
902.400085,322
902.516418,304
902.632629,314
902.74884,323
902.865112,310
902.981384,332
903.097595,316
903.213867,326
903.330017,311
903.446289,316
903.5625,318
903.67865,327
903.794922,315
903.911072,321
904.027344,315
904.143494,315
904.259705,317
904.375916,313
904.492065,318
904.608215,314
904.724426,315
904.840576,325
904.956726,306
905.072876,323
905.189087,309
905.305176,325
905.421387,321
905.537537,325
905.653687,337
905.769775,322
905.885925,317
906.002014,324
906.118164,312
906.234314,339
906.350403,313
906.466492,318
906.582642,318
906.69873,330
906.814758,325
906.930908,320
907.046936,311
907.163086,325
907.279175,315
907.395264,332
907.511353,315
907.62738,319
907.743408,323
907.859497,327
907.975525,313
908.091553,325
908.207703,311
908.32373,316
908.439758,310
908.555786,315
908.671814,323
908.787842,326
908.90387,303
909.019775,322
909.135864,335
909.251892,316
909.367859,324
909.483826,316
909.599854,334
909.715881,310
909.831848,310
909.947815,334
910.063782,315
910.179749,315
910.295776,296
910.411743,318
910.527649,323
910.643616,316
910.759583,318
910.875488,324
910.991455,308
911.107361,316
911.223267,310
911.339294,325
911.4552,315
911.571106,319
911.687073,307
911.802979,320
911.918823,313
912.034729,323
912.150635,311
912.266602,321
912.382446,316
912.498352,318
912.614197,320
912.730103,318
912.846008,317
792.44574,313
792.56488,356
792.68396,398
792.80304,383
792.92218,360
793.041199,314
793.160339,310
793.279419,333
793.398499,344
793.517578,321
793.636658,319
793.755737,330
793.874817,347
793.993896,344
794.112976,324
794.232056,324
794.351074,344
794.470215,323
794.589233,330
794.708313,322
794.827393,336
794.946411,338
795.065552,347
795.18457,338
795.303589,332
795.422668,330
795.541687,341
795.660767,336
795.779846,325
795.898865,345
796.017883,321
796.136963,340
796.255981,337
796.375061,345
796.49408,335
796.613037,331
796.732117,346
796.851135,323
796.970154,328
797.089233,327
797.208191,340
797.327271,331
797.446228,336
797.565186,345
797.684265,330
797.803223,338
797.922241,326
798.04126,333
798.160278,340
798.279297,344
798.398315,329
798.517273,330
798.636292,333
798.75531,336
798.874268,336
798.993286,336
799.112244,321
799.231323,315
799.350281,329
799.469238,330
799.588257,332
799.707153,333
799.826111,339
799.945129,317
800.064087,308
800.183044,321
800.302063,334
800.421021,339
800.539978,330
800.658936,333
800.777893,329
800.896912,320
801.015747,318
801.134705,324
801.253723,331
801.37262,326
801.491638,331
801.610535,321
801.729492,337
801.84845,320
801.967407,323
802.086243,318
802.205261,327
802.324158,330
802.443115,314
802.562073,329
802.680969,342
802.799927,328
802.918762,351
803.037659,332
803.156677,320
803.275574,340
803.39447,331
803.513428,332
803.632263,335
803.751221,338
803.870117,320
803.989014,335
804.107971,323
804.226746,332
804.345642,341
804.4646,334
804.583496,328
804.702393,333
804.821228,337
804.940125,343
805.059021,341
805.177917,329
805.296814,341
805.415649,324
805.534546,310
805.653442,340
805.772278,337
805.891113,320
806.01001,324
806.128906,322
806.247742,349
806.366577,350
806.485413,337
806.604309,340
806.723145,334
806.84198,316
806.960876,328
807.079712,322
807.198486,345
807.317383,328
807.436218,322
807.554993,343
807.673889,326
807.792725,340
807.91156,327
808.030396,322
808.14917,334
808.268005,327
808.386841,332
808.505676,334
808.624451,350
808.743286,333
808.862122,335
808.980896,330
809.099731,334
809.218506,337
809.337341,342
809.456116,334
809.57489,331
809.693726,333
809.8125,336
809.931274,337
810.050049,329
810.168884,342
810.287659,325
810.406372,335
810.525269,350
810.643982,329
810.762756,337
810.881531,331
811.000305,335
811.11908,337
811.237854,319
811.356567,336
811.475403,327
811.594116,338
811.71283,311
811.831604,346
811.950378,323
812.069153,334
812.187927,343
812.30658,326
812.425415,328
812.544128,344
812.662781,327
812.781616,329
812.900269,333
813.019043,333
813.137756,338
813.256531,339
813.375244,342
813.493896,325
813.612671,336
813.731384,335
813.850037,318
813.96875,333
814.087524,332
814.206238,341
814.324951,331
814.443604,312
814.562256,332
814.68103,333
814.799683,321
814.918335,342
815.037109,338
815.155762,339
815.274475,322
815.393188,328
815.511841,337
815.630554,326
815.749146,330
815.867859,331
815.986572,335
816.105164,338
816.223877,319
816.342529,338
816.461182,327
816.579895,332
816.698486,323
816.817139,329
816.935791,334
817.054504,333
817.173096,337
817.291748,328
817.4104,324
817.529053,337
817.647644,327
817.766235,324
817.884949,332
818.00354,331
818.122192,332
818.240845,322
818.359436,320
818.478088,335
818.59668,331
818.715271,329
818.833923,326
818.952515,316
819.071106,322
819.189758,321
819.30835,331
819.426941,318
819.545532,332
819.664124,343
819.782715,315
819.901306,317
820.019897,325
820.138489,319
820.25708,338
820.375671,304
820.494202,316
820.612732,330
820.731384,336
820.849915,326
820.968506,322
821.087097,333
821.205627,325
821.324158,316
821.442749,313
821.561279,301
821.679871,320
821.798401,330
821.916931,328
822.035461,318
822.154053,310
822.272583,322
822.391174,316
822.509583,314
822.628174,318
822.746704,311
822.865234,322
822.983765,321
823.102295,328
823.220825,321
823.339294,312
823.457825,319
823.576355,316
823.694824,317
823.813354,330
823.931885,309
824.050354,322
824.168884,315
824.287354,329
824.405823,321
824.524353,330
824.642822,313
824.761353,308
824.879822,314
824.998291,317
825.116699,313
825.235291,317
825.353699,321
825.472168,319
825.590637,324
825.709106,320
825.827576,333
825.946045,315
826.064453,317
826.182983,320
826.301392,308
826.4198,325
826.53833,327
826.656738,321
826.775208,317
826.893677,308
827.012024,320
827.130493,316
827.248962,328
827.36731,323
827.485779,324
827.604248,322
827.722595,316
827.841064,317
827.959412,318
828.077942,308
828.196289,304
828.314636,320
828.433105,325
828.551514,310
828.669861,313
828.78833,331
828.906677,306
829.025085,313
829.143433,318
829.261841,307
829.38031,335
829.498657,310
829.617004,338
829.735413,310
829.85376,333
829.972107,320
830.090515,314
830.208862,331
830.327209,311
830.445557,322
830.563904,317
830.682312,308
830.800659,318
830.919006,325
831.037354,297
831.155701,306
831.274048,316
831.392395,327
831.51062,328
831.629028,313
831.747314,318
831.865662,313
831.984009,323
832.102356,312
832.220642,315
832.338928,320
832.457275,307
832.575623,322
832.693909,319
832.812134,306
832.930481,319
833.048828,309
833.167114,312
833.2854,320
833.403687,331
833.521973,317
833.640259,330
833.758545,308
833.876831,313
833.995056,316
834.113281,307
834.231628,327
834.349915,334
834.468201,312
834.586426,314
834.704651,322
834.822998,321
834.941162,321
835.059448,311
835.177673,314
835.295959,321
835.414246,325
835.53241,321
835.650635,310
835.768921,320
835.887146,307
836.005371,321
836.123596,310
836.241821,317
836.360046,328
836.478271,335
836.596497,327
836.714722,317
836.832886,320
836.95105,330
837.069336,317
837.1875,315
837.305725,301
837.423889,308
837.542053,318
837.660339,311
837.778503,319
837.896667,336
838.014832,316
838.132996,317
838.25116,314
838.369385,318
838.487488,328
838.605713,330
838.723877,332
838.84198,317
838.960205,322
839.078308,321
839.196472,323
839.314636,304
839.4328,310
839.550964,318
839.669067,319
839.787231,321
839.905396,313
840.023499,313
840.141602,320
840.259766,315
840.377869,310
840.495972,317
840.614136,331
840.732239,335
840.850342,331
840.968445,324
841.086548,326
841.204651,315
841.322754,307
841.440918,324
841.55896,314
841.677002,307
841.795166,334
841.913208,323
842.031311,316
842.149353,321
842.267456,316
842.385498,313
842.503601,329
842.621643,326
842.739746,318
842.857788,316
842.97583,302
843.093933,312
843.211975,325
843.330017,304
843.44812,303
843.566101,312
843.684204,319
843.802246,322
843.920227,311
844.038269,320
844.156311,316
844.274292,316
844.392395,328
844.510376,316
844.628357,319
844.74646,325
844.864441,326
844.982422,329
845.100403,317
845.218384,321
845.336426,301
845.454468,320
845.572449,296
845.69043,314
845.808411,318
845.926453,310
846.044373,316
846.162354,316
846.280396,317
846.398315,318
846.516296,318
846.634216,313
846.752197,323
846.870178,319
846.988098,318
847.106079,318
847.22406,315
847.34198,314
847.4599,321
847.577881,319
847.695801,308
847.813782,310
847.931641,316
848.049561,301
848.167603,328
848.285461,317
848.403381,324
848.521362,324
848.639221,310
848.75708,321
848.875,329
848.99292,323
849.110901,314
849.22876,325
849.34668,312
849.464539,313
849.582458,311
849.700317,336
849.818176,319
849.936096,313
850.053955,323
850.171875,321
850.289673,306
850.407593,314
850.525452,314
850.643311,313
850.761169,320
850.878967,308
850.996887,320
851.114746,309
851.232544,321
851.350403,308
851.468262,322
851.58606,322
851.703979,315
851.821777,316
851.939636,322
852.057434,322
852.175232,316
852.293091,322
852.410889,315
852.528687,310
852.646545,318
852.764343,314
852.88208,315
852.999939,323
853.117676,315
853.235535,322
853.353271,326
853.471069,324
853.588928,312
853.706604,316
853.824402,305
853.9422,313
854.059998,307
854.177734,297
854.295532,319
854.413269,317
854.531006,321
854.648804,323
854.766541,305
854.884277,326
855.002014,306
855.119751,323
855.237549,313
855.355225,325
855.473022,320
855.590698,325
855.708435,320
855.826172,318
855.943848,331
856.061646,315
856.179321,322
856.296997,323
856.414795,325
856.53241,329
856.650085,306
856.767822,323
856.885559,323
857.003174,317
857.120911,325
857.238586,323
857.356201,316
857.473938,324
857.591614,323
857.709351,304
857.826965,318
857.944641,314
858.062317,318
858.179993,319
858.297668,308
858.415283,306
858.532959,317
858.650574,318
858.768188,312
858.885803,315
859.003479,327
859.121094,325
859.23877,302
859.356384,325
859.473999,319
859.591675,310
859.709229,316
859.826843,316
859.944458,318
860.062012,311
860.179626,317
860.297302,317
860.414856,307
860.532471,324
860.650024,302
860.767639,333
860.885193,312
861.002808,326
861.120361,319
861.237976,330
861.35553,305
861.473022,313
861.590698,321
861.708191,321
861.825745,322
861.943298,319
862.060852,317
862.178406,313
862.295959,321
862.413513,299
862.531006,316
862.64856,326
862.766113,314
862.883667,324
863.00116,311
863.118713,326
863.236206,310
863.353699,309
863.471252,323
863.588745,311
863.706177,316
863.82373,327
863.941162,302
864.058716,314
864.176208,322
864.29364,307
864.411194,296
864.528687,307
864.646118,309
864.763611,311
864.881042,322
864.998535,320
865.116028,315
865.233459,325
865.350891,313
865.468384,316
865.585754,313
865.703308,330
865.820679,316
865.938171,306
866.055542,313
866.173035,316
866.290466,318
866.407837,322
866.52533,309
866.6427,327
866.760071,307
866.877563,294
866.994934,314
867.112305,301
867.229736,308
867.347107,317
867.464539,316
867.58197,309
867.699341,310
867.81665,313
867.934082,317
868.051453,321
868.168823,313
868.286194,323
868.403564,324
868.520935,313
868.638306,308
868.755676,315
868.872986,322
868.990295,311
869.107727,321
869.225037,323
869.342346,317
869.459717,316
869.577026,317
869.694336,323
869.811707,317
869.929016,312
870.046326,306
870.163635,310
870.280945,320
870.398254,330
870.515564,318
870.632812,327
870.750183,326
870.867432,305
870.984741,323
871.102051,315
871.219299,310
871.336609,322
871.453918,313
871.571106,317
871.688416,319
871.805664,327
871.922852,324
872.040222,312
872.157471,318
872.274719,316
872.391968,342
872.509155,325
872.626465,313
872.743652,306
872.860962,311
872.978149,320
873.095337,316
873.212646,308
873.329834,312
873.44696,317
873.564209,327
873.681396,309
873.798645,319
873.915894,325
874.03302,330
874.150208,323
874.267456,314
874.384583,333
874.501831,311
874.618958,308
874.736145,318
874.853333,325
874.970459,325
875.087646,314
875.204834,321
875.32196,307
875.439148,314
875.556274,317
875.673401,321
875.790527,309
875.907715,328
876.024841,323
876.141968,310
876.259094,319
876.376282,317
876.493347,313
876.610474,303
876.7276,311
876.844727,294
876.961853,315
877.078918,316
877.195984,317
877.313171,315
877.430237,305
877.547302,318
877.664368,326
877.781433,316
877.898499,316
878.015625,311
878.13269,329
878.249695,298
878.366821,320
878.483887,307
878.600952,322
878.717957,313
878.834961,319
878.952087,310
879.069092,323
879.186157,318
879.303162,313
879.420227,300
879.537231,318
879.654236,328
879.77124,325
879.888306,321
880.005249,319
880.122314,322
880.239319,332
880.356323,327
880.473328,325
880.590271,314
880.707275,317
880.824341,326
880.941284,319
881.058228,315
881.175232,321
881.292236,313
881.40918,316
881.526123,314
881.643066,314
881.760071,323
881.877014,315
881.993958,314
882.11084,322
882.227783,310
882.344727,318
882.46167,321
882.578613,318
882.695618,315
882.812439,320
882.929382,325
883.046326,325
883.163208,325
883.280151,315
883.397034,323
883.513916,320
883.630798,317
883.747742,322
883.864563,320
883.981506,309
884.098389,309
884.21521,305
884.332153,328
884.448975,311
884.565796,311
884.682678,314
884.7995,305
884.916443,311
885.033264,315
885.150085,308
885.266968,327
885.383789,305
885.500671,325
885.617493,326
885.734314,311
885.851196,321
885.967896,314
886.084717,318
886.201599,320
886.318359,325
886.435181,301
886.552002,326
886.668762,330
886.785645,318
886.902344,317
887.019165,328
887.135925,317
887.252747,307
887.369446,309
887.486267,322
887.603027,307
887.719788,327
887.836548,307
887.953247,311
888.070068,314
888.186829,308
888.303528,317
888.420288,324
888.536987,307
888.653687,311
888.770447,322
888.887146,318
889.003967,308
889.120667,324
889.237305,311
889.354065,320
889.470703,312
889.587463,324
889.704163,310
889.820862,318
889.937561,312
890.054199,317
890.170837,327
890.287598,320
890.404236,316
890.520874,313
890.637634,325
890.754211,312
890.87085,316
890.987549,316
891.104187,312
891.220886,325
891.337463,322
891.454102,321
891.57074,325
891.687378,316
891.804077,311
891.920654,316
892.037231,316
892.15387,319
892.270447,331
892.387085,310
892.503723,323
892.6203,321
892.736877,313
892.853516,320
892.970032,298
893.08667,310
893.203186,312
893.319763,303
893.43634,321
893.552917,326
893.669556,312
893.786011,326
893.902588,324
894.019165,320
894.135681,313
894.252197,320
894.368835,311
894.485291,325
894.601868,322
894.718384,327
894.8349,314
894.951355,316
895.067932,318
895.184448,316
895.300964,314
895.417419,322
895.533936,307
895.650452,311
895.766907,320
895.883423,319
895.999878,316
896.116333,330
896.232849,309
896.349304,318
896.465759,308
896.582214,319
896.698669,319
896.815125,309
896.931641,320
897.048035,330
897.164551,317
897.280884,310
897.397339,319
897.513794,317
897.630249,318
897.746582,314
897.863098,316
897.979431,312
898.095886,321
898.212341,324
898.328674,322
898.445129,313
898.561462,314
898.677795,317
898.794312,312
898.910645,331
899.026978,317
899.143433,305
899.259766,320
899.37616,318
899.492493,318
899.608765,318
899.725159,309
899.841553,307
899.957947,318
900.07428,322
900.190552,312
900.306946,310
900.423157,305
900.53949,308
900.655884,316
900.772156,317
900.888489,330
901.004822,324
901.121033,324
901.237366,315
901.353699,320
901.46991,307
901.586304,319
901.702515,332
901.818787,324
901.93512,320
902.051331,312
902.167603,315
902.283875,303
902.400085,317
902.516418,318
902.632629,314
902.74884,307
902.865112,315
902.981384,313
903.097595,321
903.213867,312
903.330017,318
903.446289,309
903.5625,317
903.67865,322
903.794922,317
903.911072,305
904.027344,317
904.143494,325
904.259705,313
904.375916,302
904.492065,310
904.608215,320
904.724426,334
904.840576,319
904.956726,325
905.072876,307
905.189087,327
905.305176,320
905.421387,320
905.537537,313
905.653687,314
905.769775,323
905.885925,315
906.002014,315
906.118164,325
906.234314,309
906.350403,333
906.466492,312
906.582642,324
906.69873,331
906.814758,315
906.930908,318
907.046936,318
907.163086,305
907.279175,309
907.395264,320
907.511353,323
907.62738,324
907.743408,323
907.859497,324
907.975525,325
908.091553,310
908.207703,325
908.32373,315
908.439758,322
908.555786,316
908.671814,329
908.787842,300
908.90387,315
909.019775,319
909.135864,321
909.251892,307
909.367859,311
909.483826,319
909.599854,327
909.715881,316
909.831848,325
909.947815,326
910.063782,312
910.179749,319
910.295776,311
910.411743,320
910.527649,322
910.643616,317
910.759583,317
910.875488,327
910.991455,318
911.107361,323
911.223267,323
911.339294,300
911.4552,322
911.571106,325
911.687073,311
911.802979,315
911.918823,319
912.034729,325
912.150635,319
912.266602,313
912.382446,320
912.498352,308
912.614197,315
912.730103,311
912.846008,321
792.44574,309
792.56488,354
792.68396,397
792.80304,375
792.92218,332
793.041199,309
793.160339,321
793.279419,342
793.398499,329
793.517578,317
793.636658,322
793.755737,340
793.874817,356
793.993896,327
794.112976,341
794.232056,332
794.351074,323
794.470215,326
794.589233,345
794.708313,325
794.827393,329
794.946411,337
795.065552,330
795.18457,325
795.303589,346
795.422668,306
795.541687,340
795.660767,331
795.779846,331
795.898865,326
796.017883,332
796.136963,319
796.255981,335
796.375061,325
796.49408,326
796.613037,332
796.732117,323
796.851135,328
796.970154,331
797.089233,336
797.208191,329
797.327271,342
797.446228,339
797.565186,341
797.684265,320
797.803223,331
797.922241,335
798.04126,337
798.160278,340
798.279297,327
798.398315,331
798.517273,333
798.636292,331
798.75531,313
798.874268,334
798.993286,327
799.112244,330
799.231323,321
799.350281,336
799.469238,329
799.588257,331
799.707153,349
799.826111,339
799.945129,339
800.064087,330
800.183044,329
800.302063,316
800.421021,333
800.539978,340
800.658936,322
800.777893,352
800.896912,329
801.015747,337
801.134705,325
801.253723,331
801.37262,323
801.491638,335
801.610535,337
801.729492,329
801.84845,329
801.967407,330
802.086243,334
802.205261,323
802.324158,338
802.443115,326
802.562073,323
802.680969,336
802.799927,330
802.918762,333
803.037659,331
803.156677,345
803.275574,337
803.39447,329
803.513428,327
803.632263,333
803.751221,323
803.870117,332
803.989014,334
804.107971,330
804.226746,327
804.345642,331
804.4646,343
804.583496,334
804.702393,321
804.821228,338
804.940125,319
805.059021,333
805.177917,331
805.296814,334
805.415649,338
805.534546,328
805.653442,342
805.772278,327
805.891113,331
806.01001,340
806.128906,319
806.247742,348
806.366577,331
806.485413,332
806.604309,323
806.723145,345
806.84198,338
806.960876,320
807.079712,337
807.198486,345
807.317383,341
807.436218,358
807.554993,326
807.673889,328
807.792725,328
807.91156,332
808.030396,331
808.14917,344
808.268005,323
808.386841,328
808.505676,336
808.624451,334
808.743286,342
808.862122,333
808.980896,309
809.099731,338
809.218506,333
809.337341,335
809.456116,332
809.57489,337
809.693726,338
809.8125,318
809.931274,334
810.050049,333
810.168884,329
810.287659,345
810.406372,326
810.525269,333
810.643982,330
810.762756,334
810.881531,331
811.000305,328
811.11908,330
811.237854,328
811.356567,329
811.475403,339
811.594116,335
811.71283,333
811.831604,324
811.950378,340
812.069153,313
812.187927,346
812.30658,323
812.425415,344
812.544128,333
812.662781,318
812.781616,325
812.900269,328
813.019043,328
813.137756,330
813.256531,328
813.375244,337
813.493896,322
813.612671,333
813.731384,326
813.850037,341
813.96875,339
814.087524,325
814.206238,337
814.324951,337
814.443604,331
814.562256,341
814.68103,325
814.799683,351
814.918335,321
815.037109,338
815.155762,330
815.274475,337
815.393188,346
815.511841,328
815.630554,347
815.749146,328
815.867859,340
815.986572,333
816.105164,319
816.223877,339
816.342529,334
816.461182,355
816.579895,324
816.698486,315
816.817139,331
816.935791,353
817.054504,336
817.173096,339
817.291748,326
817.4104,326
817.529053,347
817.647644,335
817.766235,332
817.884949,329
818.00354,319
818.122192,339
818.240845,324
818.359436,326
818.478088,330
818.59668,317
818.715271,316
818.833923,333
818.952515,335
819.071106,328
819.189758,315
819.30835,342
819.426941,308
819.545532,328
819.664124,328
819.782715,305
819.901306,318
820.019897,318
820.138489,327
820.25708,312
820.375671,322
820.494202,327
820.612732,318
820.731384,314
820.849915,326
820.968506,324
821.087097,326
821.205627,322
821.324158,301
821.442749,310
821.561279,320
821.679871,309
821.798401,325
821.916931,319
822.035461,305
822.154053,324
822.272583,325
822.391174,325
822.509583,315
822.628174,316
822.746704,324
822.865234,316
822.983765,316
823.102295,327
823.220825,318
823.339294,320
823.457825,318
823.576355,321
823.694824,317
823.813354,319
823.931885,323
824.050354,320
824.168884,307
824.287354,313
824.405823,307
824.524353,321
824.642822,314
824.761353,319
824.879822,321
824.998291,329
825.116699,306
825.235291,322
825.353699,321
825.472168,315
825.590637,329
825.709106,329
825.827576,309
825.946045,317
826.064453,310
826.182983,319
826.301392,317
826.4198,324
826.53833,327
826.656738,295
826.775208,310
826.893677,328
827.012024,316
827.130493,315
827.248962,313
827.36731,322
827.485779,307
827.604248,319
827.722595,307
827.841064,310
827.959412,321
828.077942,306
828.196289,321
828.314636,319
828.433105,306
828.551514,314
828.669861,315
828.78833,310
828.906677,321
829.025085,307
829.143433,320
829.261841,317
829.38031,319
829.498657,305
829.617004,316
829.735413,320
829.85376,319
829.972107,329
830.090515,321
830.208862,325
830.327209,320
830.445557,317
830.563904,327
830.682312,319
830.800659,325
830.919006,327
831.037354,316
831.155701,323
831.274048,325
831.392395,329
831.51062,316
831.629028,314
831.747314,311
831.865662,309
831.984009,313
832.102356,311
832.220642,327
832.338928,309
832.457275,317
832.575623,304
832.693909,313
832.812134,317
832.930481,299
833.048828,313
833.167114,313
833.2854,316
833.403687,317
833.521973,323
833.640259,316
833.758545,321
833.876831,311
833.995056,320
834.113281,313
834.231628,332
834.349915,307
834.468201,311
834.586426,328
834.704651,328
834.822998,318
834.941162,326
835.059448,329
835.177673,324
835.295959,322
835.414246,320
835.53241,323
835.650635,324
835.768921,306
835.887146,327
836.005371,313
836.123596,317
836.241821,312
836.360046,325
836.478271,308
836.596497,318
836.714722,313
836.832886,312
836.95105,325
837.069336,300
837.1875,317
837.305725,322
837.423889,312
837.542053,310
837.660339,303
837.778503,329
837.896667,328
838.014832,330
838.132996,305
838.25116,333
838.369385,313
838.487488,319
838.605713,321
838.723877,325
838.84198,306
838.960205,317
839.078308,316
839.196472,315
839.314636,317
839.4328,317
839.550964,316
839.669067,324
839.787231,313
839.905396,317
840.023499,314
840.141602,330
840.259766,321
840.377869,324
840.495972,311
840.614136,344
840.732239,297
840.850342,322
840.968445,303
841.086548,317
841.204651,328
841.322754,323
841.440918,315
841.55896,310
841.677002,310
841.795166,325
841.913208,317
842.031311,328
842.149353,329
842.267456,326
842.385498,323
842.503601,324
842.621643,308
842.739746,317
842.857788,315
842.97583,325
843.093933,309
843.211975,320
843.330017,317
843.44812,318
843.566101,322
843.684204,310
843.802246,312
843.920227,314
844.038269,310
844.156311,314
844.274292,312
844.392395,315
844.510376,312
844.628357,319
844.74646,330
844.864441,322
844.982422,314
845.100403,308
845.218384,311
845.336426,319
845.454468,323
845.572449,313
845.69043,312
845.808411,309
845.926453,315
846.044373,327
846.162354,311
846.280396,314
846.398315,313
846.516296,322
846.634216,310
846.752197,320
846.870178,319
846.988098,327
847.106079,310
847.22406,337
847.34198,308
847.4599,319
847.577881,310
847.695801,313
847.813782,319
847.931641,325
848.049561,292
848.167603,322
848.285461,301
848.403381,317
848.521362,294
848.639221,321
848.75708,307
848.875,323
848.99292,315
849.110901,308
849.22876,327
849.34668,321
849.464539,326
849.582458,322
849.700317,310
849.818176,326
849.936096,309
850.053955,320
850.171875,320
850.289673,320
850.407593,309
850.525452,308
850.643311,315
850.761169,326
850.878967,306
850.996887,317
851.114746,310
851.232544,309
851.350403,317
851.468262,313
851.58606,318
851.703979,315
851.821777,318
851.939636,316
852.057434,306
852.175232,317
852.293091,310
852.410889,310
852.528687,310
852.646545,319
852.764343,315
852.88208,320
852.999939,322
853.117676,320
853.235535,313
853.353271,314
853.471069,304
853.588928,314
853.706604,309
853.824402,317
853.9422,319
854.059998,313
854.177734,314
854.295532,307
854.413269,312
854.531006,317
854.648804,316
854.766541,324
854.884277,307
855.002014,315
855.119751,307
855.237549,319
855.355225,324
855.473022,329
855.590698,307
855.708435,311
855.826172,317
855.943848,327
856.061646,296
856.179321,332
856.296997,306
856.414795,310
856.53241,324
856.650085,317
856.767822,313
856.885559,318
857.003174,311
857.120911,321
857.238586,310
857.356201,322
857.473938,313
857.591614,331
857.709351,329
857.826965,320
857.944641,306
858.062317,327
858.179993,311
858.297668,314
858.415283,315
858.532959,297
858.650574,330
858.768188,312
858.885803,317
859.003479,324
859.121094,312
859.23877,328
859.356384,309
859.473999,312
859.591675,307
859.709229,334
859.826843,317
859.944458,325
860.062012,312
860.179626,330
860.297302,301
860.414856,317
860.532471,313
860.650024,321
860.767639,322
860.885193,320
861.002808,306
861.120361,323
861.237976,314
861.35553,333
861.473022,320
861.590698,311
861.708191,320
861.825745,323
861.943298,313
862.060852,306
862.178406,321
862.295959,331
862.413513,311
862.531006,310
862.64856,313
862.766113,323
862.883667,305
863.00116,324
863.118713,307
863.236206,317
863.353699,308
863.471252,312
863.588745,311
863.706177,323
863.82373,304
863.941162,317
864.058716,321
864.176208,328
864.29364,303
864.411194,325
864.528687,301
864.646118,305
864.763611,307
864.881042,314
864.998535,307
865.116028,316
865.233459,313
865.350891,321
865.468384,315
865.585754,310
865.703308,311
865.820679,319
865.938171,307
866.055542,331
866.173035,322
866.290466,324
866.407837,300
866.52533,314
866.6427,317
866.760071,321
866.877563,320
866.994934,311
867.112305,322
867.229736,301
867.347107,301
867.464539,321
867.58197,317
867.699341,329
867.81665,315
867.934082,308
868.051453,327
868.168823,311
868.286194,297
868.403564,322
868.520935,314
868.638306,329
868.755676,318
868.872986,322
868.990295,316
869.107727,317
869.225037,317
869.342346,312
869.459717,316
869.577026,324
869.694336,311
869.811707,320
869.929016,317
870.046326,323
870.163635,293
870.280945,322
870.398254,310
870.515564,310
870.632812,300
870.750183,325
870.867432,319
870.984741,314
871.102051,305
871.219299,320
871.336609,321
871.453918,317
871.571106,298
871.688416,317
871.805664,325
871.922852,315
872.040222,305
872.157471,319
872.274719,315
872.391968,307
872.509155,311
872.626465,316
872.743652,310
872.860962,316
872.978149,316
873.095337,332
873.212646,308
873.329834,320
873.44696,307
873.564209,316
873.681396,303
873.798645,322
873.915894,297
874.03302,314
874.150208,318
874.267456,319
874.384583,295
874.501831,318
874.618958,316
874.736145,327
874.853333,314
874.970459,322
875.087646,316
875.204834,323
875.32196,324
875.439148,318
875.556274,307
875.673401,307
875.790527,317
875.907715,321
876.024841,322
876.141968,314
876.259094,320
876.376282,321
876.493347,306
876.610474,307
876.7276,311
876.844727,315
876.961853,314
877.078918,307
877.195984,298
877.313171,315
877.430237,320
877.547302,323
877.664368,316
877.781433,319
877.898499,316
878.015625,326
878.13269,314
878.249695,330
878.366821,317
878.483887,322
878.600952,320
878.717957,303
878.834961,312
878.952087,310
879.069092,319
879.186157,321
879.303162,332
879.420227,323
879.537231,298
879.654236,318
879.77124,308
879.888306,335
880.005249,317
880.122314,319
880.239319,312
880.356323,317
880.473328,314
880.590271,321
880.707275,316
880.824341,313
880.941284,312
881.058228,302
881.175232,302
881.292236,323
881.40918,306
881.526123,315
881.643066,317
881.760071,322
881.877014,309
881.993958,314
882.11084,311
882.227783,317
882.344727,308
882.46167,316
882.578613,308
882.695618,330
882.812439,308
882.929382,304
883.046326,317
883.163208,308
883.280151,315
883.397034,317
883.513916,319
883.630798,304
883.747742,313
883.864563,313
883.981506,307
884.098389,306
884.21521,310
884.332153,321
884.448975,318
884.565796,325
884.682678,312
884.7995,318
884.916443,303
885.033264,314
885.150085,307
885.266968,307
885.383789,319
885.500671,321
885.617493,317
885.734314,328
885.851196,312
885.967896,316
886.084717,309
886.201599,326
886.318359,305
886.435181,312
886.552002,312
886.668762,316
886.785645,312
886.902344,320
887.019165,316
887.135925,324
887.252747,303
887.369446,321
887.486267,302
887.603027,322
887.719788,316
887.836548,303
887.953247,312
888.070068,298
888.186829,308
888.303528,327
888.420288,305
888.536987,321
888.653687,318
888.770447,318
888.887146,324
889.003967,321
889.120667,304
889.237305,306
889.354065,304
889.470703,315
889.587463,306
889.704163,315
889.820862,306
889.937561,321
890.054199,299
890.170837,320
890.287598,313
890.404236,309
890.520874,326
890.637634,327
890.754211,322
890.87085,317
890.987549,304
891.104187,319
891.220886,320
891.337463,310
891.454102,302
891.57074,321
891.687378,324
891.804077,314
891.920654,302
892.037231,324
892.15387,300
892.270447,316
892.387085,324
892.503723,319
892.6203,313
892.736877,322
892.853516,328
892.970032,310
893.08667,309
893.203186,313
893.319763,308
893.43634,328
893.552917,310
893.669556,327
893.786011,323
893.902588,317
894.019165,304
894.135681,322
894.252197,311
894.368835,315
894.485291,326
894.601868,312
894.718384,319
894.8349,312
894.951355,327
895.067932,315
895.184448,312
895.300964,316
895.417419,317
895.533936,316
895.650452,318
895.766907,317
895.883423,320
895.999878,321
896.116333,309
896.232849,328
896.349304,310
896.465759,311
896.582214,307
896.698669,323
896.815125,310
896.931641,323
897.048035,314
897.164551,330
897.280884,316
897.397339,328
897.513794,318
897.630249,320
897.746582,311
897.863098,318
897.979431,308
898.095886,315
898.212341,314
898.328674,311
898.445129,303
898.561462,310
898.677795,320
898.794312,312
898.910645,312
899.026978,323
899.143433,318
899.259766,331
899.37616,311
899.492493,320
899.608765,307
899.725159,309
899.841553,311
899.957947,319
900.07428,311
900.190552,313
900.306946,316
900.423157,314
900.53949,323
900.655884,318
900.772156,321
900.888489,309
901.004822,315
901.121033,318
901.237366,325
901.353699,306
901.46991,316
901.586304,308
901.702515,315
901.818787,317
901.93512,316
902.051331,312
902.167603,315
902.283875,319
902.400085,312
902.516418,334
902.632629,319
902.74884,325
902.865112,320
902.981384,312
903.097595,318
903.213867,322
903.330017,319
903.446289,320
903.5625,307
903.67865,317
903.794922,309
903.911072,319
904.027344,319
904.143494,308
904.259705,315
904.375916,328
904.492065,311
904.608215,321
904.724426,309
904.840576,323
904.956726,317
905.072876,320
905.189087,311
905.305176,323
905.421387,328
905.537537,323
905.653687,317
905.769775,322
905.885925,333
906.002014,304
906.118164,304
906.234314,327
906.350403,307
906.466492,328
906.582642,312
906.69873,314
906.814758,305
906.930908,336
907.046936,319
907.163086,321
907.279175,319
907.395264,306
907.511353,313
907.62738,322
907.743408,317
907.859497,313
907.975525,325
908.091553,314
908.207703,321
908.32373,323
908.439758,318
908.555786,316
908.671814,320
908.787842,313
908.90387,325
909.019775,314
909.135864,333
909.251892,321
909.367859,312
909.483826,312
909.599854,319
909.715881,321
909.831848,318
909.947815,321
910.063782,328
910.179749,321
910.295776,321
910.411743,322
910.527649,312
910.643616,317
910.759583,311
910.875488,324
910.991455,316
911.107361,319
911.223267,315
911.339294,316
911.4552,312
911.571106,336
911.687073,311
911.802979,313
911.918823,313
912.034729,305
912.150635,292
912.266602,307
912.382446,312
912.498352,320
912.614197,316
912.730103,324
912.846008,310
