792.44574,317
792.56488,338
792.68396,403
792.80304,383
792.92218,332
793.041199,331
793.160339,314
793.279419,346
793.398499,326
793.517578,322
793.636658,313
793.755737,338
793.874817,353
793.993896,340
794.112976,370
794.232056,316
794.351074,331
794.470215,324
794.589233,332
794.708313,341
794.827393,315
794.946411,334
795.065552,329
795.18457,335
795.303589,327
795.422668,344
795.541687,323
795.660767,307
795.779846,338
795.898865,325
796.017883,344
796.136963,326
796.255981,337
796.375061,327
796.49408,327
796.613037,333
796.732117,331
796.851135,332
796.970154,326
797.089233,337
797.208191,327
797.327271,326
797.446228,330
797.565186,319
797.684265,339
797.803223,339
797.922241,325
798.04126,337
798.160278,329
798.279297,346
798.398315,328
798.517273,323
798.636292,326
798.75531,343
798.874268,331
798.993286,329
799.112244,332
799.231323,331
799.350281,336
799.469238,339
799.588257,319
799.707153,330
799.826111,338
799.945129,334
800.064087,331
800.183044,334
800.302063,332
800.421021,322
800.539978,329
800.658936,318
800.777893,332
800.896912,327
801.015747,332
801.134705,324
801.253723,333
801.37262,320
801.491638,327
801.610535,320
801.729492,341
801.84845,330
801.967407,326
802.086243,318
802.205261,340
802.324158,316
802.443115,340
802.562073,336
802.680969,332
802.799927,337
802.918762,324
803.037659,326
803.156677,319
803.275574,341
803.39447,329
803.513428,330
803.632263,332
803.751221,332
803.870117,333
803.989014,328
804.107971,323
804.226746,343
804.345642,328
804.4646,332
804.583496,327
804.702393,329
804.821228,332
804.940125,341
805.059021,349
805.177917,324
805.296814,315
805.415649,325
805.534546,339
805.653442,319
805.772278,328
805.891113,345
806.01001,340
806.128906,348
806.247742,329
806.366577,328
806.485413,339
806.604309,318
806.723145,327
806.84198,328
806.960876,330
807.079712,322
807.198486,334
807.317383,337
807.436218,333
807.554993,321
807.673889,338
807.792725,334
807.91156,323
808.030396,344
808.14917,329
808.268005,337
808.386841,321
808.505676,337
808.624451,332
808.743286,337
808.862122,340
808.980896,333
809.099731,333
809.218506,340
809.337341,331
809.456116,329
809.57489,333
809.693726,325
809.8125,340
809.931274,336
810.050049,319
810.168884,341
810.287659,325
810.406372,337
810.525269,332
810.643982,329
810.762756,336
810.881531,321
811.000305,338
811.11908,328
811.237854,340
811.356567,336
811.475403,330
811.594116,345
811.71283,336
811.831604,316
811.950378,336
812.069153,335
812.187927,335
812.30658,329
812.425415,336
812.544128,336
812.662781,331
812.781616,325
812.900269,329
813.019043,338
813.137756,332
813.256531,344
813.375244,349
813.493896,318
813.612671,338
813.731384,345
813.850037,331
813.96875,339
814.087524,334
814.206238,339
814.324951,327
814.443604,338
814.562256,330
814.68103,338
814.799683,326
814.918335,324
815.037109,334
815.155762,340
815.274475,327
815.393188,332
815.511841,332
815.630554,323
815.749146,333
815.867859,323
815.986572,342
816.105164,337
816.223877,331
816.342529,330
816.461182,333
816.579895,331
816.698486,329
816.817139,337
816.935791,324
817.054504,339
817.173096,326
817.291748,321
817.4104,318
817.529053,336
817.647644,331
817.766235,338
817.884949,336
818.00354,327
818.122192,328
818.240845,319
818.359436,328
818.478088,338
818.59668,323
818.715271,321
818.833923,323
818.952515,330
819.071106,337
819.189758,313
819.30835,337
819.426941,320
819.545532,322
819.664124,331
819.782715,322
819.901306,312
820.019897,317
820.138489,325
820.25708,330
820.375671,325
820.494202,318
820.612732,313
820.731384,325
820.849915,314
820.968506,316
821.087097,311
821.205627,330
821.324158,317
821.442749,325
821.561279,321
821.679871,318
821.798401,323
821.916931,323
822.035461,312
822.154053,307
822.272583,311
822.391174,308
822.509583,316
822.628174,315
822.746704,322
822.865234,325
822.983765,325
823.102295,325
823.220825,322
823.339294,316
823.457825,321
823.576355,326
823.694824,316
823.813354,318
823.931885,315
824.050354,316
824.168884,322
824.287354,335
824.405823,326
824.524353,318
824.642822,331
824.761353,321
824.879822,330
824.998291,326
825.116699,332
825.235291,314
825.353699,315
825.472168,330
825.590637,329
825.709106,323
825.827576,324
825.946045,318
826.064453,306
826.182983,330
826.301392,321
826.4198,319
826.53833,316
826.656738,315
826.775208,316
826.893677,315
827.012024,305
827.130493,337
827.248962,315
827.36731,328
827.485779,304
827.604248,308
827.722595,319
827.841064,318
827.959412,313
828.077942,330
828.196289,318
828.314636,320
828.433105,314
828.551514,335
828.669861,327
828.78833,310
828.906677,320
829.025085,317
829.143433,319
829.261841,322
829.38031,319
829.498657,320
829.617004,324
829.735413,313
829.85376,318
829.972107,319
830.090515,326
830.208862,327
830.327209,332
830.445557,312
830.563904,304
830.682312,317
830.800659,326
830.919006,322
831.037354,319
831.155701,324
831.274048,307
831.392395,319
831.51062,319
831.629028,309
831.747314,313
831.865662,311
831.984009,311
832.102356,328
832.220642,294
832.338928,336
832.457275,313
832.575623,322
832.693909,312
832.812134,324
832.930481,310
833.048828,323
833.167114,318
833.2854,327
833.403687,320
833.521973,326
833.640259,304
833.758545,314
833.876831,315
833.995056,315
834.113281,316
834.231628,321
834.349915,299
834.468201,313
834.586426,309
834.704651,306
834.822998,326
834.941162,332
835.059448,317
835.177673,316
835.295959,323
835.414246,315
835.53241,318
835.650635,334
835.768921,312
835.887146,326
836.005371,306
836.123596,322
836.241821,320
836.360046,320
836.478271,312
836.596497,333
836.714722,315
836.832886,320
836.95105,317
837.069336,311
837.1875,331
837.305725,329
837.423889,321
837.542053,315
837.660339,318
837.778503,315
837.896667,319
838.014832,302
838.132996,302
838.25116,313
838.369385,315
838.487488,321
838.605713,325
838.723877,313
838.84198,324
838.960205,322
839.078308,323
839.196472,315
839.314636,310
839.4328,311
839.550964,317
839.669067,318
839.787231,319
839.905396,318
840.023499,310
840.141602,315
840.259766,310
840.377869,316
840.495972,310
840.614136,329
840.732239,312
840.850342,328
840.968445,306
841.086548,324
841.204651,319
841.322754,323
841.440918,309
841.55896,323
841.677002,317
841.795166,317
841.913208,321
842.031311,311
842.149353,309
842.267456,307
842.385498,314
842.503601,318
842.621643,322
842.739746,324
842.857788,302
842.97583,315
843.093933,305
843.211975,315
843.330017,314
843.44812,312
843.566101,330
843.684204,323
843.802246,321
843.920227,310
844.038269,300
844.156311,313
844.274292,313
844.392395,315
844.510376,324
844.628357,308
844.74646,318
844.864441,309
844.982422,319
845.100403,306
845.218384,307
845.336426,323
845.454468,317
845.572449,318
845.69043,305
845.808411,315
845.926453,315
846.044373,319
846.162354,320
846.280396,310
846.398315,315
846.516296,321
846.634216,308
846.752197,317
846.870178,323
846.988098,309
847.106079,312
847.22406,313
847.34198,326
847.4599,319
847.577881,319
847.695801,313
847.813782,309
847.931641,334
848.049561,307
848.167603,322
848.285461,313
848.403381,312
848.521362,323
848.639221,313
848.75708,312
848.875,323
848.99292,302
849.110901,318
849.22876,299
849.34668,328
849.464539,317
849.582458,307
849.700317,311
849.818176,323
849.936096,319
850.053955,314
850.171875,306
850.289673,312
850.407593,306
850.525452,311
850.643311,318
850.761169,320
850.878967,314
850.996887,322
851.114746,312
851.232544,314
851.350403,310
851.468262,330
851.58606,308
851.703979,319
851.821777,314
851.939636,317
852.057434,316
852.175232,318
852.293091,312
852.410889,317
852.528687,325
852.646545,324
852.764343,314
852.88208,325
852.999939,316
853.117676,324
853.235535,314
853.353271,312
853.471069,327
853.588928,320
853.706604,317
853.824402,306
853.9422,329
854.059998,325
854.177734,308
854.295532,322
854.413269,310
854.531006,321
854.648804,308
854.766541,320
854.884277,312
855.002014,323
855.119751,321
855.237549,314
855.355225,316
855.473022,311
855.590698,318
855.708435,314
855.826172,311
855.943848,316
856.061646,316
856.179321,317
856.296997,325
856.414795,312
856.53241,318
856.650085,325
856.767822,317
856.885559,323
857.003174,306
857.120911,324
857.238586,305
857.356201,311
857.473938,319
857.591614,324
857.709351,307
857.826965,315
857.944641,320
858.062317,327
858.179993,316
858.297668,308
858.415283,309
858.532959,322
858.650574,324
858.768188,321
858.885803,304
859.003479,323
859.121094,321
859.23877,325
859.356384,302
859.473999,320
859.591675,305
859.709229,328
859.826843,307
859.944458,322
860.062012,312
860.179626,313
860.297302,318
860.414856,304
860.532471,315
860.650024,322
860.767639,308
860.885193,320
861.002808,315
861.120361,317
861.237976,316
861.35553,316
861.473022,324
861.590698,321
861.708191,314
861.825745,326
861.943298,313
862.060852,321
862.178406,310
862.295959,317
862.413513,305
862.531006,318
862.64856,312
862.766113,316
862.883667,308
863.00116,327
863.118713,310
863.236206,323
863.353699,309
863.471252,319
863.588745,317
863.706177,306
863.82373,312
863.941162,317
864.058716,313
864.176208,322
864.29364,319
864.411194,335
864.528687,315
864.646118,308
864.763611,322
864.881042,334
864.998535,313
865.116028,322
865.233459,297
865.350891,330
865.468384,302
865.585754,303
865.703308,320
865.820679,311
865.938171,320
866.055542,317
866.173035,311
866.290466,331
866.407837,307
866.52533,316
866.6427,315
866.760071,314
866.877563,316
866.994934,309
867.112305,314
867.229736,309
867.347107,313
867.464539,312
867.58197,305
867.699341,318
867.81665,306
867.934082,330
868.051453,312
868.168823,312
868.286194,326
868.403564,321
868.520935,321
868.638306,310
868.755676,308
868.872986,309
868.990295,314
869.107727,334
869.225037,320
869.342346,315
869.459717,324
869.577026,305
869.694336,311
869.811707,331
869.929016,315
870.046326,311
870.163635,296
870.280945,314
870.398254,319
870.515564,328
870.632812,325
870.750183,318
870.867432,326
870.984741,316
871.102051,304
871.219299,320
871.336609,309
871.453918,323
871.571106,312
871.688416,319
871.805664,310
871.922852,304
872.040222,317
872.157471,312
872.274719,305
872.391968,328
872.509155,313
872.626465,313
872.743652,308
872.860962,309
872.978149,317
873.095337,321
873.212646,300
873.329834,329
873.44696,315
873.564209,309
873.681396,317
873.798645,322
873.915894,307
874.03302,321
874.150208,319
874.267456,317
874.384583,304
874.501831,316
874.618958,301
874.736145,299
874.853333,298
874.970459,296
875.087646,319
875.204834,333
875.32196,311
875.439148,310
875.556274,323
875.673401,322
875.790527,318
875.907715,313
876.024841,314
876.141968,322
876.259094,317
876.376282,319
876.493347,308
876.610474,311
876.7276,328
876.844727,313
876.961853,312
877.078918,322
877.195984,308
877.313171,331
877.430237,320
877.547302,317
877.664368,313
877.781433,323
877.898499,315
878.015625,329
878.13269,299
878.249695,325
878.366821,311
878.483887,335
878.600952,324
878.717957,320
878.834961,311
878.952087,313
879.069092,330
879.186157,326
879.303162,305
879.420227,322
879.537231,308
879.654236,330
879.77124,306
879.888306,321
880.005249,317
880.122314,308
880.239319,308
880.356323,320
880.473328,326
880.590271,308
880.707275,315
880.824341,319
880.941284,315
881.058228,330
881.175232,310
881.292236,324
881.40918,316
881.526123,317
881.643066,319
881.760071,320
881.877014,307
881.993958,315
882.11084,309
882.227783,312
882.344727,306
882.46167,320
882.578613,320
882.695618,319
882.812439,305
882.929382,308
883.046326,322
883.163208,321
883.280151,313
883.397034,322
883.513916,315
883.630798,322
883.747742,315
883.864563,325
883.981506,315
884.098389,330
884.21521,319
884.332153,318
884.448975,320
884.565796,319
884.682678,311
884.7995,320
884.916443,309
885.033264,309
885.150085,312
885.266968,317
885.383789,312
885.500671,336
885.617493,317
885.734314,318
885.851196,315
885.967896,322
886.084717,320
886.201599,314
886.318359,323
886.435181,314
886.552002,305
886.668762,322
886.785645,314
886.902344,298
887.019165,318
887.135925,318
887.252747,330
887.369446,318
887.486267,312
887.603027,331
887.719788,309
887.836548,321
887.953247,322
888.070068,326
888.186829,318
888.303528,322
888.420288,314
888.536987,316
888.653687,297
888.770447,321
888.887146,312
889.003967,311
889.120667,311
889.237305,306
889.354065,319
889.470703,318
889.587463,317
889.704163,323
889.820862,310
889.937561,321
890.054199,316
890.170837,314
890.287598,323
890.404236,312
890.520874,325
890.637634,311
890.754211,332
890.87085,330
890.987549,305
891.104187,311
891.220886,311
891.337463,327
891.454102,321
891.57074,322
891.687378,300
891.804077,309
891.920654,320
892.037231,311
892.15387,309
892.270447,319
892.387085,322
892.503723,330
892.6203,320
892.736877,316
892.853516,323
892.970032,329
893.08667,297
893.203186,316
893.319763,308
893.43634,324
893.552917,319
893.669556,317
893.786011,309
893.902588,321
894.019165,320
894.135681,310
894.252197,309
894.368835,320
894.485291,304
894.601868,328
894.718384,320
894.8349,321
894.951355,315
895.067932,320
895.184448,314
895.300964,312
895.417419,312
895.533936,324
895.650452,310
895.766907,321
895.883423,317
895.999878,316
896.116333,317
896.232849,338
896.349304,320
896.465759,319
896.582214,319
896.698669,305
896.815125,314
896.931641,324
897.048035,320
897.164551,321
897.280884,312
897.397339,342
897.513794,311
897.630249,309
897.746582,329
897.863098,322
897.979431,311
898.095886,307
898.212341,315
898.328674,336
898.445129,299
898.561462,311
898.677795,318
898.794312,331
898.910645,316
899.026978,317
899.143433,319
899.259766,304
899.37616,299
899.492493,333
899.608765,312
899.725159,323
899.841553,327
899.957947,312
900.07428,314
900.190552,314
900.306946,323
900.423157,312
900.53949,308
900.655884,326
900.772156,315
900.888489,317
901.004822,318
901.121033,308
901.237366,322
901.353699,337
901.46991,319
901.586304,325
901.702515,321
901.818787,328
901.93512,319
902.051331,322
902.167603,316
902.283875,325
902.400085,314
902.516418,319
902.632629,312
902.74884,311
902.865112,312
902.981384,312
903.097595,315
903.213867,317
903.330017,320
903.446289,315
903.5625,304
903.67865,313
903.794922,320
903.911072,328
904.027344,320
904.143494,327
904.259705,308
904.375916,318
904.492065,315
904.608215,323
904.724426,322
904.840576,322
904.956726,313
905.072876,316
905.189087,326
905.305176,322
905.421387,328
905.537537,313
905.653687,327
905.769775,331
905.885925,320
906.002014,327
906.118164,310
906.234314,320
906.350403,315
906.466492,318
906.582642,323
906.69873,330
906.814758,320
906.930908,339
907.046936,320
907.163086,313
907.279175,314
907.395264,318
907.511353,298
907.62738,317
907.743408,314
907.859497,320
907.975525,313
908.091553,327
908.207703,322
908.32373,317
908.439758,329
908.555786,317
908.671814,322
908.787842,322
908.90387,327
909.019775,321
909.135864,310
909.251892,323
909.367859,317
909.483826,336
909.599854,313
909.715881,320
909.831848,327
909.947815,329
910.063782,300
910.179749,306
910.295776,306
910.411743,317
910.527649,321
910.643616,319
910.759583,302
910.875488,321
910.991455,313
911.107361,334
911.223267,320
911.339294,309
911.4552,303
911.571106,312
911.687073,308
911.802979,328
911.918823,309
912.034729,330
912.150635,326
912.266602,319
912.382446,301
912.498352,308
912.614197,314
912.730103,318
912.846008,317
792.44574,309
792.56488,341
792.68396,398
792.80304,385
792.92218,342
793.041199,307
793.160339,307
793.279419,328
793.398499,341
793.517578,314
793.636658,316
793.755737,327
793.874817,336
793.993896,357
794.112976,345
794.232056,325
794.351074,320
794.470215,338
794.589233,341
794.708313,332
794.827393,338
794.946411,329
795.065552,356
795.18457,337
795.303589,332
795.422668,326
795.541687,341
795.660767,332
795.779846,327
795.898865,331
796.017883,325
796.136963,319
796.255981,324
796.375061,331
796.49408,328
796.613037,314
796.732117,337
796.851135,328
796.970154,342
797.089233,326
797.208191,326
797.327271,338
797.446228,333
797.565186,336
797.684265,338
797.803223,335
797.922241,335
798.04126,318
798.160278,330
798.279297,327
798.398315,337
798.517273,323
798.636292,317
798.75531,334
798.874268,340
798.993286,331
799.112244,327
799.231323,334
799.350281,330
799.469238,333
799.588257,324
799.707153,317
799.826111,332
799.945129,345
800.064087,321
800.183044,322
800.302063,333
800.421021,319
800.539978,321
800.658936,326
800.777893,331
800.896912,324
801.015747,333
801.134705,334
801.253723,346
801.37262,325
801.491638,337
801.610535,330
801.729492,318
801.84845,338
801.967407,332
802.086243,334
802.205261,323
802.324158,322
802.443115,336
802.562073,325
802.680969,344
802.799927,325
802.918762,328
803.037659,337
803.156677,332
803.275574,336
803.39447,323
803.513428,346
803.632263,335
803.751221,336
803.870117,322
803.989014,316
804.107971,331
804.226746,335
804.345642,320
804.4646,306
804.583496,331
804.702393,332
804.821228,338
804.940125,328
805.059021,322
805.177917,330
805.296814,331
805.415649,333
805.534546,322
805.653442,327
805.772278,328
805.891113,344
806.01001,311
806.128906,331
806.247742,346
806.366577,354
806.485413,331
806.604309,344
806.723145,320
806.84198,325
806.960876,347
807.079712,308
807.198486,334
807.317383,320
807.436218,329
807.554993,330
807.673889,341
807.792725,328
807.91156,327
808.030396,336
808.14917,323
808.268005,335
808.386841,327
808.505676,340
808.624451,330
808.743286,329
808.862122,350
808.980896,331
809.099731,335
809.218506,318
809.337341,360
809.456116,343
809.57489,339
809.693726,330
809.8125,330
809.931274,316
810.050049,330
810.168884,335
810.287659,331
810.406372,344
810.525269,339
810.643982,333
810.762756,339
810.881531,313
811.000305,353
811.11908,326
811.237854,345
811.356567,332
811.475403,327
811.594116,334
811.71283,325
811.831604,329
811.950378,346
812.069153,332
812.187927,339
812.30658,324
812.425415,322
812.544128,334
812.662781,327
812.781616,339
812.900269,336
813.019043,317
813.137756,331
813.256531,324
813.375244,337
813.493896,338
813.612671,337
813.731384,327
813.850037,342
813.96875,327
814.087524,331
814.206238,329
814.324951,333
814.443604,333
814.562256,334
814.68103,322
814.799683,328
814.918335,325
815.037109,335
815.155762,326
815.274475,335
815.393188,320
815.511841,319
815.630554,310
815.749146,334
815.867859,338
815.986572,334
816.105164,326
816.223877,318
816.342529,328
816.461182,347
816.579895,317
816.698486,344
816.817139,326
816.935791,340
817.054504,318
817.173096,332
817.291748,337
817.4104,318
817.529053,331
817.647644,323
817.766235,324
817.884949,318
818.00354,329
818.122192,320
818.240845,323
818.359436,329
818.478088,325
818.59668,330
818.715271,318
818.833923,327
818.952515,328
819.071106,311
819.189758,324
819.30835,340
819.426941,333
819.545532,327
819.664124,326
819.782715,324
819.901306,328
820.019897,333
820.138489,331
820.25708,310
820.375671,317
820.494202,323
820.612732,312
820.731384,317
820.849915,328
820.968506,314
821.087097,310
821.205627,315
821.324158,321
821.442749,320
821.561279,314
821.679871,320
821.798401,317
821.916931,311
822.035461,307
822.154053,312
822.272583,314
822.391174,319
822.509583,327
822.628174,329
822.746704,313
822.865234,314
822.983765,315
823.102295,327
823.220825,319
823.339294,316
823.457825,319
823.576355,325
823.694824,309
823.813354,324
823.931885,315
824.050354,316
824.168884,321
824.287354,326
824.405823,323
824.524353,316
824.642822,325
824.761353,326
824.879822,325
824.998291,314
825.116699,303
825.235291,322
825.353699,326
825.472168,322
825.590637,328
825.709106,311
825.827576,316
825.946045,314
826.064453,323
826.182983,310
826.301392,324
826.4198,311
826.53833,328
826.656738,311
826.775208,318
826.893677,326
827.012024,302
827.130493,326
827.248962,320
827.36731,320
827.485779,305
827.604248,332
827.722595,313
827.841064,335
827.959412,311
828.077942,317
828.196289,310
828.314636,317
828.433105,313
828.551514,315
828.669861,322
828.78833,305
828.906677,316
829.025085,328
829.143433,297
829.261841,321
829.38031,318
829.498657,322
829.617004,308
829.735413,321
829.85376,310
829.972107,322
830.090515,309
830.208862,309
830.327209,323
830.445557,309
830.563904,316
830.682312,301
830.800659,321
830.919006,318
831.037354,311
831.155701,312
831.274048,311
831.392395,320
831.51062,313
831.629028,325
831.747314,316
831.865662,306
831.984009,307
832.102356,324
832.220642,317
832.338928,324
832.457275,317
832.575623,324
832.693909,312
832.812134,319
832.930481,323
833.048828,302
833.167114,324
833.2854,314
833.403687,312
833.521973,305
833.640259,320
833.758545,312
833.876831,308
833.995056,321
834.113281,313
834.231628,314
834.349915,310
834.468201,327
834.586426,314
834.704651,317
834.822998,305
834.941162,318
835.059448,316
835.177673,314
835.295959,305
835.414246,326
835.53241,315
835.650635,323
835.768921,322
835.887146,323
836.005371,314
836.123596,320
836.241821,304
836.360046,320
836.478271,314
836.596497,324
836.714722,318
836.832886,308
836.95105,315
837.069336,327
837.1875,303
837.305725,314
837.423889,339
837.542053,308
837.660339,307
837.778503,327
837.896667,319
838.014832,338
838.132996,321
838.25116,312
838.369385,318
838.487488,314
838.605713,323
838.723877,324
838.84198,308
838.960205,322
839.078308,308
839.196472,318
839.314636,311
839.4328,324
839.550964,308
839.669067,326
839.787231,320
839.905396,322
840.023499,318
840.141602,341
840.259766,324
840.377869,322
840.495972,299
840.614136,322
840.732239,313
840.850342,329
840.968445,309
841.086548,312
841.204651,313
841.322754,326
841.440918,317
841.55896,313
841.677002,316
841.795166,312
841.913208,326
842.031311,314
842.149353,313
842.267456,302
842.385498,314
842.503601,308
842.621643,298
842.739746,313
842.857788,315
842.97583,321
843.093933,317
843.211975,316
843.330017,327
843.44812,320
843.566101,301
843.684204,317
843.802246,313
843.920227,309
844.038269,328
844.156311,343
844.274292,314
844.392395,312
844.510376,298
844.628357,328
844.74646,320
844.864441,318
844.982422,301
845.100403,334
845.218384,334
845.336426,321
845.454468,315
845.572449,323
845.69043,309
845.808411,312
845.926453,317
846.044373,302
846.162354,305
846.280396,322
846.398315,315
846.516296,313
846.634216,297
846.752197,317
846.870178,307
846.988098,318
847.106079,318
847.22406,323
847.34198,312
847.4599,320
847.577881,304
847.695801,320
847.813782,316
847.931641,306
848.049561,307
848.167603,326
848.285461,320
848.403381,322
848.521362,306
848.639221,331
848.75708,302
848.875,326
848.99292,299
849.110901,314
849.22876,325
849.34668,303
849.464539,298
849.582458,322
849.700317,321
849.818176,317
849.936096,306
850.053955,316
850.171875,308
850.289673,311
850.407593,311
850.525452,320
850.643311,313
850.761169,318
850.878967,304
850.996887,316
851.114746,306
851.232544,322
851.350403,310
851.468262,320
851.58606,310
851.703979,319
851.821777,327
851.939636,305
852.057434,326
852.175232,320
852.293091,303
852.410889,319
852.528687,325
852.646545,317
852.764343,302
852.88208,321
852.999939,315
853.117676,305
853.235535,303
853.353271,307
853.471069,304
853.588928,319
853.706604,309
853.824402,307
853.9422,306
854.059998,314
854.177734,312
854.295532,317
854.413269,317
854.531006,322
854.648804,309
854.766541,325
854.884277,298
855.002014,325
855.119751,309
855.237549,329
855.355225,315
855.473022,311
855.590698,327
855.708435,311
855.826172,304
855.943848,321
856.061646,315
856.179321,305
856.296997,311
856.414795,318
856.53241,313
856.650085,317
856.767822,317
856.885559,313
857.003174,311
857.120911,330
857.238586,322
857.356201,329
857.473938,313
857.591614,321
857.709351,314
857.826965,320
857.944641,333
858.062317,328
858.179993,316
858.297668,318
858.415283,319
858.532959,325
858.650574,304
858.768188,313
858.885803,321
859.003479,325
859.121094,322
859.23877,327
859.356384,322
859.473999,313
859.591675,320
859.709229,306
859.826843,318
859.944458,304
860.062012,313
860.179626,308
860.297302,310
860.414856,318
860.532471,317
860.650024,314
860.767639,310
860.885193,320
861.002808,321
861.120361,316
861.237976,311
861.35553,324
861.473022,319
861.590698,317
861.708191,308
861.825745,315
861.943298,310
862.060852,333
862.178406,326
862.295959,309
862.413513,307
862.531006,319
862.64856,303
862.766113,317
862.883667,317
863.00116,321
863.118713,326
863.236206,331
863.353699,309
863.471252,316
863.588745,308
863.706177,319
863.82373,318
863.941162,314
864.058716,316
864.176208,320
864.29364,305
864.411194,330
864.528687,321
864.646118,309
864.763611,319
864.881042,308
864.998535,318
865.116028,321
865.233459,303
865.350891,318
865.468384,294
865.585754,316
865.703308,322
865.820679,313
865.938171,309
866.055542,315
866.173035,321
866.290466,321
866.407837,300
866.52533,316
866.6427,299
866.760071,324
866.877563,310
866.994934,324
867.112305,299
867.229736,316
867.347107,301
867.464539,330
867.58197,331
867.699341,313
867.81665,295
867.934082,322
868.051453,307
868.168823,324
868.286194,307
868.403564,310
868.520935,318
868.638306,319
868.755676,322
868.872986,316
868.990295,306
869.107727,313
869.225037,321
869.342346,322
869.459717,292
869.577026,321
869.694336,326
869.811707,308
869.929016,291
870.046326,318
870.163635,305
870.280945,317
870.398254,328
870.515564,310
870.632812,316
870.750183,317
870.867432,305
870.984741,303
871.102051,316
871.219299,313
871.336609,306
871.453918,315
871.571106,307
871.688416,318
871.805664,313
871.922852,313
872.040222,324
872.157471,317
872.274719,304
872.391968,314
872.509155,288
872.626465,317
872.743652,319
872.860962,324
872.978149,301
873.095337,320
873.212646,315
873.329834,306
873.44696,302
873.564209,337
873.681396,310
873.798645,316
873.915894,310
874.03302,322
874.150208,306
874.267456,320
874.384583,301
874.501831,315
874.618958,319
874.736145,315
874.853333,303
874.970459,312
875.087646,313
875.204834,309
875.32196,318
875.439148,327
875.556274,316
875.673401,325
875.790527,308
875.907715,313
876.024841,306
876.141968,314
876.259094,312
876.376282,311
876.493347,309
876.610474,313
876.7276,296
876.844727,324
876.961853,314
877.078918,321
877.195984,317
877.313171,320
877.430237,317
877.547302,307
877.664368,324
877.781433,312
877.898499,319
878.015625,314
878.13269,311
878.249695,312
878.366821,314
878.483887,314
878.600952,317
878.717957,309
878.834961,319
878.952087,327
879.069092,310
879.186157,310
879.303162,314
879.420227,315
879.537231,316
879.654236,306
879.77124,307
879.888306,314
880.005249,310
880.122314,306
880.239319,316
880.356323,309
880.473328,313
880.590271,319
880.707275,308
880.824341,316
880.941284,306
881.058228,311
881.175232,321
881.292236,315
881.40918,307
881.526123,314
881.643066,307
881.760071,324
881.877014,306
881.993958,324
882.11084,308
882.227783,307
882.344727,315
882.46167,319
882.578613,314
882.695618,310
882.812439,307
882.929382,322
883.046326,310
883.163208,327
883.280151,314
883.397034,316
883.513916,308
883.630798,317
883.747742,315
883.864563,316
883.981506,312
884.098389,323
884.21521,308
884.332153,308
884.448975,318
884.565796,321
884.682678,314
884.7995,318
884.916443,312
885.033264,322
885.150085,310
885.266968,325
885.383789,315
885.500671,329
885.617493,327
885.734314,317
885.851196,318
885.967896,308
886.084717,315
886.201599,324
886.318359,320
886.435181,322
886.552002,324
886.668762,315
886.785645,320
886.902344,317
887.019165,316
887.135925,324
887.252747,316
887.369446,324
887.486267,315
887.603027,321
887.719788,316
887.836548,330
887.953247,308
888.070068,320
888.186829,308
888.303528,309
888.420288,307
888.536987,312
888.653687,307
888.770447,328
888.887146,310
889.003967,317
889.120667,302
889.237305,307
889.354065,312
889.470703,319
889.587463,320
889.704163,322
889.820862,313
889.937561,317
890.054199,313
890.170837,321
890.287598,303
890.404236,321
890.520874,319
890.637634,318
890.754211,315
890.87085,321
890.987549,314
891.104187,311
891.220886,303
891.337463,315
891.454102,306
891.57074,312
891.687378,301
891.804077,320
891.920654,312
892.037231,323
892.15387,310
892.270447,316
892.387085,325
892.503723,319
892.6203,323
892.736877,315
892.853516,317
892.970032,303
893.08667,309
893.203186,328
893.319763,315
893.43634,318
893.552917,313
893.669556,321
893.786011,318
893.902588,315
894.019165,319
894.135681,318
894.252197,314
894.368835,316
894.485291,314
894.601868,300
894.718384,317
894.8349,321
894.951355,306
895.067932,317
895.184448,308
895.300964,307
895.417419,320
895.533936,320
895.650452,314
895.766907,326
895.883423,306
895.999878,323
896.116333,308
896.232849,308
896.349304,317
896.465759,311
896.582214,320
896.698669,329
896.815125,312
896.931641,329
897.048035,319
897.164551,321
897.280884,301
897.397339,314
897.513794,318
897.630249,324
897.746582,313
897.863098,321
897.979431,318
898.095886,323
898.212341,301
898.328674,310
898.445129,319
898.561462,314
898.677795,315
898.794312,314
898.910645,314
899.026978,315
899.143433,316
899.259766,320
899.37616,306
899.492493,334
899.608765,299
899.725159,312
899.841553,307
899.957947,326
900.07428,309
900.190552,311
900.306946,312
900.423157,330
900.53949,315
900.655884,315
900.772156,302
900.888489,320
901.004822,320
901.121033,306
901.237366,320
901.353699,317
901.46991,308
901.586304,321
901.702515,307
901.818787,330
901.93512,319
902.051331,294
902.167603,305
902.283875,322
902.400085,307
902.516418,327
902.632629,320
902.74884,320
902.865112,309
902.981384,321
903.097595,317
903.213867,309
903.330017,316
903.446289,310
903.5625,306
903.67865,319
903.794922,313
903.911072,323
904.027344,306
904.143494,320
904.259705,303
904.375916,317
904.492065,324
904.608215,326
904.724426,315
904.840576,324
904.956726,306
905.072876,310
905.189087,305
905.305176,311
905.421387,325
905.537537,314
905.653687,304
905.769775,312
905.885925,318
906.002014,316
906.118164,309
906.234314,317
906.350403,316
906.466492,319
906.582642,312
906.69873,323
906.814758,325
906.930908,312
907.046936,309
907.163086,330
907.279175,309
907.395264,320
907.511353,316
907.62738,327
907.743408,307
907.859497,327
907.975525,304
908.091553,320
908.207703,308
908.32373,329
908.439758,306
908.555786,315
908.671814,324
908.787842,320
908.90387,300
909.019775,310
909.135864,304
909.251892,314
909.367859,296
909.483826,316
909.599854,307
909.715881,313
909.831848,315
909.947815,322
910.063782,309
910.179749,329
910.295776,313
910.411743,314
910.527649,318
910.643616,323
910.759583,314
910.875488,329
910.991455,309
911.107361,330
911.223267,315
911.339294,323
911.4552,313
911.571106,311
911.687073,300
911.802979,316
911.918823,315
912.034729,324
912.150635,304
912.266602,328
912.382446,309
912.498352,314
912.614197,308
912.730103,310
912.846008,304
792.44574,313
792.56488,335
792.68396,410
792.80304,380
792.92218,345
793.041199,314
793.160339,331
793.279419,337
793.398499,327
793.517578,318
793.636658,327
793.755737,331
793.874817,358
793.993896,351
794.112976,330
794.232056,330
794.351074,331
794.470215,334
794.589233,322
794.708313,330
794.827393,334
794.946411,333
795.065552,335
795.18457,330
795.303589,341
795.422668,343
795.541687,336
795.660767,332
795.779846,316
795.898865,333
796.017883,329
796.136963,328
796.255981,335
796.375061,333
796.49408,333
796.613037,319
796.732117,319
796.851135,322
796.970154,335
797.089233,332
797.208191,332
797.327271,315
797.446228,331
797.565186,326
797.684265,326
797.803223,346
797.922241,319
798.04126,326
798.160278,322
798.279297,326
798.398315,327
798.517273,332
798.636292,330
798.75531,324
798.874268,332
798.993286,325
799.112244,324
799.231323,328
799.350281,321
799.469238,341
799.588257,319
799.707153,323
799.826111,323
799.945129,319
800.064087,334
800.183044,341
800.302063,332
800.421021,313
800.539978,337
800.658936,318
800.777893,320
800.896912,336
801.015747,332
801.134705,341
801.253723,320
801.37262,343
801.491638,313
801.610535,327
801.729492,317
801.84845,326
801.967407,321
802.086243,342
802.205261,321
802.324158,332
802.443115,330
802.562073,335
802.680969,329
802.799927,338
802.918762,334
803.037659,315
803.156677,331
803.275574,326
803.39447,327
803.513428,318
803.632263,317
803.751221,340
803.870117,336
803.989014,334
804.107971,338
804.226746,334
804.345642,341
804.4646,335
804.583496,330
804.702393,332
804.821228,332
804.940125,338
805.059021,339
805.177917,349
805.296814,335
805.415649,334
805.534546,331
805.653442,337
805.772278,334
805.891113,328
806.01001,342
806.128906,325
806.247742,329
806.366577,327
806.485413,335
806.604309,339
806.723145,318
806.84198,330
806.960876,331
807.079712,330
807.198486,325
807.317383,339
807.436218,329
807.554993,326
807.673889,329
807.792725,338
807.91156,340
808.030396,333
808.14917,327
808.268005,337
808.386841,331
808.505676,323
808.624451,337
808.743286,338
808.862122,329
808.980896,350
809.099731,323
809.218506,328
809.337341,331
809.456116,344
809.57489,341
809.693726,347
809.8125,334
809.931274,338
810.050049,324
810.168884,346
810.287659,340
810.406372,337
810.525269,334
810.643982,361
810.762756,315
810.881531,334
811.000305,320
811.11908,345
811.237854,328
811.356567,329
811.475403,326
811.594116,322
811.71283,343
811.831604,341
811.950378,329
812.069153,332
812.187927,324
812.30658,334
812.425415,335
812.544128,332
812.662781,342
812.781616,335
812.900269,329
813.019043,326
813.137756,338
813.256531,337
813.375244,337
813.493896,325
813.612671,337
813.731384,337
813.850037,328
813.96875,325
814.087524,336
814.206238,320
814.324951,341
814.443604,333
814.562256,325
814.68103,331
814.799683,318
814.918335,330
815.037109,330
815.155762,332
815.274475,338
815.393188,348
815.511841,330
815.630554,328
815.749146,328
815.867859,325
815.986572,328
816.105164,336
816.223877,327
816.342529,330
816.461182,332
816.579895,339
816.698486,312
816.817139,342
816.935791,327
817.054504,325
817.173096,333
817.291748,334
817.4104,332
817.529053,317
817.647644,335
817.766235,341
817.884949,314
818.00354,334
818.122192,309
818.240845,327
818.359436,331
818.478088,327
818.59668,321
818.715271,326
818.833923,324
818.952515,322
819.071106,325
819.189758,323
819.30835,312
819.426941,331
819.545532,327
819.664124,313
819.782715,318
819.901306,320
820.019897,321
820.138489,326
820.25708,314
820.375671,311
820.494202,310
820.612732,327
820.731384,332
820.849915,334
820.968506,315
821.087097,311
821.205627,322
821.324158,334
821.442749,308
821.561279,324
821.679871,307
821.798401,327
821.916931,306
822.035461,316
822.154053,331
822.272583,308
822.391174,320
822.509583,322
822.628174,311
822.746704,322
822.865234,317
822.983765,318
823.102295,317
823.220825,337
823.339294,330
823.457825,316
823.576355,329
823.694824,320
823.813354,319
823.931885,327
824.050354,305
824.168884,329
824.287354,304
824.405823,311
824.524353,323
824.642822,323
824.761353,322
824.879822,317
824.998291,322
825.116699,334
825.235291,305
825.353699,304
825.472168,318
825.590637,329
825.709106,322
825.827576,323
825.946045,302
826.064453,313
826.182983,323
826.301392,313
826.4198,300
826.53833,308
826.656738,312
826.775208,303
826.893677,320
827.012024,333
827.130493,308
827.248962,317
827.36731,328
827.485779,314
827.604248,318
827.722595,327
827.841064,316
827.959412,322
828.077942,334
828.196289,309
828.314636,316
828.433105,309
828.551514,320
828.669861,312
828.78833,313
828.906677,311
829.025085,322
829.143433,333
829.261841,322
829.38031,316
829.498657,330
829.617004,324
829.735413,315
829.85376,314
829.972107,318
830.090515,315
830.208862,319
830.327209,317
830.445557,318
830.563904,318
830.682312,310
830.800659,320
830.919006,312
831.037354,319
831.155701,307
831.274048,309
831.392395,326
831.51062,319
831.629028,319
831.747314,324
831.865662,314
831.984009,320
832.102356,313
832.220642,314
832.338928,320
832.457275,311
832.575623,318
832.693909,303
832.812134,311
832.930481,299
833.048828,309
833.167114,317
833.2854,334
833.403687,324
833.521973,321
833.640259,319
833.758545,320
833.876831,333
833.995056,320
834.113281,326
834.231628,321
834.349915,320
834.468201,313
834.586426,308
834.704651,325
834.822998,311
834.941162,321
835.059448,322
835.177673,318
835.295959,307
835.414246,323
835.53241,319
835.650635,306
835.768921,312
835.887146,307
836.005371,326
836.123596,306
836.241821,325
836.360046,308
836.478271,328
836.596497,322
836.714722,316
836.832886,314
836.95105,320
837.069336,313
837.1875,328
837.305725,320
837.423889,319
837.542053,325
837.660339,321
837.778503,318
837.896667,312
838.014832,319
838.132996,322
838.25116,304
838.369385,329
838.487488,315
838.605713,319
838.723877,314
838.84198,322
838.960205,317
839.078308,314
839.196472,323
839.314636,311
839.4328,323
839.550964,323
839.669067,326
839.787231,331
839.905396,314
840.023499,316
840.141602,310
840.259766,308
840.377869,323
840.495972,318
840.614136,310
840.732239,317
840.850342,312
840.968445,325
841.086548,307
841.204651,327
841.322754,311
841.440918,318
841.55896,314
841.677002,326
841.795166,311
841.913208,308
842.031311,307
842.149353,319
842.267456,318
842.385498,325
842.503601,310
842.621643,314
842.739746,303
842.857788,327
842.97583,313
843.093933,315
843.211975,322
843.330017,314
843.44812,322
843.566101,312
843.684204,304
843.802246,308
843.920227,305
844.038269,303
844.156311,315
844.274292,319
844.392395,328
844.510376,324
844.628357,320
844.74646,322
844.864441,304
844.982422,315
845.100403,307
845.218384,326
845.336426,319
845.454468,324
845.572449,304
845.69043,322
845.808411,298
845.926453,309
846.044373,309
846.162354,324
846.280396,322
846.398315,313
846.516296,311
846.634216,321
846.752197,316
846.870178,312
846.988098,313
847.106079,321
847.22406,313
847.34198,316
847.4599,318
847.577881,327
847.695801,310
847.813782,320
847.931641,319
848.049561,324
848.167603,317
848.285461,317
848.403381,314
848.521362,326
848.639221,314
848.75708,310
848.875,308
848.99292,304
849.110901,310
849.22876,325
849.34668,310
849.464539,313
849.582458,322
849.700317,313
849.818176,303
849.936096,326
850.053955,316
850.171875,323
850.289673,322
850.407593,317
850.525452,308
850.643311,318
850.761169,314
850.878967,318
850.996887,313
851.114746,316
851.232544,325
851.350403,315
851.468262,316
851.58606,307
851.703979,330
851.821777,310
851.939636,314
852.057434,310
852.175232,335
852.293091,314
852.410889,304
852.528687,312
852.646545,315
852.764343,318
852.88208,309
852.999939,305
853.117676,321
853.235535,324
853.353271,312
853.471069,317
853.588928,309
853.706604,328
853.824402,326
853.9422,318
854.059998,308
854.177734,309
854.295532,327
854.413269,317
854.531006,307
854.648804,308
854.766541,313
854.884277,307
855.002014,315
855.119751,307
855.237549,308
855.355225,320
855.473022,312
855.590698,319
855.708435,319
855.826172,319
855.943848,307
856.061646,331
856.179321,317
856.296997,313
856.414795,314
856.53241,308
856.650085,306
856.767822,322
856.885559,318
857.003174,318
857.120911,324
857.238586,315
857.356201,325
857.473938,317
857.591614,321
857.709351,313
857.826965,315
857.944641,320
858.062317,309
858.179993,318
858.297668,316
858.415283,301
858.532959,310
858.650574,319
858.768188,306
858.885803,323
859.003479,307
859.121094,318
859.23877,317
859.356384,311
859.473999,303
859.591675,324
859.709229,312
859.826843,311
859.944458,315
860.062012,322
860.179626,318
860.297302,323
860.414856,327
860.532471,303
860.650024,321
860.767639,325
860.885193,328
861.002808,295
861.120361,310
861.237976,319
861.35553,304
861.473022,301
861.590698,323
861.708191,327
861.825745,312
861.943298,313
862.060852,315
862.178406,311
862.295959,331
862.413513,323
862.531006,311
862.64856,311
862.766113,310
862.883667,313
863.00116,313
863.118713,322
863.236206,312
863.353699,316
863.471252,322
863.588745,313
863.706177,324
863.82373,315
863.941162,317
864.058716,318
864.176208,311
864.29364,319
864.411194,326
864.528687,322
864.646118,315
864.763611,322
864.881042,304
864.998535,316
865.116028,304
865.233459,313
865.350891,317
865.468384,329
865.585754,315
865.703308,307
865.820679,312
865.938171,315
866.055542,305
866.173035,307
866.290466,313
866.407837,318
866.52533,317
866.6427,319
866.760071,310
866.877563,323
866.994934,317
867.112305,311
867.229736,315
867.347107,305
867.464539,317
867.58197,325
867.699341,309
867.81665,325
867.934082,311
868.051453,328
868.168823,302
868.286194,310
868.403564,311
868.520935,304
868.638306,313
868.755676,322
868.872986,321
868.990295,305
869.107727,324
869.225037,326
869.342346,315
869.459717,320
869.577026,312
869.694336,323
869.811707,322
869.929016,312
870.046326,315
870.163635,310
870.280945,322
870.398254,319
870.515564,321
870.632812,313
870.750183,319
870.867432,310
870.984741,314
871.102051,317
871.219299,316
871.336609,327
871.453918,314
871.571106,316
871.688416,315
871.805664,319
871.922852,312
872.040222,318
872.157471,319
872.274719,314
872.391968,310
872.509155,323
872.626465,313
872.743652,323
872.860962,308
872.978149,327
873.095337,313
873.212646,319
873.329834,314
873.44696,323
873.564209,306
873.681396,321
873.798645,318
873.915894,312
874.03302,315
874.150208,304
874.267456,309
874.384583,326
874.501831,318
874.618958,321
874.736145,308
874.853333,321
874.970459,297
875.087646,321
875.204834,296
875.32196,324
875.439148,312
875.556274,311
875.673401,323
875.790527,313
875.907715,316
876.024841,325
876.141968,318
876.259094,328
876.376282,301
876.493347,309
876.610474,322
876.7276,305
876.844727,325
876.961853,323
877.078918,319
877.195984,334
877.313171,311
877.430237,320
877.547302,310
877.664368,330
877.781433,317
877.898499,325
878.015625,320
878.13269,323
878.249695,316
878.366821,321
878.483887,315
878.600952,318
878.717957,323
878.834961,318
878.952087,311
879.069092,315
879.186157,314
879.303162,322
879.420227,306
879.537231,323
879.654236,311
879.77124,336
879.888306,307
880.005249,323
880.122314,308
880.239319,309
880.356323,318
880.473328,315
880.590271,305
880.707275,318
880.824341,307
880.941284,321
881.058228,309
881.175232,322
881.292236,327
881.40918,304
881.526123,319
881.643066,318
881.760071,307
881.877014,324
881.993958,309
882.11084,322
882.227783,308
882.344727,320
882.46167,315
882.578613,323
882.695618,318
882.812439,301
882.929382,306
883.046326,321
883.163208,307
883.280151,319
883.397034,304
883.513916,312
883.630798,304
883.747742,325
883.864563,324
883.981506,309
884.098389,306
884.21521,320
884.332153,304
884.448975,332
884.565796,316
884.682678,309
884.7995,313
884.916443,312
885.033264,319
885.150085,317
885.266968,304
885.383789,313
885.500671,314
885.617493,325
885.734314,312
885.851196,312
885.967896,313
886.084717,317
886.201599,320
886.318359,302
886.435181,310
886.552002,314
886.668762,308
886.785645,307
886.902344,311
887.019165,310
887.135925,319
887.252747,321
887.369446,317
887.486267,314
887.603027,324
887.719788,309
887.836548,314
887.953247,320
888.070068,325
888.186829,315
888.303528,311
888.420288,318
888.536987,308
888.653687,311
888.770447,318
888.887146,317
889.003967,315
889.120667,311
889.237305,321
889.354065,305
889.470703,313
889.587463,311
889.704163,318
889.820862,326
889.937561,309
890.054199,317
890.170837,316
890.287598,327
890.404236,317
890.520874,329
890.637634,317
890.754211,315
890.87085,302
890.987549,318
891.104187,308
891.220886,319
891.337463,316
891.454102,317
891.57074,316
891.687378,314
891.804077,315
891.920654,311
892.037231,340
892.15387,317
892.270447,331
892.387085,319
892.503723,303
892.6203,322
892.736877,318
892.853516,306
892.970032,323
893.08667,312
893.203186,294
893.319763,302
893.43634,317
893.552917,320
893.669556,311
893.786011,322
893.902588,311
894.019165,316
894.135681,317
894.252197,313
894.368835,328
894.485291,322
894.601868,302
894.718384,320
894.8349,322
894.951355,331
895.067932,303
895.184448,312
895.300964,303
895.417419,320
895.533936,312
895.650452,310
895.766907,317
895.883423,302
895.999878,313
896.116333,322
896.232849,305
896.349304,316
896.465759,303
896.582214,315
896.698669,304
896.815125,325
896.931641,314
897.048035,322
897.164551,321
897.280884,317
897.397339,312
897.513794,310
897.630249,307
897.746582,324
897.863098,317
897.979431,317
898.095886,320
898.212341,327
898.328674,312
898.445129,328
898.561462,322
898.677795,324
898.794312,334
898.910645,317
899.026978,315
899.143433,313
899.259766,309
899.37616,321
899.492493,314
899.608765,311
899.725159,323
899.841553,315
899.957947,318
900.07428,312
900.190552,319
900.306946,332
900.423157,317
900.53949,313
900.655884,319
900.772156,327
900.888489,319
901.004822,326
901.121033,317
901.237366,312
901.353699,310
901.46991,327
901.586304,311
901.702515,335
901.818787,309
901.93512,335
902.051331,315
902.167603,309
902.283875,317
902.400085,313
902.516418,313
902.632629,329
902.74884,321
902.865112,312
902.981384,310
903.097595,318
903.213867,305
903.330017,326
903.446289,318
903.5625,313
903.67865,318
903.794922,304
903.911072,303
904.027344,322
904.143494,316
904.259705,307
904.375916,303
904.492065,327
904.608215,321
904.724426,312
904.840576,319
904.956726,317
905.072876,314
905.189087,318
905.305176,305
905.421387,331
905.537537,309
905.653687,315
905.769775,321
905.885925,317
906.002014,317
906.118164,318
906.234314,324
906.350403,322
906.466492,306
906.582642,308
906.69873,302
906.814758,312
906.930908,323
907.046936,316
907.163086,316
907.279175,332
907.395264,317
907.511353,332
907.62738,307
907.743408,318
907.859497,309
907.975525,318
908.091553,315
908.207703,314
908.32373,325
908.439758,329
908.555786,307
908.671814,328
908.787842,310
908.90387,313
909.019775,312
909.135864,315
909.251892,318
909.367859,313
909.483826,310
909.599854,327
909.715881,305
909.831848,322
909.947815,312
910.063782,318
910.179749,320
910.295776,320
910.411743,315
910.527649,319
910.643616,315
910.759583,316
910.875488,311
910.991455,311
911.107361,322
911.223267,315
911.339294,301
911.4552,326
911.571106,318
911.687073,324
911.802979,316
911.918823,326
912.034729,322
912.150635,312
912.266602,325
912.382446,315
912.498352,313
912.614197,319
912.730103,312
912.846008,310
