792.44574,312
792.56488,354
792.68396,413
792.80304,386
792.92218,337
793.041199,322
793.160339,328
793.279419,340
793.398499,339
793.517578,314
793.636658,314
793.755737,325
793.874817,332
793.993896,351
794.112976,334
794.232056,324
794.351074,331
794.470215,338
794.589233,332
794.708313,339
794.827393,324
794.946411,338
795.065552,345
795.18457,347
795.303589,328
795.422668,333
795.541687,323
795.660767,351
795.779846,325
795.898865,337
796.017883,327
796.136963,330
796.255981,336
796.375061,332
796.49408,335
796.613037,333
796.732117,322
796.851135,318
796.970154,320
797.089233,333
797.208191,335
797.327271,324
797.446228,333
797.565186,344
797.684265,314
797.803223,327
797.922241,346
798.04126,319
798.160278,330
798.279297,339
798.398315,331
798.517273,336
798.636292,321
798.75531,329
798.874268,329
798.993286,323
799.112244,329
799.231323,333
799.350281,323
799.469238,317
799.588257,327
799.707153,320
799.826111,344
799.945129,328
800.064087,328
800.183044,329
800.302063,345
800.421021,316
800.539978,341
800.658936,332
800.777893,328
800.896912,331
801.015747,328
801.134705,326
801.253723,323
801.37262,332
801.491638,337
801.610535,346
801.729492,330
801.84845,330
801.967407,339
802.086243,331
802.205261,332
802.324158,320
802.443115,306
802.562073,332
802.680969,330
802.799927,344
802.918762,329
803.037659,336
803.156677,330
803.275574,348
803.39447,321
803.513428,342
803.632263,318
803.751221,331
803.870117,318
803.989014,331
804.107971,339
804.226746,329
804.345642,320
804.4646,342
804.583496,333
804.702393,322
804.821228,324
804.940125,341
805.059021,323
805.177917,336
805.296814,329
805.415649,323
805.534546,331
805.653442,325
805.772278,323
805.891113,329
806.01001,342
806.128906,334
806.247742,339
806.366577,318
806.485413,331
806.604309,334
806.723145,327
806.84198,339
806.960876,329
807.079712,343
807.198486,341
807.317383,331
807.436218,337
807.554993,331
807.673889,321
807.792725,339
807.91156,331
808.030396,338
808.14917,329
808.268005,330
808.386841,332
808.505676,335
808.624451,335
808.743286,328
808.862122,335
808.980896,345
809.099731,327
809.218506,328
809.337341,334
809.456116,345
809.57489,316
809.693726,332
809.8125,338
809.931274,343
810.050049,324
810.168884,327
810.287659,333
810.406372,335
810.525269,338
810.643982,334
810.762756,331
810.881531,319
811.000305,324
811.11908,318
811.237854,333
811.356567,331
811.475403,343
811.594116,340
811.71283,339
811.831604,343
811.950378,330
812.069153,332
812.187927,331
812.30658,331
812.425415,319
812.544128,328
812.662781,329
812.781616,331
812.900269,332
813.019043,331
813.137756,342
813.256531,317
813.375244,329
813.493896,336
813.612671,316
813.731384,336
813.850037,340
813.96875,327
814.087524,341
814.206238,321
814.324951,338
814.443604,336
814.562256,335
814.68103,340
814.799683,327
814.918335,337
815.037109,320
815.155762,325
815.274475,333
815.393188,314
815.511841,337
815.630554,333
815.749146,322
815.867859,320
815.986572,328
816.105164,335
816.223877,329
816.342529,332
816.461182,339
816.579895,349
816.698486,330
816.817139,316
816.935791,327
817.054504,343
817.173096,335
817.291748,321
817.4104,331
817.529053,329
817.647644,337
817.766235,331
817.884949,331
818.00354,317
818.122192,339
818.240845,312
818.359436,324
818.478088,322
818.59668,336
818.715271,324
818.833923,330
818.952515,330
819.071106,321
819.189758,319
819.30835,329
819.426941,309
819.545532,321
819.664124,327
819.782715,318
819.901306,320
820.019897,318
820.138489,322
820.25708,307
820.375671,323
820.494202,309
820.612732,318
820.731384,318
820.849915,307
820.968506,324
821.087097,322
821.205627,329
821.324158,307
821.442749,334
821.561279,309
821.679871,310
821.798401,325
821.916931,313
822.035461,303
822.154053,303
822.272583,329
822.391174,312
822.509583,315
822.628174,330
822.746704,324
822.865234,319
822.983765,325
823.102295,322
823.220825,316
823.339294,324
823.457825,314
823.576355,333
823.694824,331
823.813354,318
823.931885,315
824.050354,327
824.168884,312
824.287354,319
824.405823,319
824.524353,317
824.642822,332
824.761353,312
824.879822,322
824.998291,312
825.116699,314
825.235291,330
825.353699,333
825.472168,309
825.590637,318
825.709106,318
825.827576,326
825.946045,319
826.064453,326
826.182983,313
826.301392,320
826.4198,315
826.53833,315
826.656738,325
826.775208,312
826.893677,323
827.012024,338
827.130493,324
827.248962,317
827.36731,311
827.485779,319
827.604248,308
827.722595,318
827.841064,320
827.959412,329
828.077942,312
828.196289,321
828.314636,314
828.433105,316
828.551514,319
828.669861,314
828.78833,302
828.906677,318
829.025085,343
829.143433,308
829.261841,328
829.38031,303
829.498657,315
829.617004,326
829.735413,327
829.85376,314
829.972107,310
830.090515,315
830.208862,320
830.327209,318
830.445557,323
830.563904,328
830.682312,319
830.800659,316
830.919006,315
831.037354,327
831.155701,316
831.274048,325
831.392395,314
831.51062,315
831.629028,310
831.747314,318
831.865662,315
831.984009,324
832.102356,317
832.220642,322
832.338928,312
832.457275,324
832.575623,308
832.693909,335
832.812134,313
832.930481,324
833.048828,325
833.167114,314
833.2854,315
833.403687,315
833.521973,319
833.640259,313
833.758545,319
833.876831,308
833.995056,314
834.113281,311
834.231628,321
834.349915,321
834.468201,312
834.586426,320
834.704651,312
834.822998,323
834.941162,323
835.059448,308
835.177673,322
835.295959,316
835.414246,308
835.53241,310
835.650635,327
835.768921,322
835.887146,307
836.005371,307
836.123596,325
836.241821,312
836.360046,318
836.478271,322
836.596497,312
836.714722,309
836.832886,298
836.95105,309
837.069336,321
837.1875,318
837.305725,317
837.423889,315
837.542053,333
837.660339,315
837.778503,316
837.896667,309
838.014832,296
838.132996,319
838.25116,311
838.369385,332
838.487488,315
838.605713,329
838.723877,326
838.84198,309
838.960205,315
839.078308,316
839.196472,317
839.314636,317
839.4328,332
839.550964,311
839.669067,308
839.787231,313
839.905396,314
840.023499,309
840.141602,322
840.259766,325
840.377869,311
840.495972,311
840.614136,320
840.732239,316
840.850342,318
840.968445,310
841.086548,314
841.204651,304
841.322754,312
841.440918,314
841.55896,321
841.677002,332
841.795166,319
841.913208,318
842.031311,322
842.149353,310
842.267456,315
842.385498,305
842.503601,334
842.621643,319
842.739746,304
842.857788,318
842.97583,318
843.093933,303
843.211975,326
843.330017,305
843.44812,335
843.566101,322
843.684204,317
843.802246,319
843.920227,319
844.038269,310
844.156311,317
844.274292,331
844.392395,317
844.510376,305
844.628357,327
844.74646,319
844.864441,307
844.982422,329
845.100403,322
845.218384,310
845.336426,307
845.454468,320
845.572449,309
845.69043,318
845.808411,314
845.926453,314
846.044373,327
846.162354,303
846.280396,308
846.398315,317
846.516296,315
846.634216,323
846.752197,314
846.870178,318
846.988098,312
847.106079,319
847.22406,305
847.34198,322
847.4599,296
847.577881,327
847.695801,304
847.813782,337
847.931641,316
848.049561,309
848.167603,328
848.285461,307
848.403381,309
848.521362,315
848.639221,303
848.75708,326
848.875,320
848.99292,316
849.110901,313
849.22876,300
849.34668,315
849.464539,313
849.582458,323
849.700317,305
849.818176,312
849.936096,310
850.053955,311
850.171875,316
850.289673,314
850.407593,318
850.525452,315
850.643311,321
850.761169,309
850.878967,312
850.996887,312
851.114746,325
851.232544,316
851.350403,321
851.468262,307
851.58606,312
851.703979,306
851.821777,306
851.939636,313
852.057434,307
852.175232,293
852.293091,317
852.410889,323
852.528687,326
852.646545,316
852.764343,321
852.88208,321
852.999939,302
853.117676,311
853.235535,326
853.353271,321
853.471069,321
853.588928,311
853.706604,306
853.824402,326
853.9422,310
854.059998,318
854.177734,301
854.295532,322
854.413269,314
854.531006,305
854.648804,312
854.766541,317
854.884277,310
855.002014,308
855.119751,326
855.237549,312
855.355225,316
855.473022,315
855.590698,318
855.708435,316
855.826172,314
855.943848,300
856.061646,325
856.179321,319
856.296997,312
856.414795,325
856.53241,323
856.650085,319
856.767822,318
856.885559,328
857.003174,327
857.120911,309
857.238586,319
857.356201,315
857.473938,301
857.591614,318
857.709351,322
857.826965,326
857.944641,317
858.062317,317
858.179993,328
858.297668,315
858.415283,325
858.532959,308
858.650574,302
858.768188,315
858.885803,302
859.003479,326
859.121094,314
859.23877,310
859.356384,314
859.473999,318
859.591675,332
859.709229,322
859.826843,325
859.944458,310
860.062012,314
860.179626,329
860.297302,320
860.414856,299
860.532471,320
860.650024,312
860.767639,323
860.885193,324
861.002808,320
861.120361,318
861.237976,327
861.35553,317
861.473022,320
861.590698,314
861.708191,307
861.825745,324
861.943298,323
862.060852,316
862.178406,313
862.295959,310
862.413513,313
862.531006,325
862.64856,327
862.766113,316
862.883667,311
863.00116,323
863.118713,318
863.236206,305
863.353699,315
863.471252,316
863.588745,320
863.706177,312
863.82373,309
863.941162,309
864.058716,322
864.176208,316
864.29364,314
864.411194,325
864.528687,304
864.646118,313
864.763611,320
864.881042,315
864.998535,310
865.116028,314
865.233459,328
865.350891,309
865.468384,315
865.585754,311
865.703308,311
865.820679,315
865.938171,325
866.055542,307
866.173035,319
866.290466,324
866.407837,308
866.52533,330
866.6427,321
866.760071,314
866.877563,315
866.994934,322
867.112305,320
867.229736,304
867.347107,304
867.464539,307
867.58197,326
867.699341,309
867.81665,318
867.934082,315
868.051453,317
868.168823,314
868.286194,316
868.403564,317
868.520935,321
868.638306,325
868.755676,325
868.872986,311
868.990295,329
869.107727,307
869.225037,328
869.342346,306
869.459717,312
869.577026,316
869.694336,326
869.811707,318
869.929016,311
870.046326,305
870.163635,301
870.280945,312
870.398254,319
870.515564,304
870.632812,314
870.750183,312
870.867432,323
870.984741,321
871.102051,316
871.219299,326
871.336609,318
871.453918,319
871.571106,318
871.688416,338
871.805664,316
871.922852,315
872.040222,336
872.157471,321
872.274719,310
872.391968,314
872.509155,320
872.626465,316
872.743652,319
872.860962,314
872.978149,311
873.095337,323
873.212646,311
873.329834,314
873.44696,306
873.564209,316
873.681396,333
873.798645,311
873.915894,315
874.03302,318
874.150208,329
874.267456,320
874.384583,309
874.501831,302
874.618958,328
874.736145,328
874.853333,324
874.970459,307
875.087646,314
875.204834,318
875.32196,317
875.439148,324
875.556274,313
875.673401,313
875.790527,329
875.907715,308
876.024841,320
876.141968,307
876.259094,321
876.376282,319
876.493347,323
876.610474,326
876.7276,320
876.844727,296
876.961853,328
877.078918,319
877.195984,314
877.313171,321
877.430237,307
877.547302,333
877.664368,314
877.781433,313
877.898499,328
878.015625,316
878.13269,322
878.249695,310
878.366821,334
878.483887,309
878.600952,321
878.717957,312
878.834961,320
878.952087,319
879.069092,311
879.186157,316
879.303162,325
879.420227,315
879.537231,308
879.654236,316
879.77124,305
879.888306,309
880.005249,315
880.122314,328
880.239319,316
880.356323,305
880.473328,313
880.590271,314
880.707275,322
880.824341,315
880.941284,320
881.058228,304
881.175232,320
881.292236,311
881.40918,307
881.526123,307
881.643066,311
881.760071,308
881.877014,327
881.993958,310
882.11084,321
882.227783,311
882.344727,319
882.46167,321
882.578613,324
882.695618,306
882.812439,308
882.929382,304
883.046326,310
883.163208,309
883.280151,337
883.397034,306
883.513916,327
883.630798,326
883.747742,307
883.864563,326
883.981506,320
884.098389,315
884.21521,329
884.332153,302
884.448975,312
884.565796,329
884.682678,307
884.7995,327
884.916443,318
885.033264,305
885.150085,319
885.266968,313
885.383789,319
885.500671,320
885.617493,325
885.734314,308
885.851196,309
885.967896,311
886.084717,324
886.201599,315
886.318359,312
886.435181,308
886.552002,321
886.668762,320
886.785645,305
886.902344,320
887.019165,297
887.135925,319
887.252747,318
887.369446,311
887.486267,313
887.603027,315
887.719788,324
887.836548,321
887.953247,304
888.070068,313
888.186829,314
888.303528,308
888.420288,324
888.536987,331
888.653687,308
888.770447,314
888.887146,319
889.003967,327
889.120667,317
889.237305,311
889.354065,310
889.470703,328
889.587463,316
889.704163,318
889.820862,327
889.937561,303
890.054199,326
890.170837,326
890.287598,297
890.404236,315
890.520874,317
890.637634,319
890.754211,317
890.87085,314
890.987549,327
891.104187,323
891.220886,302
891.337463,314
891.454102,326
891.57074,312
891.687378,320
891.804077,317
891.920654,312
892.037231,310
892.15387,319
892.270447,306
892.387085,322
892.503723,311
892.6203,317
892.736877,318
892.853516,315
892.970032,319
893.08667,313
893.203186,311
893.319763,318
893.43634,320
893.552917,324
893.669556,319
893.786011,324
893.902588,311
894.019165,317
894.135681,316
894.252197,318
894.368835,307
894.485291,331
894.601868,305
894.718384,326
894.8349,312
894.951355,331
895.067932,316
895.184448,327
895.300964,318
895.417419,313
895.533936,324
895.650452,313
895.766907,318
895.883423,322
895.999878,304
896.116333,305
896.232849,313
896.349304,319
896.465759,310
896.582214,311
896.698669,319
896.815125,328
896.931641,307
897.048035,313
897.164551,314
897.280884,312
897.397339,312
897.513794,314
897.630249,317
897.746582,323
897.863098,316
897.979431,314
898.095886,306
898.212341,306
898.328674,315
898.445129,328
898.561462,324
898.677795,324
898.794312,331
898.910645,330
899.026978,315
899.143433,319
899.259766,318
899.37616,314
899.492493,322
899.608765,313
899.725159,327
899.841553,315
899.957947,320
900.07428,321
900.190552,308
900.306946,310
900.423157,314
900.53949,325
900.655884,330
900.772156,310
900.888489,312
901.004822,305
901.121033,313
901.237366,311
901.353699,318
901.46991,331
901.586304,313
901.702515,323
901.818787,320
901.93512,312
902.051331,318
902.167603,316
902.283875,309
902.400085,325
902.516418,318
902.632629,318
902.74884,306
902.865112,301
902.981384,328
903.097595,306
903.213867,315
903.330017,320
903.446289,314
903.5625,315
903.67865,313
903.794922,324
903.911072,316
904.027344,324
904.143494,317
904.259705,311
904.375916,305
904.492065,314
904.608215,312
904.724426,313
904.840576,320
904.956726,312
905.072876,309
905.189087,313
905.305176,324
905.421387,309
905.537537,313
905.653687,309
905.769775,313
905.885925,317
906.002014,304
906.118164,320
906.234314,302
906.350403,316
906.466492,320
906.582642,312
906.69873,316
906.814758,308
906.930908,307
907.046936,312
907.163086,310
907.279175,323
907.395264,311
907.511353,320
907.62738,322
907.743408,321
907.859497,318
907.975525,306
908.091553,323
908.207703,323
908.32373,308
908.439758,319
908.555786,296
908.671814,322
908.787842,306
908.90387,308
909.019775,315
909.135864,329
909.251892,329
909.367859,324
909.483826,303
909.599854,322
909.715881,318
909.831848,322
909.947815,298
910.063782,313
910.179749,309
910.295776,322
910.411743,309
910.527649,327
910.643616,309
910.759583,310
910.875488,316
910.991455,325
911.107361,312
911.223267,316
911.339294,330
911.4552,324
911.571106,318
911.687073,316
911.802979,308
911.918823,329
912.034729,317
912.150635,315
912.266602,308
912.382446,307
912.498352,305
912.614197,312
912.730103,321
912.846008,324
792.44574,320
792.56488,361
792.68396,402
792.80304,356
792.92218,348
793.041199,319
793.160339,330
793.279419,331
793.398499,338
793.517578,318
793.636658,328
793.755737,326
793.874817,357
793.993896,335
794.112976,338
794.232056,330
794.351074,328
794.470215,327
794.589233,335
794.708313,314
794.827393,329
794.946411,315
795.065552,337
795.18457,337
795.303589,325
795.422668,334
795.541687,317
795.660767,323
795.779846,336
795.898865,332
796.017883,338
796.136963,327
796.255981,330
796.375061,329
796.49408,329
796.613037,336
796.732117,328
796.851135,331
796.970154,328
797.089233,318
797.208191,329
797.327271,327
797.446228,326
797.565186,323
797.684265,336
797.803223,330
797.922241,337
798.04126,329
798.160278,320
798.279297,320
798.398315,329
798.517273,321
798.636292,327
798.75531,314
798.874268,315
798.993286,323
799.112244,334
799.231323,326
799.350281,332
799.469238,324
799.588257,326
799.707153,320
799.826111,329
799.945129,325
800.064087,319
800.183044,313
800.302063,306
800.421021,326
800.539978,326
800.658936,331
800.777893,333
800.896912,331
801.015747,329
801.134705,338
801.253723,332
801.37262,326
801.491638,329
801.610535,327
801.729492,335
801.84845,324
801.967407,337
802.086243,327
802.205261,327
802.324158,320
802.443115,331
802.562073,320
802.680969,330
802.799927,326
802.918762,340
803.037659,326
803.156677,336
803.275574,327
803.39447,314
803.513428,324
803.632263,337
803.751221,323
803.870117,337
803.989014,331
804.107971,331
804.226746,333
804.345642,332
804.4646,332
804.583496,334
804.702393,321
804.821228,343
804.940125,318
805.059021,323
805.177917,332
805.296814,325
805.415649,326
805.534546,334
805.653442,326
805.772278,330
805.891113,338
806.01001,323
806.128906,332
806.247742,330
806.366577,321
806.485413,339
806.604309,327
806.723145,336
806.84198,314
806.960876,328
807.079712,323
807.198486,329
807.317383,328
807.436218,325
807.554993,334
807.673889,328
807.792725,325
807.91156,333
808.030396,332
808.14917,331
808.268005,328
808.386841,337
808.505676,336
808.624451,329
808.743286,328
808.862122,331
808.980896,327
809.099731,345
809.218506,328
809.337341,339
809.456116,326
809.57489,333
809.693726,337
809.8125,331
809.931274,319
810.050049,342
810.168884,331
810.287659,330
810.406372,336
810.525269,322
810.643982,317
810.762756,328
810.881531,342
811.000305,332
811.11908,322
811.237854,332
811.356567,341
811.475403,331
811.594116,335
811.71283,335
811.831604,332
811.950378,334
812.069153,325
812.187927,321
812.30658,333
812.425415,330
812.544128,332
812.662781,339
812.781616,332
812.900269,326
813.019043,330
813.137756,334
813.256531,326
813.375244,347
813.493896,322
813.612671,340
813.731384,350
813.850037,336
813.96875,329
814.087524,326
814.206238,327
814.324951,338
814.443604,330
814.562256,327
814.68103,314
814.799683,325
814.918335,327
815.037109,348
815.155762,309
815.274475,332
815.393188,324
815.511841,333
815.630554,322
815.749146,336
815.867859,335
815.986572,344
816.105164,323
816.223877,326
816.342529,325
816.461182,331
816.579895,328
816.698486,347
816.817139,327
816.935791,324
817.054504,326
817.173096,332
817.291748,335
817.4104,328
817.529053,322
817.647644,320
817.766235,322
817.884949,337
818.00354,325
818.122192,329
818.240845,322
818.359436,324
818.478088,332
818.59668,321
818.715271,307
818.833923,322
818.952515,317
819.071106,316
819.189758,317
819.30835,334
819.426941,309
819.545532,336
819.664124,314
819.782715,334
819.901306,319
820.019897,318
820.138489,320
820.25708,323
820.375671,322
820.494202,309
820.612732,318
820.731384,325
820.849915,328
820.968506,325
821.087097,318
821.205627,311
821.324158,313
821.442749,317
821.561279,309
821.679871,335
821.798401,316
821.916931,319
822.035461,322
822.154053,312
822.272583,320
822.391174,321
822.509583,317
822.628174,319
822.746704,320
822.865234,317
822.983765,310
823.102295,311
823.220825,333
823.339294,335
823.457825,325
823.576355,320
823.694824,311
823.813354,319
823.931885,321
824.050354,315
824.168884,313
824.287354,322
824.405823,320
824.524353,313
824.642822,324
824.761353,324
824.879822,317
824.998291,312
825.116699,320
825.235291,319
825.353699,323
825.472168,330
825.590637,315
825.709106,332
825.827576,332
825.946045,323
826.064453,311
826.182983,311
826.301392,330
826.4198,313
826.53833,308
826.656738,324
826.775208,319
826.893677,309
827.012024,303
827.130493,315
827.248962,317
827.36731,334
827.485779,316
827.604248,331
827.722595,319
827.841064,314
827.959412,320
828.077942,317
828.196289,320
828.314636,318
828.433105,311
828.551514,318
828.669861,316
828.78833,320
828.906677,304
829.025085,321
829.143433,323
829.261841,316
829.38031,311
829.498657,315
829.617004,314
829.735413,315
829.85376,303
829.972107,313
830.090515,317
830.208862,306
830.327209,315
830.445557,311
830.563904,311
830.682312,317
830.800659,307
830.919006,307
831.037354,324
831.155701,318
831.274048,330
831.392395,309
831.51062,316
831.629028,323
831.747314,324
831.865662,316
831.984009,320
832.102356,320
832.220642,319
832.338928,314
832.457275,303
832.575623,325
832.693909,318
832.812134,308
832.930481,309
833.048828,303
833.167114,311
833.2854,313
833.403687,325
833.521973,313
833.640259,305
833.758545,319
833.876831,314
833.995056,319
834.113281,314
834.231628,319
834.349915,317
834.468201,311
834.586426,333
834.704651,308
834.822998,311
834.941162,304
835.059448,319
835.177673,312
835.295959,310
835.414246,308
835.53241,315
835.650635,319
835.768921,312
835.887146,321
836.005371,307
836.123596,298
836.241821,305
836.360046,325
836.478271,314
836.596497,310
836.714722,297
836.832886,313
836.95105,318
837.069336,313
837.1875,307
837.305725,316
837.423889,318
837.542053,326
837.660339,320
837.778503,305
837.896667,320
838.014832,322
838.132996,307
838.25116,312
838.369385,317
838.487488,309
838.605713,314
838.723877,327
838.84198,318
838.960205,309
839.078308,314
839.196472,330
839.314636,300
839.4328,319
839.550964,317
839.669067,310
839.787231,307
839.905396,331
840.023499,310
840.141602,310
840.259766,317
840.377869,301
840.495972,327
840.614136,320
840.732239,314
840.850342,315
840.968445,307
841.086548,308
841.204651,307
841.322754,315
841.440918,307
841.55896,335
841.677002,327
841.795166,314
841.913208,309
842.031311,314
842.149353,312
842.267456,315
842.385498,299
842.503601,309
842.621643,305
842.739746,324
842.857788,319
842.97583,320
843.093933,289
843.211975,317
843.330017,315
843.44812,319
843.566101,302
843.684204,322
843.802246,313
843.920227,328
844.038269,324
844.156311,301
844.274292,315
844.392395,318
844.510376,313
844.628357,306
844.74646,288
844.864441,317
844.982422,323
845.100403,325
845.218384,310
845.336426,317
845.454468,324
845.572449,319
845.69043,307
845.808411,325
845.926453,309
846.044373,302
846.162354,307
846.280396,323
846.398315,301
846.516296,306
846.634216,322
846.752197,313
846.870178,306
846.988098,307
847.106079,313
847.22406,324
847.34198,308
847.4599,319
847.577881,291
847.695801,297
847.813782,317
847.931641,315
848.049561,314
848.167603,319
848.285461,312
848.403381,312
848.521362,304
848.639221,323
848.75708,309
848.875,306
848.99292,302
849.110901,317
849.22876,308
849.34668,311
849.464539,310
849.582458,320
849.700317,331
849.818176,309
849.936096,312
850.053955,327
850.171875,307
850.289673,322
850.407593,302
850.525452,305
850.643311,313
850.761169,316
850.878967,314
850.996887,311
851.114746,310
851.232544,309
851.350403,309
851.468262,318
851.58606,294
851.703979,316
851.821777,318
851.939636,312
852.057434,311
852.175232,326
852.293091,310
852.410889,331
852.528687,308
852.646545,308
852.764343,324
852.88208,319
852.999939,310
853.117676,333
853.235535,314
853.353271,316
853.471069,322
853.588928,316
853.706604,312
853.824402,311
853.9422,312
854.059998,330
854.177734,306
854.295532,309
854.413269,319
854.531006,310
854.648804,315
854.766541,333
854.884277,314
855.002014,311
855.119751,315
855.237549,324
855.355225,301
855.473022,313
855.590698,301
855.708435,307
855.826172,300
855.943848,299
856.061646,307
856.179321,310
856.296997,306
856.414795,319
856.53241,311
856.650085,319
856.767822,298
856.885559,320
857.003174,286
857.120911,331
857.238586,313
857.356201,318
857.473938,309
857.591614,310
857.709351,303
857.826965,312
857.944641,307
858.062317,331
858.179993,309
858.297668,313
858.415283,316
858.532959,308
858.650574,319
858.768188,317
858.885803,323
859.003479,305
859.121094,307
859.23877,323
859.356384,319
859.473999,313
859.591675,316
859.709229,322
859.826843,303
859.944458,302
860.062012,307
860.179626,314
860.297302,310
860.414856,306
860.532471,306
860.650024,303
860.767639,313
860.885193,322
861.002808,313
861.120361,310
861.237976,315
861.35553,317
861.473022,312
861.590698,315
861.708191,325
861.825745,319
861.943298,313
862.060852,326
862.178406,322
862.295959,310
862.413513,312
862.531006,310
862.64856,321
862.766113,314
862.883667,319
863.00116,306
863.118713,312
863.236206,323
863.353699,313
863.471252,314
863.588745,317
863.706177,303
863.82373,304
863.941162,316
864.058716,314
864.176208,311
864.29364,313
864.411194,317
864.528687,311
864.646118,320
864.763611,314
864.881042,318
864.998535,301
865.116028,329
865.233459,316
865.350891,313
865.468384,308
865.585754,314
865.703308,322
865.820679,322
865.938171,319
866.055542,308
866.173035,304
866.290466,327
866.407837,308
866.52533,318
866.6427,312
866.760071,314
866.877563,308
866.994934,325
867.112305,316
867.229736,315
867.347107,306
867.464539,325
867.58197,310
867.699341,337
867.81665,311
867.934082,325
868.051453,310
868.168823,314
868.286194,299
868.403564,324
868.520935,312
868.638306,322
868.755676,326
868.872986,312
868.990295,313
869.107727,318
869.225037,311
869.342346,314
869.459717,299
869.577026,316
869.694336,320
869.811707,328
869.929016,310
870.046326,308
870.163635,302
870.280945,321
870.398254,319
870.515564,319
870.632812,300
870.750183,316
870.867432,311
870.984741,327
871.102051,312
871.219299,330
871.336609,313
871.453918,306
871.571106,301
871.688416,322
871.805664,318
871.922852,319
872.040222,292
872.157471,306
872.274719,309
872.391968,319
872.509155,305
872.626465,309
872.743652,312
872.860962,313
872.978149,298
873.095337,311
873.212646,310
873.329834,329
873.44696,321
873.564209,309
873.681396,307
873.798645,309
873.915894,310
874.03302,316
874.150208,301
874.267456,317
874.384583,306
874.501831,322
874.618958,312
874.736145,339
874.853333,313
874.970459,325
875.087646,304
875.204834,307
875.32196,319
875.439148,318
875.556274,306
875.673401,309
875.790527,315
875.907715,302
876.024841,311
876.141968,323
876.259094,319
876.376282,313
876.493347,316
876.610474,311
876.7276,315
876.844727,318
876.961853,333
877.078918,319
877.195984,314
877.313171,314
877.430237,307
877.547302,324
877.664368,296
877.781433,322
877.898499,312
878.015625,319
878.13269,324
878.249695,316
878.366821,296
878.483887,304
878.600952,297
878.717957,320
878.834961,309
878.952087,324
879.069092,307
879.186157,308
879.303162,306
879.420227,327
879.537231,318
879.654236,305
879.77124,313
879.888306,336
880.005249,314
880.122314,329
880.239319,314
880.356323,305
880.473328,299
880.590271,311
880.707275,319
880.824341,323
880.941284,318
881.058228,309
881.175232,308
881.292236,327
881.40918,307
881.526123,317
881.643066,313
881.760071,311
881.877014,315
881.993958,326
882.11084,300
882.227783,323
882.344727,307
882.46167,325
882.578613,312
882.695618,312
882.812439,304
882.929382,321
883.046326,326
883.163208,336
883.280151,308
883.397034,327
883.513916,300
883.630798,314
883.747742,320
883.864563,316
883.981506,318
884.098389,307
884.21521,305
884.332153,305
884.448975,320
884.565796,319
884.682678,313
884.7995,316
884.916443,319
885.033264,332
885.150085,310
885.266968,314
885.383789,304
885.500671,304
885.617493,312
885.734314,316
885.851196,313
885.967896,309
886.084717,312
886.201599,313
886.318359,310
886.435181,324
886.552002,319
886.668762,324
886.785645,309
886.902344,321
887.019165,320
887.135925,318
887.252747,319
887.369446,318
887.486267,307
887.603027,321
887.719788,317
887.836548,312
887.953247,315
888.070068,315
888.186829,302
888.303528,313
888.420288,314
888.536987,330
888.653687,300
888.770447,329
888.887146,322
889.003967,322
889.120667,311
889.237305,327
889.354065,309
889.470703,319
889.587463,324
889.704163,314
889.820862,298
889.937561,312
890.054199,306
890.170837,311
890.287598,309
890.404236,319
890.520874,327
890.637634,326
890.754211,301
890.87085,323
890.987549,317
891.104187,312
891.220886,321
891.337463,329
891.454102,315
891.57074,325
891.687378,308
891.804077,317
891.920654,316
892.037231,312
892.15387,319
892.270447,330
892.387085,301
892.503723,323
892.6203,318
892.736877,317
892.853516,306
892.970032,318
893.08667,308
893.203186,314
893.319763,317
893.43634,304
893.552917,309
893.669556,320
893.786011,305
893.902588,302
894.019165,310
894.135681,306
894.252197,300
894.368835,319
894.485291,304
894.601868,318
894.718384,308
894.8349,316
894.951355,311
895.067932,324
895.184448,301
895.300964,315
895.417419,313
895.533936,316
895.650452,310
895.766907,319
895.883423,326
895.999878,317
896.116333,320
896.232849,314
896.349304,291
896.465759,315
896.582214,318
896.698669,334
896.815125,319
896.931641,323
897.048035,306
897.164551,308
897.280884,321
897.397339,313
897.513794,319
897.630249,310
897.746582,315
897.863098,318
897.979431,315
898.095886,308
898.212341,307
898.328674,317
898.445129,320
898.561462,314
898.677795,318
898.794312,306
898.910645,305
899.026978,321
899.143433,329
899.259766,316
899.37616,313
899.492493,308
899.608765,314
899.725159,313
899.841553,316
899.957947,323
900.07428,310
900.190552,320
900.306946,317
900.423157,311
900.53949,303
900.655884,322
900.772156,330
900.888489,327
901.004822,312
901.121033,302
901.237366,318
901.353699,314
901.46991,307
901.586304,331
901.702515,316
901.818787,335
901.93512,307
902.051331,325
902.167603,310
902.283875,309
902.400085,313
902.516418,321
902.632629,309
902.74884,308
902.865112,332
902.981384,313
903.097595,306
903.213867,319
903.330017,307
903.446289,319
903.5625,313
903.67865,319
903.794922,308
903.911072,331
904.027344,317
904.143494,332
904.259705,300
904.375916,326
904.492065,313
904.608215,321
904.724426,323
904.840576,312
904.956726,314
905.072876,305
905.189087,306
905.305176,321
905.421387,316
905.537537,315
905.653687,305
905.769775,316
905.885925,311
906.002014,321
906.118164,305
906.234314,325
906.350403,329
906.466492,315
906.582642,310
906.69873,329
906.814758,318
906.930908,317
907.046936,297
907.163086,322
907.279175,307
907.395264,310
907.511353,313
907.62738,312
907.743408,324
907.859497,324
907.975525,304
908.091553,324
908.207703,303
908.32373,323
908.439758,316
908.555786,306
908.671814,317
908.787842,311
908.90387,309
909.019775,309
909.135864,306
909.251892,313
909.367859,312
909.483826,327
909.599854,304
909.715881,313
909.831848,314
909.947815,331
910.063782,312
910.179749,325
910.295776,315
910.411743,324
910.527649,303
910.643616,320
910.759583,306
910.875488,318
910.991455,304
911.107361,317
911.223267,315
911.339294,318
911.4552,325
911.571106,320
911.687073,312
911.802979,330
911.918823,318
912.034729,328
912.150635,321
912.266602,318
912.382446,322
912.498352,312
912.614197,301
912.730103,304
912.846008,302
792.44574,313
792.56488,352
792.68396,394
792.80304,378
792.92218,329
793.041199,310
793.160339,317
793.279419,335
793.398499,340
793.517578,312
793.636658,332
793.755737,339
793.874817,336
793.993896,344
794.112976,331
794.232056,322
794.351074,334
794.470215,333
794.589233,340
794.708313,328
794.827393,329
794.946411,329
795.065552,355
795.18457,325
795.303589,325
795.422668,334
795.541687,322
795.660767,317
795.779846,345
795.898865,336
796.017883,335
796.136963,330
796.255981,321
796.375061,341
796.49408,340
796.613037,332
796.732117,331
796.851135,342
796.970154,323
797.089233,325
797.208191,322
797.327271,334
797.446228,330
797.565186,318
797.684265,337
797.803223,339
797.922241,330
798.04126,313
798.160278,328
798.279297,338
798.398315,324
798.517273,342
798.636292,327
798.75531,346
798.874268,336
798.993286,322
799.112244,334
799.231323,326
799.350281,325
799.469238,329
799.588257,337
799.707153,331
799.826111,336
799.945129,333
800.064087,343
800.183044,317
800.302063,323
800.421021,335
800.539978,324
800.658936,321
800.777893,324
800.896912,327
801.015747,343
801.134705,329
801.253723,323
801.37262,320
801.491638,338
801.610535,322
801.729492,337
801.84845,330
801.967407,321
802.086243,322
802.205261,321
802.324158,316
802.443115,340
802.562073,318
802.680969,317
802.799927,347
802.918762,333
803.037659,325
803.156677,334
803.275574,331
803.39447,305
803.513428,334
803.632263,325
803.751221,324
803.870117,322
803.989014,333
804.107971,339
804.226746,336
804.345642,324
804.4646,324
804.583496,336
804.702393,324
804.821228,338
804.940125,336
805.059021,331
805.177917,340
805.296814,320
805.415649,323
805.534546,316
805.653442,336
805.772278,316
805.891113,338
806.01001,345
806.128906,331
806.247742,332
806.366577,344
806.485413,316
806.604309,325
806.723145,334
806.84198,338
806.960876,331
807.079712,329
807.198486,317
807.317383,341
807.436218,336
807.554993,335
807.673889,337
807.792725,316
807.91156,323
808.030396,323
808.14917,327
808.268005,327
808.386841,333
808.505676,326
808.624451,326
808.743286,337
808.862122,334
808.980896,324
809.099731,342
809.218506,312
809.337341,328
809.456116,312
809.57489,332
809.693726,347
809.8125,325
809.931274,338
810.050049,331
810.168884,344
810.287659,342
810.406372,326
810.525269,335
810.643982,335
810.762756,337
810.881531,327
811.000305,330
811.11908,323
811.237854,330
811.356567,329
811.475403,318
811.594116,333
811.71283,336
811.831604,340
811.950378,328
812.069153,336
812.187927,341
812.30658,334
812.425415,332
812.544128,324
812.662781,341
812.781616,324
812.900269,344
813.019043,339
813.137756,353
813.256531,323
813.375244,328
813.493896,325
813.612671,338
813.731384,329
813.850037,342
813.96875,340
814.087524,336
814.206238,331
814.324951,323
814.443604,322
814.562256,326
814.68103,337
814.799683,346
814.918335,330
815.037109,344
815.155762,323
815.274475,329
815.393188,323
815.511841,325
815.630554,325
815.749146,330
815.867859,341
815.986572,323
816.105164,330
816.223877,340
816.342529,330
816.461182,328
816.579895,318
816.698486,337
816.817139,342
816.935791,320
817.054504,346
817.173096,326
817.291748,342
817.4104,336
817.529053,318
817.647644,332
817.766235,330
817.884949,332
818.00354,331
818.122192,327
818.240845,323
818.359436,335
818.478088,329
818.59668,329
818.715271,317
818.833923,326
818.952515,310
819.071106,337
819.189758,329
819.30835,331
819.426941,316
819.545532,322
819.664124,315
819.782715,325
819.901306,321
820.019897,324
820.138489,323
820.25708,332
820.375671,309
820.494202,317
820.612732,328
820.731384,336
820.849915,313
820.968506,329
821.087097,317
821.205627,318
821.324158,321
821.442749,309
821.561279,320
821.679871,328
821.798401,310
821.916931,329
822.035461,325
822.154053,319
822.272583,328
822.391174,311
822.509583,326
822.628174,314
822.746704,306
822.865234,322
822.983765,317
823.102295,316
823.220825,330
823.339294,309
823.457825,324
823.576355,310
823.694824,318
823.813354,303
823.931885,317
824.050354,310
824.168884,310
824.287354,314
824.405823,322
824.524353,321
824.642822,315
824.761353,322
824.879822,312
824.998291,326
825.116699,325
825.235291,328
825.353699,319
825.472168,325
825.590637,324
825.709106,301
825.827576,322
825.946045,305
826.064453,317
826.182983,303
826.301392,327
826.4198,319
826.53833,307
826.656738,307
826.775208,326
826.893677,313
827.012024,319
827.130493,303
827.248962,310
827.36731,320
827.485779,317
827.604248,302
827.722595,315
827.841064,319
827.959412,320
828.077942,322
828.196289,306
828.314636,326
828.433105,308
828.551514,307
828.669861,308
828.78833,314
828.906677,317
829.025085,320
829.143433,316
829.261841,333
829.38031,311
829.498657,316
829.617004,318
829.735413,299
829.85376,324
829.972107,314
830.090515,321
830.208862,319
830.327209,316
830.445557,301
830.563904,316
830.682312,330
830.800659,322
830.919006,310
831.037354,323
831.155701,313
831.274048,328
831.392395,317
831.51062,310
831.629028,311
831.747314,322
831.865662,315
831.984009,321
832.102356,315
832.220642,320
832.338928,313
832.457275,313
832.575623,319
832.693909,316
832.812134,316
832.930481,316
833.048828,309
833.167114,303
833.2854,318
833.403687,312
833.521973,312
833.640259,320
833.758545,303
833.876831,316
833.995056,312
834.113281,311
834.231628,328
834.349915,313
834.468201,320
834.586426,315
834.704651,305
834.822998,309
834.941162,326
835.059448,321
835.177673,319
835.295959,313
835.414246,313
835.53241,316
835.650635,305
835.768921,320
835.887146,320
836.005371,311
836.123596,311
836.241821,317
836.360046,307
836.478271,309
836.596497,319
836.714722,320
836.832886,314
836.95105,311
837.069336,320
837.1875,317
837.305725,307
837.423889,313
837.542053,317
837.660339,326
837.778503,313
837.896667,333
838.014832,315
838.132996,329
838.25116,314
838.369385,320
838.487488,322
838.605713,308
838.723877,326
838.84198,319
838.960205,331
839.078308,309
839.196472,317
839.314636,321
839.4328,308
839.550964,317
839.669067,326
839.787231,315
839.905396,322
840.023499,325
840.141602,316
840.259766,321
840.377869,324
840.495972,316
840.614136,317
840.732239,310
840.850342,317
840.968445,313
841.086548,332
841.204651,321
841.322754,309
841.440918,329
841.55896,321
841.677002,311
841.795166,311
841.913208,317
842.031311,312
842.149353,317
842.267456,321
842.385498,321
842.503601,314
842.621643,317
842.739746,312
842.857788,325
842.97583,313
843.093933,308
843.211975,313
843.330017,322
843.44812,322
843.566101,320
843.684204,307
843.802246,314
843.920227,304
844.038269,326
844.156311,314
844.274292,318
844.392395,328
844.510376,319
844.628357,299
844.74646,321
844.864441,306
844.982422,321
845.100403,313
845.218384,316
845.336426,314
845.454468,308
845.572449,310
845.69043,303
845.808411,321
845.926453,297
846.044373,317
846.162354,335
846.280396,314
846.398315,315
846.516296,307
846.634216,313
846.752197,315
846.870178,317
846.988098,312
847.106079,320
847.22406,300
847.34198,310
847.4599,316
847.577881,309
847.695801,318
847.813782,308
847.931641,315
848.049561,319
848.167603,314
848.285461,308
848.403381,318
848.521362,311
848.639221,310
848.75708,323
848.875,316
848.99292,319
849.110901,318
849.22876,317
849.34668,304
849.464539,308
849.582458,309
849.700317,312
849.818176,307
849.936096,322
850.053955,314
850.171875,320
850.289673,298
850.407593,305
850.525452,307
850.643311,314
850.761169,327
850.878967,319
850.996887,312
851.114746,321
851.232544,314
851.350403,312
851.468262,315
851.58606,323
851.703979,317
851.821777,323
851.939636,311
852.057434,321
852.175232,305
852.293091,316
852.410889,311
852.528687,317
852.646545,322
852.764343,306
852.88208,320
852.999939,314
853.117676,322
853.235535,322
853.353271,328
853.471069,327
853.588928,317
853.706604,315
853.824402,326
853.9422,310
854.059998,305
854.177734,316
854.295532,306
854.413269,322
854.531006,319
854.648804,311
854.766541,325
854.884277,313
855.002014,306
855.119751,309
855.237549,314
855.355225,318
855.473022,313
855.590698,321
855.708435,307
855.826172,330
855.943848,315
856.061646,315
856.179321,331
856.296997,314
856.414795,311
856.53241,318
856.650085,310
856.767822,320
856.885559,312
857.003174,320
857.120911,323
857.238586,325
857.356201,307
857.473938,326
857.591614,307
857.709351,317
857.826965,312
857.944641,313
858.062317,314
858.179993,313
858.297668,302
858.415283,317
858.532959,307
858.650574,308
858.768188,319
858.885803,317
859.003479,303
859.121094,314
859.23877,310
859.356384,313
859.473999,320
859.591675,321
859.709229,308
859.826843,317
859.944458,315
860.062012,309
860.179626,308
860.297302,318
860.414856,303
860.532471,317
860.650024,318
860.767639,315
860.885193,318
861.002808,315
861.120361,327
861.237976,320
861.35553,307
861.473022,313
861.590698,320
861.708191,307
861.825745,311
861.943298,322
862.060852,309
862.178406,314
862.295959,313
862.413513,322
862.531006,312
862.64856,323
862.766113,308
862.883667,324
863.00116,308
863.118713,313
863.236206,316
863.353699,323
863.471252,318
863.588745,318
863.706177,316
863.82373,315
863.941162,325
864.058716,306
864.176208,315
864.29364,309
864.411194,312
864.528687,318
864.646118,306
864.763611,309
864.881042,321
864.998535,317
865.116028,314
865.233459,312
865.350891,307
865.468384,307
865.585754,316
865.703308,318
865.820679,319
865.938171,313
866.055542,319
866.173035,311
866.290466,314
866.407837,320
866.52533,316
866.6427,301
866.760071,320
866.877563,307
866.994934,324
867.112305,315
867.229736,317
867.347107,321
867.464539,318
867.58197,322
867.699341,323
867.81665,321
867.934082,312
868.051453,322
868.168823,321
868.286194,328
868.403564,315
868.520935,316
868.638306,309
868.755676,313
868.872986,319
868.990295,317
869.107727,307
869.225037,316
869.342346,306
869.459717,305
869.577026,320
869.694336,313
869.811707,317
869.929016,319
870.046326,316
870.163635,312
870.280945,325
870.398254,315
870.515564,308
870.632812,322
870.750183,332
870.867432,322
870.984741,313
871.102051,317
871.219299,316
871.336609,317
871.453918,316
871.571106,311
871.688416,310
871.805664,327
871.922852,304
872.040222,301
872.157471,302
872.274719,320
872.391968,309
872.509155,318
872.626465,320
872.743652,313
872.860962,313
872.978149,319
873.095337,308
873.212646,311
873.329834,300
873.44696,308
873.564209,305
873.681396,324
873.798645,316
873.915894,309
874.03302,315
874.150208,318
874.267456,307
874.384583,318
874.501831,307
874.618958,309
874.736145,320
874.853333,314
874.970459,326
875.087646,314
875.204834,315
875.32196,313
875.439148,314
875.556274,318
875.673401,316
875.790527,309
875.907715,324
876.024841,312
876.141968,316
876.259094,311
876.376282,309
876.493347,312
876.610474,314
876.7276,308
876.844727,310
876.961853,316
877.078918,325
877.195984,319
877.313171,304
877.430237,310
877.547302,316
877.664368,313
877.781433,301
877.898499,313
878.015625,317
878.13269,316
878.249695,324
878.366821,312
878.483887,319
878.600952,314
878.717957,312
878.834961,310
878.952087,314
879.069092,312
879.186157,309
879.303162,312
879.420227,309
879.537231,316
879.654236,317
879.77124,316
879.888306,313
880.005249,324
880.122314,316
880.239319,332
880.356323,309
880.473328,305
880.590271,303
880.707275,315
880.824341,325
880.941284,308
881.058228,321
881.175232,307
881.292236,309
881.40918,321
881.526123,321
881.643066,327
881.760071,299
881.877014,321
881.993958,318
882.11084,320
882.227783,301
882.344727,312
882.46167,310
882.578613,321
882.695618,298
882.812439,326
882.929382,311
883.046326,319
883.163208,308
883.280151,312
883.397034,309
883.513916,324
883.630798,312
883.747742,322
883.864563,321
883.981506,313
884.098389,310
884.21521,315
884.332153,309
884.448975,312
884.565796,334
884.682678,309
884.7995,304
884.916443,313
885.033264,321
885.150085,317
885.266968,320
885.383789,313
885.500671,313
885.617493,328
885.734314,333
885.851196,323
885.967896,322
886.084717,326
886.201599,319
886.318359,306
886.435181,311
886.552002,311
886.668762,307
886.785645,317
886.902344,316
887.019165,311
887.135925,312
887.252747,309
887.369446,312
887.486267,316
887.603027,300
887.719788,316
887.836548,319
887.953247,314
888.070068,324
888.186829,318
888.303528,316
888.420288,314
888.536987,319
888.653687,306
888.770447,313
888.887146,325
889.003967,309
889.120667,317
889.237305,304
889.354065,329
889.470703,308
889.587463,316
889.704163,310
889.820862,325
889.937561,321
890.054199,314
890.170837,317
890.287598,322
890.404236,309
890.520874,313
890.637634,316
890.754211,324
890.87085,310
890.987549,327
891.104187,323
891.220886,313
891.337463,313
891.454102,317
891.57074,314
891.687378,321
891.804077,317
891.920654,318
892.037231,311
892.15387,316
892.270447,313
892.387085,318
892.503723,314
892.6203,319
892.736877,323
892.853516,310
892.970032,299
893.08667,323
893.203186,308
893.319763,329
893.43634,312
893.552917,301
893.669556,313
893.786011,319
893.902588,321
894.019165,307
894.135681,326
894.252197,322
894.368835,324
894.485291,327
894.601868,322
894.718384,323
894.8349,325
894.951355,315
895.067932,315
895.184448,313
895.300964,312
895.417419,310
895.533936,318
895.650452,318
895.766907,325
895.883423,308
895.999878,315
896.116333,310
896.232849,331
896.349304,313
896.465759,312
896.582214,319
896.698669,313
896.815125,325
896.931641,317
897.048035,323
897.164551,304
897.280884,316
897.397339,326
897.513794,306
897.630249,312
897.746582,318
897.863098,313
897.979431,317
898.095886,319
898.212341,337
898.328674,316
898.445129,324
898.561462,305
898.677795,321
898.794312,313
898.910645,328
899.026978,305
899.143433,316
899.259766,324
899.37616,307
899.492493,310
899.608765,321
899.725159,321
899.841553,318
899.957947,308
900.07428,323
900.190552,309
900.306946,316
900.423157,304
900.53949,328
900.655884,313
900.772156,319
900.888489,320
901.004822,309
901.121033,307
901.237366,318
901.353699,334
901.46991,307
901.586304,315
901.702515,311
901.818787,317
901.93512,313
902.051331,318
902.167603,314
902.283875,315
902.400085,323
902.516418,315
902.632629,317
902.74884,307
902.865112,318
902.981384,310
903.097595,319
903.213867,302
903.330017,325
903.446289,309
903.5625,312
903.67865,311
903.794922,317
903.911072,310
904.027344,299
904.143494,310
904.259705,309
904.375916,329
904.492065,312
904.608215,317
904.724426,317
904.840576,319
904.956726,334
905.072876,315
905.189087,312
905.305176,336
905.421387,321
905.537537,317
905.653687,310
905.769775,308
905.885925,326
906.002014,296
906.118164,312
906.234314,313
906.350403,312
906.466492,323
906.582642,300
906.69873,316
906.814758,307
906.930908,307
907.046936,330
907.163086,321
907.279175,328
907.395264,322
907.511353,314
907.62738,304
907.743408,310
907.859497,323
907.975525,317
908.091553,319
908.207703,312
908.32373,319
908.439758,308
908.555786,312
908.671814,327
908.787842,319
908.90387,319
909.019775,314
909.135864,315
909.251892,316
909.367859,317
909.483826,311
909.599854,314
909.715881,324
909.831848,320
909.947815,316
910.063782,319
910.179749,321
910.295776,318
910.411743,316
910.527649,317
910.643616,310
910.759583,324
910.875488,319
910.991455,310
911.107361,316
911.223267,331
911.339294,320
911.4552,318
911.571106,314
911.687073,319
911.802979,321
911.918823,326
912.034729,313
912.150635,322
912.266602,302
912.382446,306
912.498352,317
912.614197,310
912.730103,306
912.846008,322
