792.44574,323
792.56488,352
792.68396,395
792.80304,398
792.92218,327
793.041199,322
793.160339,318
793.279419,335
793.398499,342
793.517578,316
793.636658,316
793.755737,332
793.874817,352
793.993896,341
794.112976,338
794.232056,326
794.351074,327
794.470215,323
794.589233,334
794.708313,330
794.827393,330
794.946411,333
795.065552,337
795.18457,330
795.303589,344
795.422668,327
795.541687,325
795.660767,336
795.779846,325
795.898865,324
796.017883,341
796.136963,340
796.255981,339
796.375061,323
796.49408,327
796.613037,332
796.732117,322
796.851135,342
796.970154,337
797.089233,327
797.208191,341
797.327271,322
797.446228,320
797.565186,323
797.684265,329
797.803223,325
797.922241,332
798.04126,325
798.160278,327
798.279297,338
798.398315,342
798.517273,330
798.636292,337
798.75531,323
798.874268,334
798.993286,321
799.112244,327
799.231323,325
799.350281,347
799.469238,325
799.588257,333
799.707153,329
799.826111,344
799.945129,331
800.064087,331
800.183044,321
800.302063,339
800.421021,314
800.539978,344
800.658936,336
800.777893,324
800.896912,321
801.015747,339
801.134705,335
801.253723,327
801.37262,333
801.491638,330
801.610535,331
801.729492,333
801.84845,329
801.967407,340
802.086243,341
802.205261,337
802.324158,340
802.443115,336
802.562073,348
802.680969,319
802.799927,333
802.918762,318
803.037659,347
803.156677,340
803.275574,319
803.39447,321
803.513428,311
803.632263,329
803.751221,343
803.870117,328
803.989014,331
804.107971,351
804.226746,329
804.345642,335
804.4646,341
804.583496,333
804.702393,341
804.821228,316
804.940125,335
805.059021,330
805.177917,322
805.296814,341
805.415649,351
805.534546,319
805.653442,330
805.772278,341
805.891113,326
806.01001,347
806.128906,319
806.247742,336
806.366577,328
806.485413,338
806.604309,340
806.723145,331
806.84198,339
806.960876,341
807.079712,334
807.198486,324
807.317383,327
807.436218,329
807.554993,346
807.673889,332
807.792725,338
807.91156,349
808.030396,330
808.14917,336
808.268005,335
808.386841,338
808.505676,326
808.624451,327
808.743286,339
808.862122,330
808.980896,342
809.099731,340
809.218506,313
809.337341,343
809.456116,318
809.57489,320
809.693726,338
809.8125,336
809.931274,343
810.050049,325
810.168884,329
810.287659,333
810.406372,335
810.525269,331
810.643982,319
810.762756,335
810.881531,326
811.000305,330
811.11908,324
811.237854,341
811.356567,346
811.475403,333
811.594116,339
811.71283,328
811.831604,335
811.950378,336
812.069153,328
812.187927,341
812.30658,336
812.425415,324
812.544128,342
812.662781,327
812.781616,347
812.900269,325
813.019043,337
813.137756,331
813.256531,336
813.375244,334
813.493896,336
813.612671,332
813.731384,334
813.850037,315
813.96875,332
814.087524,333
814.206238,335
814.324951,331
814.443604,335
814.562256,339
814.68103,341
814.799683,332
814.918335,340
815.037109,339
815.155762,328
815.274475,330
815.393188,337
815.511841,334
815.630554,331
815.749146,335
815.867859,333
815.986572,339
816.105164,334
816.223877,322
816.342529,331
816.461182,329
816.579895,342
816.698486,320
816.817139,338
816.935791,326
817.054504,335
817.173096,340
817.291748,340
817.4104,331
817.529053,324
817.647644,336
817.766235,346
817.884949,320
818.00354,332
818.122192,335
818.240845,322
818.359436,342
818.478088,326
818.59668,338
818.715271,323
818.833923,323
818.952515,320
819.071106,324
819.189758,313
819.30835,336
819.426941,325
819.545532,311
819.664124,327
819.782715,313
819.901306,337
820.019897,313
820.138489,321
820.25708,320
820.375671,315
820.494202,306
820.612732,328
820.731384,311
820.849915,323
820.968506,320
821.087097,322
821.205627,315
821.324158,319
821.442749,317
821.561279,316
821.679871,328
821.798401,319
821.916931,326
822.035461,309
822.154053,332
822.272583,315
822.391174,316
822.509583,319
822.628174,326
822.746704,317
822.865234,318
822.983765,312
823.102295,331
823.220825,323
823.339294,316
823.457825,327
823.576355,323
823.694824,322
823.813354,318
823.931885,320
824.050354,318
824.168884,320
824.287354,319
824.405823,319
824.524353,315
824.642822,325
824.761353,323
824.879822,310
824.998291,326
825.116699,306
825.235291,316
825.353699,325
825.472168,318
825.590637,317
825.709106,321
825.827576,308
825.946045,318
826.064453,312
826.182983,309
826.301392,318
826.4198,307
826.53833,318
826.656738,315
826.775208,338
826.893677,318
827.012024,331
827.130493,311
827.248962,310
827.36731,324
827.485779,311
827.604248,322
827.722595,321
827.841064,318
827.959412,315
828.077942,309
828.196289,319
828.314636,308
828.433105,324
828.551514,316
828.669861,321
828.78833,313
828.906677,315
829.025085,322
829.143433,322
829.261841,319
829.38031,313
829.498657,321
829.617004,308
829.735413,325
829.85376,336
829.972107,314
830.090515,325
830.208862,317
830.327209,302
830.445557,318
830.563904,305
830.682312,327
830.800659,324
830.919006,317
831.037354,316
831.155701,320
831.274048,317
831.392395,315
831.51062,314
831.629028,307
831.747314,317
831.865662,308
831.984009,313
832.102356,313
832.220642,315
832.338928,313
832.457275,307
832.575623,322
832.693909,315
832.812134,315
832.930481,306
833.048828,318
833.167114,330
833.2854,314
833.403687,311
833.521973,318
833.640259,315
833.758545,326
833.876831,312
833.995056,321
834.113281,307
834.231628,311
834.349915,336
834.468201,311
834.586426,307
834.704651,315
834.822998,319
834.941162,321
835.059448,304
835.177673,327
835.295959,315
835.414246,321
835.53241,319
835.650635,312
835.768921,326
835.887146,306
836.005371,334
836.123596,315
836.241821,309
836.360046,319
836.478271,315
836.596497,323
836.714722,314
836.832886,313
836.95105,311
837.069336,323
837.1875,317
837.305725,323
837.423889,312
837.542053,328
837.660339,315
837.778503,327
837.896667,321
838.014832,336
838.132996,327
838.25116,319
838.369385,332
838.487488,320
838.605713,312
838.723877,318
838.84198,318
838.960205,313
839.078308,322
839.196472,296
839.314636,326
839.4328,323
839.550964,314
839.669067,311
839.787231,314
839.905396,310
840.023499,321
840.141602,325
840.259766,328
840.377869,310
840.495972,325
840.614136,302
840.732239,314
840.850342,325
840.968445,303
841.086548,317
841.204651,314
841.322754,321
841.440918,316
841.55896,326
841.677002,320
841.795166,312
841.913208,308
842.031311,322
842.149353,305
842.267456,315
842.385498,322
842.503601,310
842.621643,318
842.739746,326
842.857788,318
842.97583,321
843.093933,311
843.211975,317
843.330017,317
843.44812,331
843.566101,311
843.684204,303
843.802246,311
843.920227,293
844.038269,318
844.156311,310
844.274292,308
844.392395,322
844.510376,313
844.628357,307
844.74646,316
844.864441,313
844.982422,317
845.100403,310
845.218384,312
845.336426,321
845.454468,311
845.572449,314
845.69043,313
845.808411,307
845.926453,308
846.044373,313
846.162354,315
846.280396,309
846.398315,317
846.516296,306
846.634216,320
846.752197,303
846.870178,309
846.988098,330
847.106079,315
847.22406,319
847.34198,317
847.4599,316
847.577881,319
847.695801,318
847.813782,308
847.931641,317
848.049561,322
848.167603,316
848.285461,310
848.403381,322
848.521362,319
848.639221,317
848.75708,316
848.875,316
848.99292,331
849.110901,318
849.22876,316
849.34668,318
849.464539,303
849.582458,319
849.700317,322
849.818176,318
849.936096,325
850.053955,312
850.171875,323
850.289673,310
850.407593,306
850.525452,317
850.643311,308
850.761169,318
850.878967,327
850.996887,319
851.114746,328
851.232544,322
851.350403,321
851.468262,308
851.58606,317
851.703979,318
851.821777,325
851.939636,317
852.057434,307
852.175232,313
852.293091,309
852.410889,317
852.528687,314
852.646545,318
852.764343,316
852.88208,309
852.999939,325
853.117676,309
853.235535,318
853.353271,323
853.471069,303
853.588928,310
853.706604,327
853.824402,310
853.9422,327
854.059998,308
854.177734,315
854.295532,318
854.413269,314
854.531006,316
854.648804,328
854.766541,303
854.884277,319
855.002014,319
855.119751,323
855.237549,308
855.355225,324
855.473022,305
855.590698,318
855.708435,325
855.826172,300
855.943848,315
856.061646,318
856.179321,307
856.296997,312
856.414795,325
856.53241,324
856.650085,312
856.767822,317
856.885559,305
857.003174,318
857.120911,324
857.238586,307
857.356201,309
857.473938,328
857.591614,309
857.709351,304
857.826965,301
857.944641,315
858.062317,312
858.179993,317
858.297668,312
858.415283,329
858.532959,312
858.650574,322
858.768188,313
858.885803,320
859.003479,313
859.121094,326
859.23877,311
859.356384,317
859.473999,315
859.591675,318
859.709229,316
859.826843,304
859.944458,316
860.062012,311
860.179626,307
860.297302,321
860.414856,304
860.532471,328
860.650024,311
860.767639,315
860.885193,316
861.002808,311
861.120361,317
861.237976,313
861.35553,306
861.473022,313
861.590698,322
861.708191,316
861.825745,320
861.943298,330
862.060852,303
862.178406,308
862.295959,311
862.413513,331
862.531006,316
862.64856,313
862.766113,307
862.883667,327
863.00116,316
863.118713,318
863.236206,312
863.353699,317
863.471252,321
863.588745,307
863.706177,312
863.82373,319
863.941162,312
864.058716,321
864.176208,309
864.29364,320
864.411194,307
864.528687,319
864.646118,316
864.763611,301
864.881042,312
864.998535,311
865.116028,306
865.233459,316
865.350891,331
865.468384,313
865.585754,319
865.703308,314
865.820679,323
865.938171,315
866.055542,325
866.173035,308
866.290466,321
866.407837,316
866.52533,304
866.6427,323
866.760071,307
866.877563,307
866.994934,309
867.112305,311
867.229736,314
867.347107,316
867.464539,315
867.58197,318
867.699341,318
867.81665,313
867.934082,326
868.051453,315
868.168823,306
868.286194,321
868.403564,306
868.520935,323
868.638306,305
868.755676,325
868.872986,317
868.990295,330
869.107727,322
869.225037,308
869.342346,314
869.459717,312
869.577026,318
869.694336,327
869.811707,315
869.929016,313
870.046326,322
870.163635,312
870.280945,325
870.398254,328
870.515564,308
870.632812,326
870.750183,317
870.867432,318
870.984741,309
871.102051,337
871.219299,313
871.336609,314
871.453918,337
871.571106,311
871.688416,321
871.805664,323
871.922852,327
872.040222,320
872.157471,324
872.274719,316
872.391968,314
872.509155,324
872.626465,323
872.743652,315
872.860962,309
872.978149,315
873.095337,322
873.212646,320
873.329834,314
873.44696,314
873.564209,306
873.681396,318
873.798645,312
873.915894,310
874.03302,316
874.150208,306
874.267456,320
874.384583,323
874.501831,318
874.618958,319
874.736145,314
874.853333,324
874.970459,310
875.087646,315
875.204834,308
875.32196,316
875.439148,322
875.556274,324
875.673401,313
875.790527,313
875.907715,314
876.024841,321
876.141968,313
876.259094,319
876.376282,314
876.493347,310
876.610474,304
876.7276,317
876.844727,317
876.961853,320
877.078918,313
877.195984,324
877.313171,305
877.430237,312
877.547302,314
877.664368,323
877.781433,314
877.898499,327
878.015625,307
878.13269,325
878.249695,299
878.366821,325
878.483887,315
878.600952,316
878.717957,312
878.834961,320
878.952087,310
879.069092,315
879.186157,301
879.303162,329
879.420227,331
879.537231,311
879.654236,316
879.77124,308
879.888306,320
880.005249,316
880.122314,309
880.239319,323
880.356323,317
880.473328,317
880.590271,307
880.707275,314
880.824341,318
880.941284,310
881.058228,321
881.175232,315
881.292236,327
881.40918,304
881.526123,321
881.643066,309
881.760071,312
881.877014,324
881.993958,315
882.11084,306
882.227783,313
882.344727,323
882.46167,317
882.578613,319
882.695618,317
882.812439,314
882.929382,312
883.046326,308
883.163208,309
883.280151,313
883.397034,317
883.513916,305
883.630798,318
883.747742,311
883.864563,317
883.981506,320
884.098389,323
884.21521,330
884.332153,314
884.448975,305
884.565796,312
884.682678,326
884.7995,328
884.916443,308
885.033264,320
885.150085,312
885.266968,313
885.383789,333
885.500671,328
885.617493,312
885.734314,322
885.851196,308
885.967896,315
886.084717,326
886.201599,314
886.318359,328
886.435181,319
886.552002,324
886.668762,323
886.785645,322
886.902344,317
887.019165,324
887.135925,320
887.252747,320
887.369446,309
887.486267,324
887.603027,321
887.719788,317
887.836548,313
887.953247,321
888.070068,316
888.186829,320
888.303528,307
888.420288,302
888.536987,319
888.653687,320
888.770447,318
888.887146,313
889.003967,324
889.120667,325
889.237305,299
889.354065,312
889.470703,313
889.587463,306
889.704163,310
889.820862,319
889.937561,298
890.054199,317
890.170837,319
890.287598,304
890.404236,322
890.520874,313
890.637634,308
890.754211,319
890.87085,314
890.987549,316
891.104187,310
891.220886,314
891.337463,311
891.454102,312
891.57074,309
891.687378,321
891.804077,316
891.920654,316
892.037231,314
892.15387,307
892.270447,326
892.387085,325
892.503723,316
892.6203,308
892.736877,320
892.853516,315
892.970032,325
893.08667,316
893.203186,310
893.319763,318
893.43634,314
893.552917,310
893.669556,315
893.786011,320
893.902588,330
894.019165,328
894.135681,314
894.252197,324
894.368835,311
894.485291,310
894.601868,325
894.718384,323
894.8349,319
894.951355,318
895.067932,338
895.184448,319
895.300964,308
895.417419,325
895.533936,322
895.650452,316
895.766907,312
895.883423,321
895.999878,313
896.116333,328
896.232849,324
896.349304,329
896.465759,323
896.582214,332
896.698669,310
896.815125,314
896.931641,320
897.048035,323
897.164551,322
897.280884,317
897.397339,322
897.513794,312
897.630249,316
897.746582,332
897.863098,305
897.979431,299
898.095886,319
898.212341,313
898.328674,328
898.445129,315
898.561462,319
898.677795,308
898.794312,320
898.910645,329
899.026978,319
899.143433,317
899.259766,311
899.37616,312
899.492493,318
899.608765,311
899.725159,312
899.841553,313
899.957947,327
900.07428,315
900.190552,315
900.306946,322
900.423157,318
900.53949,317
900.655884,332
900.772156,309
900.888489,318
901.004822,307
901.121033,321
901.237366,316
901.353699,304
901.46991,319
901.586304,313
901.702515,330
901.818787,309
901.93512,322
902.051331,318
902.167603,315
902.283875,317
902.400085,310
902.516418,329
902.632629,312
902.74884,307
902.865112,321
902.981384,315
903.097595,313
903.213867,309
903.330017,308
903.446289,323
903.5625,330
903.67865,320
903.794922,317
903.911072,304
904.027344,327
904.143494,321
904.259705,304
904.375916,310
904.492065,331
904.608215,319
904.724426,319
904.840576,319
904.956726,333
905.072876,319
905.189087,317
905.305176,310
905.421387,313
905.537537,317
905.653687,317
905.769775,319
905.885925,324
906.002014,312
906.118164,327
906.234314,314
906.350403,321
906.466492,318
906.582642,328
906.69873,326
906.814758,319
906.930908,308
907.046936,320
907.163086,311
907.279175,311
907.395264,306
907.511353,327
907.62738,325
907.743408,301
907.859497,316
907.975525,320
908.091553,320
908.207703,331
908.32373,305
908.439758,317
908.555786,316
908.671814,315
908.787842,306
908.90387,314
909.019775,302
909.135864,310
909.251892,321
909.367859,302
909.483826,316
909.599854,320
909.715881,314
909.831848,318
909.947815,316
910.063782,313
910.179749,308
910.295776,306
910.411743,318
910.527649,312
910.643616,307
910.759583,315
910.875488,322
910.991455,321
911.107361,327
911.223267,320
911.339294,320
911.4552,313
911.571106,326
911.687073,314
911.802979,310
911.918823,318
912.034729,327
912.150635,323
912.266602,314
912.382446,312
912.498352,316
912.614197,311
912.730103,325
912.846008,322
792.44574,316
792.56488,340
792.68396,407
792.80304,397
792.92218,340
793.041199,323
793.160339,338
793.279419,347
793.398499,356
793.517578,329
793.636658,328
793.755737,329
793.874817,357
793.993896,354
794.112976,347
794.232056,316
794.351074,334
794.470215,332
794.589233,341
794.708313,325
794.827393,334
794.946411,336
795.065552,345
795.18457,319
795.303589,325
795.422668,331
795.541687,323
795.660767,344
795.779846,340
795.898865,331
796.017883,324
796.136963,325
796.255981,336
796.375061,339
796.49408,332
796.613037,337
796.732117,326
796.851135,344
796.970154,337
797.089233,318
797.208191,335
797.327271,324
797.446228,342
797.565186,335
797.684265,332
797.803223,331
797.922241,329
798.04126,339
798.160278,332
798.279297,322
798.398315,332
798.517273,326
798.636292,336
798.75531,324
798.874268,337
798.993286,325
799.112244,344
799.231323,316
799.350281,335
799.469238,326
799.588257,338
799.707153,312
799.826111,329
799.945129,335
800.064087,340
800.183044,343
800.302063,324
800.421021,343
800.539978,339
800.658936,333
800.777893,334
800.896912,332
801.015747,341
801.134705,336
801.253723,323
801.37262,328
801.491638,326
801.610535,329
801.729492,343
801.84845,336
801.967407,330
802.086243,327
802.205261,339
802.324158,329
802.443115,323
802.562073,318
802.680969,327
802.799927,332
802.918762,333
803.037659,332
803.156677,335
803.275574,331
803.39447,332
803.513428,324
803.632263,325
803.751221,342
803.870117,321
803.989014,328
804.107971,336
804.226746,328
804.345642,330
804.4646,338
804.583496,348
804.702393,331
804.821228,342
804.940125,336
805.059021,347
805.177917,314
805.296814,324
805.415649,323
805.534546,332
805.653442,332
805.772278,354
805.891113,332
806.01001,335
806.128906,329
806.247742,344
806.366577,325
806.485413,337
806.604309,348
806.723145,319
806.84198,322
806.960876,332
807.079712,343
807.198486,335
807.317383,326
807.436218,333
807.554993,336
807.673889,328
807.792725,349
807.91156,333
808.030396,323
808.14917,327
808.268005,324
808.386841,337
808.505676,328
808.624451,338
808.743286,326
808.862122,338
808.980896,338
809.099731,345
809.218506,334
809.337341,347
809.456116,325
809.57489,349
809.693726,324
809.8125,335
809.931274,335
810.050049,328
810.168884,338
810.287659,333
810.406372,330
810.525269,336
810.643982,332
810.762756,341
810.881531,339
811.000305,341
811.11908,334
811.237854,343
811.356567,330
811.475403,341
811.594116,331
811.71283,342
811.831604,325
811.950378,342
812.069153,336
812.187927,352
812.30658,339
812.425415,323
812.544128,331
812.662781,340
812.781616,329
812.900269,326
813.019043,329
813.137756,337
813.256531,346
813.375244,335
813.493896,330
813.612671,343
813.731384,326
813.850037,344
813.96875,329
814.087524,336
814.206238,338
814.324951,322
814.443604,332
814.562256,329
814.68103,330
814.799683,335
814.918335,336
815.037109,324
815.155762,340
815.274475,333
815.393188,349
815.511841,317
815.630554,337
815.749146,330
815.867859,330
815.986572,331
816.105164,339
816.223877,340
816.342529,328
816.461182,334
816.579895,329
816.698486,339
816.817139,341
816.935791,340
817.054504,322
817.173096,329
817.291748,352
817.4104,339
817.529053,334
817.647644,331
817.766235,319
817.884949,350
818.00354,331
818.122192,340
818.240845,326
818.359436,329
818.478088,307
818.59668,324
818.715271,307
818.833923,329
818.952515,330
819.071106,319
819.189758,326
819.30835,330
819.426941,327
819.545532,330
819.664124,321
819.782715,333
819.901306,323
820.019897,341
820.138489,330
820.25708,330
820.375671,314
820.494202,332
820.612732,308
820.731384,321
820.849915,327
820.968506,319
821.087097,320
821.205627,335
821.324158,333
821.442749,318
821.561279,321
821.679871,323
821.798401,322
821.916931,333
822.035461,318
822.154053,317
822.272583,326
822.391174,332
822.509583,322
822.628174,320
822.746704,328
822.865234,316
822.983765,323
823.102295,315
823.220825,317
823.339294,316
823.457825,329
823.576355,330
823.694824,315
823.813354,323
823.931885,309
824.050354,320
824.168884,306
824.287354,314
824.405823,329
824.524353,316
824.642822,322
824.761353,322
824.879822,314
824.998291,321
825.116699,318
825.235291,322
825.353699,315
825.472168,323
825.590637,317
825.709106,326
825.827576,325
825.946045,322
826.064453,314
826.182983,335
826.301392,293
826.4198,322
826.53833,314
826.656738,329
826.775208,312
826.893677,325
827.012024,320
827.130493,311
827.248962,326
827.36731,314
827.485779,328
827.604248,328
827.722595,313
827.841064,336
827.959412,310
828.077942,322
828.196289,303
828.314636,327
828.433105,301
828.551514,313
828.669861,306
828.78833,318
828.906677,326
829.025085,322
829.143433,320
829.261841,306
829.38031,316
829.498657,329
829.617004,316
829.735413,304
829.85376,315
829.972107,316
830.090515,300
830.208862,335
830.327209,321
830.445557,311
830.563904,312
830.682312,317
830.800659,332
830.919006,313
831.037354,325
831.155701,323
831.274048,319
831.392395,329
831.51062,336
831.629028,311
831.747314,329
831.865662,311
831.984009,325
832.102356,312
832.220642,308
832.338928,333
832.457275,328
832.575623,325
832.693909,319
832.812134,315
832.930481,323
833.048828,311
833.167114,304
833.2854,325
833.403687,316
833.521973,321
833.640259,325
833.758545,314
833.876831,318
833.995056,330
834.113281,299
834.231628,334
834.349915,298
834.468201,314
834.586426,314
834.704651,308
834.822998,325
834.941162,325
835.059448,319
835.177673,311
835.295959,328
835.414246,317
835.53241,305
835.650635,327
835.768921,323
835.887146,326
836.005371,325
836.123596,325
836.241821,318
836.360046,314
836.478271,318
836.596497,323
836.714722,315
836.832886,327
836.95105,306
837.069336,316
837.1875,323
837.305725,329
837.423889,326
837.542053,318
837.660339,326
837.778503,322
837.896667,316
838.014832,327
838.132996,326
838.25116,316
838.369385,312
838.487488,319
838.605713,316
838.723877,331
838.84198,323
838.960205,316
839.078308,305
839.196472,328
839.314636,309
839.4328,326
839.550964,317
839.669067,327
839.787231,311
839.905396,331
840.023499,323
840.141602,323
840.259766,326
840.377869,315
840.495972,314
840.614136,310
840.732239,325
840.850342,310
840.968445,321
841.086548,323
841.204651,314
841.322754,314
841.440918,314
841.55896,318
841.677002,328
841.795166,316
841.913208,317
842.031311,314
842.149353,311
842.267456,318
842.385498,305
842.503601,329
842.621643,297
842.739746,312
842.857788,312
842.97583,320
843.093933,315
843.211975,325
843.330017,314
843.44812,313
843.566101,322
843.684204,325
843.802246,313
843.920227,329
844.038269,320
844.156311,329
844.274292,312
844.392395,326
844.510376,327
844.628357,313
844.74646,319
844.864441,329
844.982422,320
845.100403,319
845.218384,319
845.336426,315
845.454468,334
845.572449,319
845.69043,309
845.808411,320
845.926453,323
846.044373,316
846.162354,315
846.280396,318
846.398315,318
846.516296,339
846.634216,315
846.752197,323
846.870178,314
846.988098,317
847.106079,310
847.22406,313
847.34198,314
847.4599,323
847.577881,311
847.695801,310
847.813782,314
847.931641,325
848.049561,319
848.167603,324
848.285461,320
848.403381,299
848.521362,323
848.639221,330
848.75708,312
848.875,314
848.99292,308
849.110901,327
849.22876,318
849.34668,318
849.464539,326
849.582458,312
849.700317,326
849.818176,312
849.936096,325
850.053955,317
850.171875,310
850.289673,332
850.407593,317
850.525452,325
850.643311,322
850.761169,320
850.878967,322
850.996887,327
851.114746,316
851.232544,325
851.350403,309
851.468262,325
851.58606,329
851.703979,326
851.821777,316
851.939636,325
852.057434,308
852.175232,325
852.293091,303
852.410889,328
852.528687,310
852.646545,321
852.764343,322
852.88208,322
852.999939,322
853.117676,328
853.235535,318
853.353271,316
853.471069,308
853.588928,321
853.706604,311
853.824402,313
853.9422,296
854.059998,316
854.177734,319
854.295532,306
854.413269,315
854.531006,324
854.648804,308
854.766541,329
854.884277,311
855.002014,318
855.119751,320
855.237549,310
855.355225,313
855.473022,327
855.590698,323
855.708435,305
855.826172,314
855.943848,315
856.061646,332
856.179321,308
856.296997,310
856.414795,329
856.53241,315
856.650085,318
856.767822,319
856.885559,326
857.003174,317
857.120911,339
857.238586,312
857.356201,319
857.473938,323
857.591614,326
857.709351,307
857.826965,320
857.944641,324
858.062317,315
858.179993,301
858.297668,319
858.415283,318
858.532959,318
858.650574,317
858.768188,309
858.885803,311
859.003479,328
859.121094,326
859.23877,312
859.356384,314
859.473999,334
859.591675,319
859.709229,326
859.826843,304
859.944458,300
860.062012,309
860.179626,316
860.297302,311
860.414856,313
860.532471,310
860.650024,326
860.767639,306
860.885193,312
861.002808,325
861.120361,306
861.237976,329
861.35553,311
861.473022,318
861.590698,314
861.708191,320
861.825745,315
861.943298,319
862.060852,325
862.178406,314
862.295959,310
862.413513,314
862.531006,324
862.64856,302
862.766113,312
862.883667,308
863.00116,320
863.118713,314
863.236206,316
863.353699,316
863.471252,311
863.588745,312
863.706177,330
863.82373,309
863.941162,315
864.058716,313
864.176208,310
864.29364,319
864.411194,315
864.528687,306
864.646118,326
864.763611,316
864.881042,320
864.998535,325
865.116028,310
865.233459,306
865.350891,322
865.468384,307
865.585754,319
865.703308,317
865.820679,314
865.938171,319
866.055542,316
866.173035,315
866.290466,324
866.407837,318
866.52533,313
866.6427,315
866.760071,319
866.877563,302
866.994934,318
867.112305,309
867.229736,316
867.347107,311
867.464539,331
867.58197,315
867.699341,320
867.81665,314
867.934082,322
868.051453,311
868.168823,322
868.286194,306
868.403564,317
868.520935,317
868.638306,326
868.755676,315
868.872986,326
868.990295,311
869.107727,318
869.225037,318
869.342346,327
869.459717,319
869.577026,321
869.694336,312
869.811707,332
869.929016,316
870.046326,318
870.163635,306
870.280945,330
870.398254,320
870.515564,325
870.632812,324
870.750183,318
870.867432,309
870.984741,321
871.102051,302
871.219299,328
871.336609,316
871.453918,324
871.571106,324
871.688416,316
871.805664,310
871.922852,320
872.040222,313
872.157471,314
872.274719,327
872.391968,320
872.509155,315
872.626465,302
872.743652,335
872.860962,315
872.978149,308
873.095337,320
873.212646,322
873.329834,327
873.44696,305
873.564209,329
873.681396,326
873.798645,311
873.915894,318
874.03302,316
874.150208,316
874.267456,326
874.384583,317
874.501831,319
874.618958,313
874.736145,316
874.853333,328
874.970459,317
875.087646,317
875.204834,331
875.32196,312
875.439148,321
875.556274,313
875.673401,328
875.790527,310
875.907715,318
876.024841,313
876.141968,324
876.259094,314
876.376282,306
876.493347,327
876.610474,318
876.7276,305
876.844727,329
876.961853,313
877.078918,326
877.195984,318
877.313171,328
877.430237,312
877.547302,322
877.664368,311
877.781433,319
877.898499,319
878.015625,317
878.13269,306
878.249695,321
878.366821,309
878.483887,317
878.600952,322
878.717957,313
878.834961,329
878.952087,321
879.069092,316
879.186157,319
879.303162,316
879.420227,317
879.537231,317
879.654236,332
879.77124,316
879.888306,306
880.005249,316
880.122314,303
880.239319,323
880.356323,319
880.473328,309
880.590271,326
880.707275,309
880.824341,324
880.941284,327
881.058228,308
881.175232,321
881.292236,311
881.40918,307
881.526123,326
881.643066,307
881.760071,314
881.877014,314
881.993958,317
882.11084,319
882.227783,302
882.344727,307
882.46167,323
882.578613,304
882.695618,330
882.812439,313
882.929382,316
883.046326,308
883.163208,316
883.280151,325
883.397034,319
883.513916,316
883.630798,305
883.747742,309
883.864563,318
883.981506,308
884.098389,311
884.21521,322
884.332153,333
884.448975,315
884.565796,321
884.682678,321
884.7995,320
884.916443,316
885.033264,321
885.150085,322
885.266968,316
885.383789,325
885.500671,319
885.617493,310
885.734314,317
885.851196,318
885.967896,313
886.084717,321
886.201599,319
886.318359,301
886.435181,314
886.552002,309
886.668762,319
886.785645,321
886.902344,316
887.019165,323
887.135925,322
887.252747,316
887.369446,331
887.486267,330
887.603027,323
887.719788,312
887.836548,320
887.953247,315
888.070068,308
888.186829,309
888.303528,322
888.420288,321
888.536987,326
888.653687,325
888.770447,312
888.887146,319
889.003967,333
889.120667,312
889.237305,331
889.354065,315
889.470703,322
889.587463,309
889.704163,321
889.820862,295
889.937561,326
890.054199,318
890.170837,327
890.287598,326
890.404236,328
890.520874,321
890.637634,315
890.754211,329
890.87085,323
890.987549,319
891.104187,309
891.220886,310
891.337463,323
891.454102,319
891.57074,325
891.687378,322
891.804077,322
891.920654,312
892.037231,308
892.15387,328
892.270447,315
892.387085,304
892.503723,325
892.6203,305
892.736877,321
892.853516,317
892.970032,312
893.08667,311
893.203186,317
893.319763,316
893.43634,328
893.552917,325
893.669556,312
893.786011,309
893.902588,317
894.019165,306
894.135681,315
894.252197,328
894.368835,324
894.485291,325
894.601868,332
894.718384,316
894.8349,314
894.951355,317
895.067932,324
895.184448,316
895.300964,325
895.417419,312
895.533936,319
895.650452,319
895.766907,321
895.883423,318
895.999878,327
896.116333,316
896.232849,321
896.349304,317
896.465759,317
896.582214,312
896.698669,319
896.815125,305
896.931641,315
897.048035,314
897.164551,325
897.280884,313
897.397339,325
897.513794,307
897.630249,316
897.746582,327
897.863098,331
897.979431,318
898.095886,327
898.212341,313
898.328674,316
898.445129,319
898.561462,314
898.677795,316
898.794312,324
898.910645,311
899.026978,324
899.143433,317
899.259766,303
899.37616,319
899.492493,331
899.608765,326
899.725159,306
899.841553,317
899.957947,321
900.07428,318
900.190552,329
900.306946,313
900.423157,321
900.53949,328
900.655884,328
900.772156,310
900.888489,322
901.004822,315
901.121033,327
901.237366,312
901.353699,328
901.46991,308
901.586304,321
901.702515,314
901.818787,317
901.93512,309
902.051331,326
902.167603,309
902.283875,324
902.400085,312
902.516418,318
902.632629,317
902.74884,319
902.865112,318
902.981384,325
903.097595,309
903.213867,316
903.330017,310
903.446289,338
903.5625,320
903.67865,309
903.794922,313
903.911072,316
904.027344,330
904.143494,325
904.259705,295
904.375916,318
904.492065,323
904.608215,321
904.724426,312
904.840576,310
904.956726,310
905.072876,333
905.189087,309
905.305176,326
905.421387,332
905.537537,321
905.653687,322
905.769775,329
905.885925,323
906.002014,329
906.118164,321
906.234314,317
906.350403,316
906.466492,331
906.582642,312
906.69873,319
906.814758,321
906.930908,311
907.046936,318
907.163086,315
907.279175,310
907.395264,325
907.511353,319
907.62738,335
907.743408,319
907.859497,326
907.975525,316
908.091553,323
908.207703,316
908.32373,313
908.439758,304
908.555786,324
908.671814,319
908.787842,315
908.90387,315
909.019775,320
909.135864,319
909.251892,327
909.367859,319
909.483826,311
909.599854,318
909.715881,318
909.831848,330
909.947815,315
910.063782,311
910.179749,316
910.295776,313
910.411743,327
910.527649,317
910.643616,320
910.759583,316
910.875488,320
910.991455,327
911.107361,326
911.223267,323
911.339294,332
911.4552,322
911.571106,319
911.687073,311
911.802979,307
911.918823,320
912.034729,321
912.150635,307
912.266602,324
912.382446,322
912.498352,316
912.614197,319
912.730103,328
912.846008,307
792.44574,316
792.56488,362
792.68396,396
792.80304,378
792.92218,352
793.041199,315
793.160339,325
793.279419,328
793.398499,332
793.517578,321
793.636658,331
793.755737,329
793.874817,346
793.993896,351
794.112976,339
794.232056,320
794.351074,333
794.470215,334
794.589233,332
794.708313,322
794.827393,336
794.946411,326
795.065552,343
795.18457,345
795.303589,332
795.422668,334
795.541687,337
795.660767,325
795.779846,338
795.898865,323
796.017883,322
796.136963,335
796.255981,333
796.375061,332
796.49408,328
796.613037,328
796.732117,333
796.851135,349
796.970154,336
797.089233,331
797.208191,320
797.327271,341
797.446228,331
797.565186,328
797.684265,322
797.803223,336
797.922241,323
798.04126,324
798.160278,317
798.279297,344
798.398315,327
798.517273,330
798.636292,327
798.75531,336
798.874268,325
798.993286,335
799.112244,328
799.231323,332
799.350281,332
799.469238,333
799.588257,329
799.707153,322
799.826111,334
799.945129,348
800.064087,338
800.183044,336
800.302063,326
800.421021,328
800.539978,335
800.658936,334
800.777893,338
800.896912,335
801.015747,335
801.134705,320
801.253723,333
801.37262,323
801.491638,329
801.610535,336
801.729492,338
801.84845,324
801.967407,329
802.086243,334
802.205261,331
802.324158,324
802.443115,337
802.562073,341
802.680969,327
802.799927,341
802.918762,334
803.037659,326
803.156677,314
803.275574,339
803.39447,325
803.513428,334
803.632263,338
803.751221,336
803.870117,337
803.989014,325
804.107971,328
804.226746,325
804.345642,333
804.4646,332
804.583496,337
804.702393,324
804.821228,333
804.940125,335
805.059021,324
805.177917,336
805.296814,332
805.415649,328
805.534546,336
805.653442,328
805.772278,337
805.891113,335
806.01001,335
806.128906,341
806.247742,336
806.366577,326
806.485413,341
806.604309,336
806.723145,339
806.84198,332
806.960876,337
807.079712,320
807.198486,339
807.317383,340
807.436218,333
807.554993,329
807.673889,334
807.792725,340
807.91156,338
808.030396,313
808.14917,327
808.268005,332
808.386841,340
808.505676,327
808.624451,327
808.743286,333
808.862122,337
808.980896,337
809.099731,335
809.218506,332
809.337341,326
809.456116,314
809.57489,331
809.693726,337
809.8125,321
809.931274,334
810.050049,333
810.168884,329
810.287659,346
810.406372,345
810.525269,334
810.643982,325
810.762756,333
810.881531,346
811.000305,338
811.11908,335
811.237854,320
811.356567,335
811.475403,331
811.594116,339
811.71283,328
811.831604,349
811.950378,335
812.069153,329
812.187927,339
812.30658,331
812.425415,333
812.544128,331
812.662781,330
812.781616,337
812.900269,338
813.019043,345
813.137756,344
813.256531,312
813.375244,336
813.493896,322
813.612671,340
813.731384,327
813.850037,331
813.96875,331
814.087524,342
814.206238,334
814.324951,327
814.443604,316
814.562256,346
814.68103,336
814.799683,334
814.918335,322
815.037109,330
815.155762,338
815.274475,332
815.393188,314
815.511841,333
815.630554,332
815.749146,333
815.867859,334
815.986572,327
816.105164,330
816.223877,337
816.342529,327
816.461182,338
816.579895,325
816.698486,331
816.817139,338
816.935791,343
817.054504,332
817.173096,334
817.291748,332
817.4104,344
817.529053,331
817.647644,337
817.766235,332
817.884949,328
818.00354,322
818.122192,337
818.240845,325
818.359436,338
818.478088,331
818.59668,322
818.715271,307
818.833923,316
818.952515,321
819.071106,332
819.189758,323
819.30835,336
819.426941,318
819.545532,330
819.664124,325
819.782715,322
819.901306,313
820.019897,325
820.138489,317
820.25708,323
820.375671,324
820.494202,310
820.612732,308
820.731384,325
820.849915,304
820.968506,330
821.087097,312
821.205627,318
821.324158,309
821.442749,322
821.561279,331
821.679871,314
821.798401,331
821.916931,316
822.035461,331
822.154053,322
822.272583,313
822.391174,321
822.509583,321
822.628174,326
822.746704,324
822.865234,322
822.983765,327
823.102295,308
823.220825,309
823.339294,316
823.457825,304
823.576355,312
823.694824,315
823.813354,321
823.931885,310
824.050354,331
824.168884,330
824.287354,332
824.405823,317
824.524353,331
824.642822,314
824.761353,314
824.879822,331
824.998291,328
825.116699,323
825.235291,322
825.353699,323
825.472168,325
825.590637,325
825.709106,318
825.827576,317
825.946045,323
826.064453,311
826.182983,335
826.301392,313
826.4198,316
826.53833,324
826.656738,330
826.775208,318
826.893677,318
827.012024,328
827.130493,325
827.248962,326
827.36731,323
827.485779,318
827.604248,315
827.722595,319
827.841064,306
827.959412,328
828.077942,321
828.196289,316
828.314636,315
828.433105,316
828.551514,323
828.669861,317
828.78833,311
828.906677,316
829.025085,319
829.143433,323
829.261841,316
829.38031,332
829.498657,325
829.617004,313
829.735413,318
829.85376,322
829.972107,319
830.090515,320
830.208862,326
830.327209,312
830.445557,313
830.563904,318
830.682312,312
830.800659,327
830.919006,313
831.037354,320
831.155701,305
831.274048,314
831.392395,307
831.51062,325
831.629028,320
831.747314,309
831.865662,326
831.984009,336
832.102356,319
832.220642,331
832.338928,324
832.457275,298
832.575623,329
832.693909,318
832.812134,313
832.930481,315
833.048828,327
833.167114,312
833.2854,316
833.403687,314
833.521973,313
833.640259,311
833.758545,324
833.876831,321
833.995056,322
834.113281,317
834.231628,314
834.349915,316
834.468201,326
834.586426,306
834.704651,308
834.822998,312
834.941162,321
835.059448,333
835.177673,331
835.295959,314
835.414246,321
835.53241,322
835.650635,325
835.768921,325
835.887146,323
836.005371,318
836.123596,318
836.241821,315
836.360046,323
836.478271,316
836.596497,319
836.714722,319
836.832886,336
836.95105,327
837.069336,318
837.1875,310
837.305725,315
837.423889,321
837.542053,317
837.660339,319
837.778503,317
837.896667,308
838.014832,322
838.132996,317
838.25116,305
838.369385,323
838.487488,309
838.605713,310
838.723877,325
838.84198,306
838.960205,312
839.078308,329
839.196472,320
839.314636,336
839.4328,315
839.550964,320
839.669067,311
839.787231,314
839.905396,306
840.023499,309
840.141602,333
840.259766,316
840.377869,302
840.495972,314
840.614136,317
840.732239,313
840.850342,318
840.968445,324
841.086548,329
841.204651,314
841.322754,324
841.440918,322
841.55896,308
841.677002,323
841.795166,309
841.913208,326
842.031311,322
842.149353,322
842.267456,328
842.385498,304
842.503601,317
842.621643,317
842.739746,329
842.857788,306
842.97583,327
843.093933,318
843.211975,328
843.330017,319
843.44812,321
843.566101,317
843.684204,316
843.802246,310
843.920227,312
844.038269,317
844.156311,314
844.274292,323
844.392395,308
844.510376,327
844.628357,323
844.74646,318
844.864441,315
844.982422,307
845.100403,322
845.218384,310
845.336426,311
845.454468,309
845.572449,311
845.69043,310
845.808411,322
845.926453,320
846.044373,322
846.162354,307
846.280396,319
846.398315,314
846.516296,318
846.634216,314
846.752197,314
846.870178,313
846.988098,320
847.106079,305
847.22406,318
847.34198,318
847.4599,332
847.577881,314
847.695801,331
847.813782,306
847.931641,306
848.049561,316
848.167603,316
848.285461,312
848.403381,318
848.521362,316
848.639221,318
848.75708,309
848.875,310
848.99292,321
849.110901,334
849.22876,309
849.34668,311
849.464539,307
849.582458,304
849.700317,304
849.818176,326
849.936096,316
850.053955,306
850.171875,315
850.289673,318
850.407593,319
850.525452,329
850.643311,306
850.761169,309
850.878967,318
850.996887,325
851.114746,320
851.232544,308
851.350403,311
851.468262,318
851.58606,312
851.703979,316
851.821777,323
851.939636,319
852.057434,314
852.175232,323
852.293091,303
852.410889,309
852.528687,314
852.646545,307
852.764343,317
852.88208,312
852.999939,315
853.117676,325
853.235535,313
853.353271,320
853.471069,302
853.588928,312
853.706604,322
853.824402,320
853.9422,322
854.059998,313
854.177734,301
854.295532,320
854.413269,313
854.531006,320
854.648804,316
854.766541,307
854.884277,317
855.002014,325
855.119751,304
855.237549,312
855.355225,313
855.473022,315
855.590698,311
855.708435,318
855.826172,318
855.943848,323
856.061646,314
856.179321,312
856.296997,333
856.414795,319
856.53241,303
856.650085,317
856.767822,302
856.885559,310
857.003174,324
857.120911,317
857.238586,326
857.356201,325
857.473938,309
857.591614,325
857.709351,323
857.826965,313
857.944641,311
858.062317,322
858.179993,329
858.297668,315
858.415283,318
858.532959,331
858.650574,315
858.768188,313
858.885803,311
859.003479,317
859.121094,316
859.23877,314
859.356384,315
859.473999,320
859.591675,329
859.709229,325
859.826843,326
859.944458,322
860.062012,314
860.179626,320
860.297302,310
860.414856,316
860.532471,303
860.650024,324
860.767639,308
860.885193,315
861.002808,323
861.120361,316
861.237976,316
861.35553,337
861.473022,306
861.590698,320
861.708191,305
861.825745,319
861.943298,314
862.060852,316
862.178406,330
862.295959,325
862.413513,314
862.531006,323
862.64856,313
862.766113,331
862.883667,307
863.00116,314
863.118713,304
863.236206,314
863.353699,309
863.471252,314
863.588745,322
863.706177,320
863.82373,322
863.941162,325
864.058716,319
864.176208,323
864.29364,318
864.411194,306
864.528687,322
864.646118,306
864.763611,305
864.881042,315
864.998535,321
865.116028,325
865.233459,321
865.350891,317
865.468384,319
865.585754,326
865.703308,321
865.820679,321
865.938171,317
866.055542,331
866.173035,311
866.290466,313
866.407837,314
866.52533,323
866.6427,314
866.760071,323
866.877563,313
866.994934,312
867.112305,318
867.229736,322
867.347107,328
867.464539,310
867.58197,320
867.699341,310
867.81665,301
867.934082,332
868.051453,320
868.168823,325
868.286194,307
868.403564,329
868.520935,313
868.638306,316
868.755676,315
868.872986,312
868.990295,311
869.107727,307
869.225037,319
869.342346,313
869.459717,314
869.577026,326
869.694336,323
869.811707,316
869.929016,310
870.046326,312
870.163635,314
870.280945,316
870.398254,309
870.515564,325
870.632812,325
870.750183,309
870.867432,314
870.984741,316
871.102051,314
871.219299,310
871.336609,309
871.453918,332
871.571106,311
871.688416,332
871.805664,304
871.922852,298
872.040222,312
872.157471,327
872.274719,319
872.391968,321
872.509155,310
872.626465,310
872.743652,311
872.860962,323
872.978149,308
873.095337,319
873.212646,305
873.329834,313
873.44696,322
873.564209,317
873.681396,309
873.798645,313
873.915894,313
874.03302,324
874.150208,317
874.267456,323
874.384583,307
874.501831,323
874.618958,317
874.736145,323
874.853333,315
874.970459,328
875.087646,315
875.204834,315
875.32196,305
875.439148,314
875.556274,316
875.673401,332
875.790527,312
875.907715,329
876.024841,310
876.141968,325
876.259094,313
876.376282,307
876.493347,313
876.610474,315
876.7276,301
876.844727,329
876.961853,313
877.078918,325
877.195984,327
877.313171,320
877.430237,316
877.547302,324
877.664368,301
877.781433,319
877.898499,313
878.015625,328
878.13269,323
878.249695,328
878.366821,309
878.483887,318
878.600952,316
878.717957,320
878.834961,312
878.952087,313
879.069092,313
879.186157,322
879.303162,319
879.420227,311
879.537231,314
879.654236,311
879.77124,323
879.888306,330
880.005249,317
880.122314,323
880.239319,311
880.356323,328
880.473328,307
880.590271,307
880.707275,309
880.824341,321
880.941284,311
881.058228,324
881.175232,314
881.292236,330
881.40918,316
881.526123,328
881.643066,311
881.760071,317
881.877014,338
881.993958,313
882.11084,320
882.227783,316
882.344727,317
882.46167,311
882.578613,315
882.695618,320
882.812439,309
882.929382,325
883.046326,312
883.163208,311
883.280151,314
883.397034,310
883.513916,309
883.630798,317
883.747742,317
883.864563,327
883.981506,323
884.098389,326
884.21521,323
884.332153,313
884.448975,318
884.565796,325
884.682678,317
884.7995,320
884.916443,305
885.033264,309
885.150085,308
885.266968,329
885.383789,318
885.500671,313
885.617493,305
885.734314,317
885.851196,298
885.967896,321
886.084717,319
886.201599,327
886.318359,319
886.435181,320
886.552002,314
886.668762,327
886.785645,315
886.902344,300
887.019165,307
887.135925,320
887.252747,314
887.369446,323
887.486267,313
887.603027,325
887.719788,321
887.836548,320
887.953247,306
888.070068,329
888.186829,327
888.303528,324
888.420288,318
888.536987,325
888.653687,313
888.770447,326
888.887146,321
889.003967,302
889.120667,320
889.237305,325
889.354065,303
889.470703,329
889.587463,313
889.704163,310
889.820862,314
889.937561,308
890.054199,311
890.170837,314
890.287598,312
890.404236,331
890.520874,316
890.637634,329
890.754211,317
890.87085,320
890.987549,302
891.104187,320
891.220886,313
891.337463,320
891.454102,322
891.57074,324
891.687378,302
891.804077,336
891.920654,306
892.037231,318
892.15387,307
892.270447,297
892.387085,317
892.503723,320
892.6203,324
892.736877,317
892.853516,315
892.970032,328
893.08667,314
893.203186,322
893.319763,306
893.43634,311
893.552917,315
893.669556,317
893.786011,315
893.902588,321
894.019165,319
894.135681,325
894.252197,314
894.368835,321
894.485291,317
894.601868,321
894.718384,316
894.8349,320
894.951355,326
895.067932,315
895.184448,306
895.300964,321
895.417419,323
895.533936,319
895.650452,310
895.766907,327
895.883423,323
895.999878,321
896.116333,325
896.232849,307
896.349304,321
896.465759,326
896.582214,319
896.698669,319
896.815125,326
896.931641,314
897.048035,324
897.164551,315
897.280884,319
897.397339,313
897.513794,313
897.630249,338
897.746582,307
897.863098,326
897.979431,318
898.095886,315
898.212341,313
898.328674,315
898.445129,322
898.561462,318
898.677795,314
898.794312,324
898.910645,315
899.026978,320
899.143433,321
899.259766,310
899.37616,310
899.492493,315
899.608765,306
899.725159,326
899.841553,318
899.957947,329
900.07428,320
900.190552,317
900.306946,306
900.423157,315
900.53949,324
900.655884,321
900.772156,322
900.888489,333
901.004822,298
901.121033,312
901.237366,313
901.353699,318
901.46991,319
901.586304,315
901.702515,311
901.818787,304
901.93512,316
902.051331,318
902.167603,324
902.283875,326
902.400085,310
902.516418,322
902.632629,313
902.74884,308
902.865112,302
902.981384,328
903.097595,302
903.213867,334
903.330017,317
903.446289,324
903.5625,299
903.67865,327
903.794922,324
903.911072,320
904.027344,313
904.143494,327
904.259705,313
904.375916,312
904.492065,317
904.608215,316
904.724426,313
904.840576,317
904.956726,321
905.072876,313
905.189087,327
905.305176,317
905.421387,316
905.537537,313
905.653687,314
905.769775,317
905.885925,315
906.002014,315
906.118164,317
906.234314,317
906.350403,308
906.466492,308
906.582642,321
906.69873,327
906.814758,312
906.930908,316
907.046936,311
907.163086,316
907.279175,315
907.395264,326
907.511353,319
907.62738,320
907.743408,317
907.859497,325
907.975525,305
908.091553,313
908.207703,324
908.32373,322
908.439758,317
908.555786,323
908.671814,321
908.787842,329
908.90387,326
909.019775,321
909.135864,310
909.251892,321
909.367859,313
909.483826,310
909.599854,322
909.715881,332
909.831848,312
909.947815,322
910.063782,305
910.179749,336
910.295776,309
910.411743,316
910.527649,315
910.643616,328
910.759583,307
910.875488,330
910.991455,303
911.107361,308
911.223267,321
911.339294,326
911.4552,320
911.571106,326
911.687073,300
911.802979,320
911.918823,310
912.034729,315
912.150635,312
912.266602,315
912.382446,318
912.498352,318
912.614197,327
912.730103,324
912.846008,316
