792.44574,333
792.56488,369
792.68396,416
792.80304,399
792.92218,353
793.041199,333
793.160339,345
793.279419,347
793.398499,336
793.517578,305
793.636658,334
793.755737,343
793.874817,367
793.993896,351
794.112976,339
794.232056,334
794.351074,347
794.470215,343
794.589233,337
794.708313,325
794.827393,341
794.946411,344
795.065552,341
795.18457,364
795.303589,327
795.422668,322
795.541687,352
795.660767,340
795.779846,325
795.898865,334
796.017883,347
796.136963,329
796.255981,342
796.375061,347
796.49408,331
796.613037,347
796.732117,328
796.851135,329
796.970154,340
797.089233,331
797.208191,340
797.327271,337
797.446228,342
797.565186,333
797.684265,333
797.803223,343
797.922241,335
798.04126,322
798.160278,354
798.279297,348
798.398315,330
798.517273,331
798.636292,333
798.75531,338
798.874268,333
798.993286,334
799.112244,326
799.231323,339
799.350281,327
799.469238,330
799.588257,324
799.707153,327
799.826111,341
799.945129,337
800.064087,334
800.183044,333
800.302063,345
800.421021,336
800.539978,337
800.658936,334
800.777893,329
800.896912,327
801.015747,333
801.134705,337
801.253723,324
801.37262,334
801.491638,335
801.610535,350
801.729492,326
801.84845,334
801.967407,333
802.086243,333
802.205261,339
802.324158,331
802.443115,335
802.562073,340
802.680969,323
802.799927,322
802.918762,328
803.037659,333
803.156677,344
803.275574,324
803.39447,335
803.513428,335
803.632263,341
803.751221,333
803.870117,335
803.989014,334
804.107971,341
804.226746,332
804.345642,346
804.4646,321
804.583496,329
804.702393,335
804.821228,330
804.940125,343
805.059021,319
805.177917,317
805.296814,333
805.415649,334
805.534546,342
805.653442,334
805.772278,328
805.891113,345
806.01001,323
806.128906,339
806.247742,333
806.366577,329
806.485413,336
806.604309,345
806.723145,344
806.84198,341
806.960876,330
807.079712,344
807.198486,339
807.317383,333
807.436218,360
807.554993,318
807.673889,335
807.792725,340
807.91156,323
808.030396,336
808.14917,330
808.268005,341
808.386841,329
808.505676,324
808.624451,343
808.743286,330
808.862122,329
808.980896,333
809.099731,332
809.218506,340
809.337341,328
809.456116,332
809.57489,338
809.693726,328
809.8125,339
809.931274,329
810.050049,327
810.168884,339
810.287659,353
810.406372,333
810.525269,331
810.643982,337
810.762756,338
810.881531,332
811.000305,341
811.11908,338
811.237854,328
811.356567,339
811.475403,337
811.594116,346
811.71283,326
811.831604,335
811.950378,347
812.069153,339
812.187927,328
812.30658,329
812.425415,332
812.544128,328
812.662781,329
812.781616,338
812.900269,338
813.019043,335
813.137756,332
813.256531,346
813.375244,327
813.493896,338
813.612671,345
813.731384,320
813.850037,343
813.96875,322
814.087524,339
814.206238,335
814.324951,347
814.443604,334
814.562256,337
814.68103,336
814.799683,340
814.918335,337
815.037109,339
815.155762,328
815.274475,341
815.393188,331
815.511841,347
815.630554,337
815.749146,341
815.867859,335
815.986572,336
816.105164,326
816.223877,333
816.342529,324
816.461182,331
816.579895,332
816.698486,339
816.817139,328
816.935791,332
817.054504,321
817.173096,327
817.291748,328
817.4104,331
817.529053,334
817.647644,320
817.766235,317
817.884949,324
818.00354,314
818.122192,345
818.240845,327
818.359436,322
818.478088,334
818.59668,334
818.715271,318
818.833923,322
818.952515,330
819.071106,323
819.189758,326
819.30835,324
819.426941,324
819.545532,332
819.664124,302
819.782715,328
819.901306,325
820.019897,327
820.138489,320
820.25708,328
820.375671,321
820.494202,326
820.612732,324
820.731384,323
820.849915,315
820.968506,312
821.087097,309
821.205627,315
821.324158,313
821.442749,313
821.561279,316
821.679871,310
821.798401,311
821.916931,335
822.035461,319
822.154053,327
822.272583,318
822.391174,316
822.509583,313
822.628174,328
822.746704,322
822.865234,333
822.983765,307
823.102295,316
823.220825,317
823.339294,340
823.457825,310
823.576355,328
823.694824,316
823.813354,320
823.931885,325
824.050354,332
824.168884,322
824.287354,333
824.405823,321
824.524353,313
824.642822,317
824.761353,328
824.879822,309
824.998291,325
825.116699,324
825.235291,325
825.353699,313
825.472168,318
825.590637,333
825.709106,317
825.827576,329
825.946045,315
826.064453,317
826.182983,335
826.301392,308
826.4198,323
826.53833,329
826.656738,319
826.775208,311
826.893677,324
827.012024,308
827.130493,316
827.248962,320
827.36731,306
827.485779,316
827.604248,322
827.722595,311
827.841064,324
827.959412,311
828.077942,321
828.196289,323
828.314636,320
828.433105,313
828.551514,319
828.669861,328
828.78833,325
828.906677,314
829.025085,322
829.143433,322
829.261841,321
829.38031,311
829.498657,325
829.617004,308
829.735413,321
829.85376,317
829.972107,314
830.090515,322
830.208862,316
830.327209,309
830.445557,311
830.563904,319
830.682312,315
830.800659,318
830.919006,315
831.037354,326
831.155701,316
831.274048,307
831.392395,327
831.51062,302
831.629028,318
831.747314,307
831.865662,314
831.984009,310
832.102356,325
832.220642,314
832.338928,330
832.457275,317
832.575623,308
832.693909,331
832.812134,328
832.930481,307
833.048828,322
833.167114,317
833.2854,331
833.403687,317
833.521973,330
833.640259,317
833.758545,328
833.876831,310
833.995056,332
834.113281,313
834.231628,329
834.349915,307
834.468201,325
834.586426,322
834.704651,328
834.822998,321
834.941162,320
835.059448,314
835.177673,320
835.295959,313
835.414246,315
835.53241,326
835.650635,327
835.768921,315
835.887146,327
836.005371,308
836.123596,318
836.241821,297
836.360046,322
836.478271,312
836.596497,320
836.714722,312
836.832886,326
836.95105,324
837.069336,327
837.1875,327
837.305725,311
837.423889,316
837.542053,326
837.660339,315
837.778503,319
837.896667,311
838.014832,328
838.132996,323
838.25116,314
838.369385,311
838.487488,324
838.605713,314
838.723877,331
838.84198,320
838.960205,315
839.078308,333
839.196472,313
839.314636,313
839.4328,317
839.550964,321
839.669067,321
839.787231,333
839.905396,324
840.023499,323
840.141602,319
840.259766,309
840.377869,308
840.495972,323
840.614136,329
840.732239,323
840.850342,332
840.968445,313
841.086548,328
841.204651,311
841.322754,333
841.440918,313
841.55896,309
841.677002,308
841.795166,324
841.913208,324
842.031311,310
842.149353,298
842.267456,320
842.385498,313
842.503601,335
842.621643,325
842.739746,330
842.857788,312
842.97583,314
843.093933,332
843.211975,315
843.330017,314
843.44812,313
843.566101,330
843.684204,330
843.802246,314
843.920227,315
844.038269,312
844.156311,318
844.274292,316
844.392395,312
844.510376,327
844.628357,333
844.74646,320
844.864441,319
844.982422,322
845.100403,319
845.218384,325
845.336426,313
845.454468,314
845.572449,303
845.69043,308
845.808411,328
845.926453,325
846.044373,316
846.162354,322
846.280396,324
846.398315,319
846.516296,329
846.634216,305
846.752197,320
846.870178,321
846.988098,335
847.106079,312
847.22406,321
847.34198,327
847.4599,334
847.577881,339
847.695801,309
847.813782,303
847.931641,314
848.049561,309
848.167603,314
848.285461,308
848.403381,316
848.521362,324
848.639221,316
848.75708,315
848.875,316
848.99292,304
849.110901,326
849.22876,308
849.34668,326
849.464539,317
849.582458,323
849.700317,311
849.818176,324
849.936096,318
850.053955,308
850.171875,307
850.289673,333
850.407593,322
850.525452,304
850.643311,319
850.761169,319
850.878967,303
850.996887,318
851.114746,313
851.232544,321
851.350403,303
851.468262,329
851.58606,323
851.703979,325
851.821777,313
851.939636,309
852.057434,331
852.175232,320
852.293091,315
852.410889,313
852.528687,323
852.646545,320
852.764343,317
852.88208,332
852.999939,318
853.117676,321
853.235535,321
853.353271,314
853.471069,330
853.588928,316
853.706604,305
853.824402,330
853.9422,323
854.059998,315
854.177734,315
854.295532,314
854.413269,314
854.531006,324
854.648804,322
854.766541,314
854.884277,319
855.002014,318
855.119751,311
855.237549,316
855.355225,305
855.473022,315
855.590698,302
855.708435,316
855.826172,321
855.943848,311
856.061646,315
856.179321,321
856.296997,308
856.414795,328
856.53241,323
856.650085,318
856.767822,323
856.885559,318
857.003174,312
857.120911,312
857.238586,319
857.356201,318
857.473938,307
857.591614,313
857.709351,309
857.826965,314
857.944641,321
858.062317,312
858.179993,328
858.297668,330
858.415283,309
858.532959,329
858.650574,320
858.768188,324
858.885803,311
859.003479,329
859.121094,318
859.23877,322
859.356384,317
859.473999,328
859.591675,311
859.709229,321
859.826843,316
859.944458,314
860.062012,300
860.179626,316
860.297302,309
860.414856,309
860.532471,310
860.650024,326
860.767639,304
860.885193,316
861.002808,314
861.120361,318
861.237976,334
861.35553,321
861.473022,321
861.590698,323
861.708191,329
861.825745,319
861.943298,324
862.060852,321
862.178406,312
862.295959,318
862.413513,313
862.531006,323
862.64856,316
862.766113,314
862.883667,316
863.00116,326
863.118713,302
863.236206,327
863.353699,314
863.471252,314
863.588745,316
863.706177,320
863.82373,324
863.941162,317
864.058716,318
864.176208,316
864.29364,308
864.411194,323
864.528687,326
864.646118,327
864.763611,321
864.881042,312
864.998535,335
865.116028,313
865.233459,328
865.350891,327
865.468384,304
865.585754,322
865.703308,320
865.820679,321
865.938171,329
866.055542,317
866.173035,322
866.290466,323
866.407837,318
866.52533,311
866.6427,313
866.760071,331
866.877563,311
866.994934,326
867.112305,317
867.229736,317
867.347107,316
867.464539,300
867.58197,318
867.699341,318
867.81665,310
867.934082,320
868.051453,317
868.168823,329
868.286194,329
868.403564,327
868.520935,320
868.638306,329
868.755676,313
868.872986,314
868.990295,324
869.107727,320
869.225037,317
869.342346,319
869.459717,320
869.577026,316
869.694336,325
869.811707,325
869.929016,322
870.046326,327
870.163635,313
870.280945,332
870.398254,317
870.515564,322
870.632812,324
870.750183,307
870.867432,304
870.984741,332
871.102051,327
871.219299,331
871.336609,311
871.453918,302
871.571106,303
871.688416,330
871.805664,315
871.922852,340
872.040222,311
872.157471,311
872.274719,322
872.391968,321
872.509155,330
872.626465,322
872.743652,323
872.860962,319
872.978149,316
873.095337,320
873.212646,323
873.329834,325
873.44696,323
873.564209,315
873.681396,308
873.798645,313
873.915894,301
874.03302,334
874.150208,322
874.267456,331
874.384583,322
874.501831,323
874.618958,316
874.736145,314
874.853333,301
874.970459,310
875.087646,308
875.204834,315
875.32196,322
875.439148,319
875.556274,319
875.673401,318
875.790527,325
875.907715,316
876.024841,326
876.141968,328
876.259094,314
876.376282,310
876.493347,318
876.610474,324
876.7276,341
876.844727,309
876.961853,320
877.078918,326
877.195984,298
877.313171,322
877.430237,325
877.547302,320
877.664368,314
877.781433,315
877.898499,322
878.015625,320
878.13269,315
878.249695,320
878.366821,317
878.483887,319
878.600952,322
878.717957,327
878.834961,306
878.952087,318
879.069092,320
879.186157,313
879.303162,313
879.420227,312
879.537231,313
879.654236,320
879.77124,312
879.888306,331
880.005249,321
880.122314,332
880.239319,293
880.356323,318
880.473328,322
880.590271,326
880.707275,308
880.824341,322
880.941284,311
881.058228,319
881.175232,324
881.292236,310
881.40918,316
881.526123,317
881.643066,319
881.760071,326
881.877014,308
881.993958,327
882.11084,322
882.227783,315
882.344727,321
882.46167,325
882.578613,313
882.695618,318
882.812439,330
882.929382,330
883.046326,324
883.163208,320
883.280151,300
883.397034,318
883.513916,330
883.630798,318
883.747742,314
883.864563,310
883.981506,323
884.098389,319
884.21521,312
884.332153,335
884.448975,331
884.565796,329
884.682678,300
884.7995,328
884.916443,314
885.033264,318
885.150085,296
885.266968,335
885.383789,318
885.500671,318
885.617493,302
885.734314,313
885.851196,323
885.967896,325
886.084717,322
886.201599,314
886.318359,310
886.435181,318
886.552002,323
886.668762,312
886.785645,318
886.902344,329
887.019165,306
887.135925,327
887.252747,333
887.369446,317
887.486267,322
887.603027,326
887.719788,323
887.836548,315
887.953247,306
888.070068,333
888.186829,304
888.303528,311
888.420288,315
888.536987,309
888.653687,315
888.770447,322
888.887146,325
889.003967,326
889.120667,312
889.237305,313
889.354065,312
889.470703,309
889.587463,306
889.704163,330
889.820862,327
889.937561,334
890.054199,309
890.170837,313
890.287598,316
890.404236,324
890.520874,316
890.637634,314
890.754211,314
890.87085,313
890.987549,326
891.104187,340
891.220886,313
891.337463,320
891.454102,320
891.57074,330
891.687378,325
891.804077,329
891.920654,313
892.037231,325
892.15387,331
892.270447,315
892.387085,307
892.503723,330
892.6203,310
892.736877,332
892.853516,323
892.970032,312
893.08667,301
893.203186,323
893.319763,327
893.43634,318
893.552917,307
893.669556,322
893.786011,324
893.902588,311
894.019165,305
894.135681,316
894.252197,321
894.368835,314
894.485291,306
894.601868,315
894.718384,311
894.8349,309
894.951355,310
895.067932,319
895.184448,308
895.300964,323
895.417419,329
895.533936,321
895.650452,313
895.766907,325
895.883423,295
895.999878,325
896.116333,325
896.232849,337
896.349304,305
896.465759,323
896.582214,319
896.698669,309
896.815125,314
896.931641,317
897.048035,317
897.164551,322
897.280884,306
897.397339,314
897.513794,324
897.630249,330
897.746582,308
897.863098,325
897.979431,322
898.095886,335
898.212341,324
898.328674,316
898.445129,307
898.561462,326
898.677795,315
898.794312,318
898.910645,310
899.026978,327
899.143433,314
899.259766,327
899.37616,305
899.492493,320
899.608765,311
899.725159,329
899.841553,319
899.957947,311
900.07428,314
900.190552,309
900.306946,325
900.423157,303
900.53949,321
900.655884,330
900.772156,310
900.888489,325
901.004822,313
901.121033,322
901.237366,311
901.353699,314
901.46991,328
901.586304,327
901.702515,312
901.818787,318
901.93512,309
902.051331,319
902.167603,320
902.283875,331
902.400085,321
902.516418,320
902.632629,319
902.74884,321
902.865112,329
902.981384,314
903.097595,323
903.213867,335
903.330017,317
903.446289,329
903.5625,308
903.67865,321
903.794922,308
903.911072,322
904.027344,294
904.143494,315
904.259705,322
904.375916,310
904.492065,320
904.608215,314
904.724426,329
904.840576,320
904.956726,316
905.072876,329
905.189087,301
905.305176,316
905.421387,304
905.537537,318
905.653687,329
905.769775,310
905.885925,315
906.002014,322
906.118164,323
906.234314,334
906.350403,316
906.466492,313
906.582642,304
906.69873,338
906.814758,307
906.930908,313
907.046936,319
907.163086,320
907.279175,307
907.395264,328
907.511353,316
907.62738,323
907.743408,316
907.859497,316
907.975525,296
908.091553,329
908.207703,315
908.32373,321
908.439758,319
908.555786,333
908.671814,317
908.787842,333
908.90387,322
909.019775,329
909.135864,328
909.251892,312
909.367859,311
909.483826,320
909.599854,317
909.715881,334
909.831848,304
909.947815,330
910.063782,314
910.179749,328
910.295776,322
910.411743,316
910.527649,303
910.643616,312
910.759583,320
910.875488,308
910.991455,306
911.107361,319
911.223267,315
911.339294,322
911.4552,305
911.571106,313
911.687073,316
911.802979,329
911.918823,327
912.034729,325
912.150635,313
912.266602,321
912.382446,313
912.498352,322
912.614197,310
912.730103,314
912.846008,315
792.44574,319
792.56488,369
792.68396,407
792.80304,402
792.92218,337
793.041199,342
793.160339,339
793.279419,358
793.398499,342
793.517578,333
793.636658,325
793.755737,343
793.874817,348
793.993896,337
794.112976,337
794.232056,331
794.351074,340
794.470215,341
794.589233,344
794.708313,328
794.827393,342
794.946411,333
795.065552,340
795.18457,337
795.303589,351
795.422668,340
795.541687,337
795.660767,334
795.779846,331
795.898865,318
796.017883,332
796.136963,341
796.255981,327
796.375061,345
796.49408,337
796.613037,350
796.732117,328
796.851135,347
796.970154,337
797.089233,333
797.208191,339
797.327271,335
797.446228,328
797.565186,329
797.684265,344
797.803223,331
797.922241,339
798.04126,334
798.160278,342
798.279297,315
798.398315,334
798.517273,329
798.636292,330
798.75531,339
798.874268,336
798.993286,338
799.112244,329
799.231323,323
799.350281,348
799.469238,351
799.588257,320
799.707153,327
799.826111,322
799.945129,335
800.064087,335
800.183044,329
800.302063,330
800.421021,329
800.539978,334
800.658936,330
800.777893,338
800.896912,323
801.015747,325
801.134705,341
801.253723,322
801.37262,327
801.491638,333
801.610535,320
801.729492,336
801.84845,347
801.967407,335
802.086243,318
802.205261,343
802.324158,328
802.443115,334
802.562073,339
802.680969,340
802.799927,324
802.918762,326
803.037659,343
803.156677,315
803.275574,330
803.39447,342
803.513428,332
803.632263,332
803.751221,335
803.870117,326
803.989014,331
804.107971,317
804.226746,319
804.345642,325
804.4646,337
804.583496,343
804.702393,327
804.821228,341
804.940125,331
805.059021,332
805.177917,338
805.296814,337
805.415649,311
805.534546,344
805.653442,333
805.772278,337
805.891113,341
806.01001,329
806.128906,338
806.247742,339
806.366577,335
806.485413,322
806.604309,346
806.723145,341
806.84198,314
806.960876,352
807.079712,315
807.198486,340
807.317383,327
807.436218,338
807.554993,333
807.673889,326
807.792725,328
807.91156,336
808.030396,327
808.14917,334
808.268005,332
808.386841,342
808.505676,326
808.624451,324
808.743286,324
808.862122,326
808.980896,336
809.099731,334
809.218506,328
809.337341,320
809.456116,328
809.57489,341
809.693726,347
809.8125,326
809.931274,345
810.050049,320
810.168884,341
810.287659,337
810.406372,337
810.525269,349
810.643982,332
810.762756,344
810.881531,333
811.000305,325
811.11908,341
811.237854,311
811.356567,322
811.475403,329
811.594116,327
811.71283,324
811.831604,334
811.950378,329
812.069153,333
812.187927,340
812.30658,335
812.425415,335
812.544128,345
812.662781,338
812.781616,323
812.900269,345
813.019043,343
813.137756,331
813.256531,337
813.375244,346
813.493896,334
813.612671,344
813.731384,338
813.850037,322
813.96875,339
814.087524,327
814.206238,342
814.324951,328
814.443604,335
814.562256,341
814.68103,321
814.799683,319
814.918335,337
815.037109,334
815.155762,328
815.274475,337
815.393188,324
815.511841,338
815.630554,321
815.749146,334
815.867859,339
815.986572,330
816.105164,325
816.223877,340
816.342529,322
816.461182,346
816.579895,331
816.698486,333
816.817139,350
816.935791,329
817.054504,328
817.173096,316
817.291748,346
817.4104,318
817.529053,330
817.647644,323
817.766235,325
817.884949,316
818.00354,337
818.122192,336
818.240845,323
818.359436,331
818.478088,338
818.59668,323
818.715271,330
818.833923,312
818.952515,326
819.071106,322
819.189758,314
819.30835,326
819.426941,325
819.545532,341
819.664124,327
819.782715,318
819.901306,317
820.019897,324
820.138489,331
820.25708,329
820.375671,307
820.494202,318
820.612732,320
820.731384,329
820.849915,333
820.968506,318
821.087097,322
821.205627,323
821.324158,325
821.442749,328
821.561279,315
821.679871,307
821.798401,323
821.916931,327
822.035461,315
822.154053,310
822.272583,314
822.391174,323
822.509583,321
822.628174,322
822.746704,312
822.865234,329
822.983765,324
823.102295,322
823.220825,328
823.339294,327
823.457825,313
823.576355,330
823.694824,317
823.813354,321
823.931885,320
824.050354,311
824.168884,315
824.287354,313
824.405823,316
824.524353,319
824.642822,333
824.761353,323
824.879822,316
824.998291,324
825.116699,324
825.235291,323
825.353699,319
825.472168,318
825.590637,304
825.709106,326
825.827576,318
825.946045,300
826.064453,326
826.182983,326
826.301392,333
826.4198,324
826.53833,313
826.656738,308
826.775208,332
826.893677,333
827.012024,321
827.130493,328
827.248962,336
827.36731,310
827.485779,312
827.604248,316
827.722595,322
827.841064,313
827.959412,308
828.077942,316
828.196289,322
828.314636,309
828.433105,316
828.551514,327
828.669861,314
828.78833,317
828.906677,324
829.025085,316
829.143433,322
829.261841,310
829.38031,324
829.498657,324
829.617004,322
829.735413,316
829.85376,319
829.972107,317
830.090515,332
830.208862,310
830.327209,327
830.445557,328
830.563904,323
830.682312,327
830.800659,315
830.919006,320
831.037354,327
831.155701,316
831.274048,311
831.392395,321
831.51062,302
831.629028,315
831.747314,314
831.865662,333
831.984009,316
832.102356,322
832.220642,335
832.338928,305
832.457275,324
832.575623,313
832.693909,321
832.812134,326
832.930481,319
833.048828,315
833.167114,312
833.2854,319
833.403687,314
833.521973,321
833.640259,315
833.758545,321
833.876831,316
833.995056,329
834.113281,320
834.231628,328
834.349915,314
834.468201,317
834.586426,306
834.704651,330
834.822998,317
834.941162,328
835.059448,313
835.177673,330
835.295959,323
835.414246,325
835.53241,327
835.650635,312
835.768921,311
835.887146,318
836.005371,320
836.123596,317
836.241821,322
836.360046,318
836.478271,328
836.596497,314
836.714722,315
836.832886,329
836.95105,314
837.069336,307
837.1875,318
837.305725,313
837.423889,322
837.542053,304
837.660339,318
837.778503,331
837.896667,324
838.014832,334
838.132996,318
838.25116,305
838.369385,324
838.487488,318
838.605713,322
838.723877,319
838.84198,304
838.960205,327
839.078308,323
839.196472,313
839.314636,322
839.4328,324
839.550964,326
839.669067,303
839.787231,317
839.905396,319
840.023499,327
840.141602,318
840.259766,326
840.377869,342
840.495972,331
840.614136,311
840.732239,320
840.850342,314
840.968445,322
841.086548,323
841.204651,320
841.322754,326
841.440918,319
841.55896,325
841.677002,326
841.795166,319
841.913208,312
842.031311,322
842.149353,319
842.267456,317
842.385498,308
842.503601,324
842.621643,312
842.739746,329
842.857788,321
842.97583,319
843.093933,314
843.211975,309
843.330017,320
843.44812,314
843.566101,313
843.684204,324
843.802246,315
843.920227,311
844.038269,329
844.156311,323
844.274292,311
844.392395,321
844.510376,324
844.628357,312
844.74646,314
844.864441,314
844.982422,313
845.100403,313
845.218384,315
845.336426,327
845.454468,312
845.572449,308
845.69043,319
845.808411,320
845.926453,326
846.044373,322
846.162354,317
846.280396,310
846.398315,320
846.516296,319
846.634216,325
846.752197,318
846.870178,312
846.988098,321
847.106079,316
847.22406,318
847.34198,327
847.4599,314
847.577881,323
847.695801,310
847.813782,321
847.931641,324
848.049561,327
848.167603,310
848.285461,319
848.403381,308
848.521362,327
848.639221,316
848.75708,315
848.875,324
848.99292,325
849.110901,313
849.22876,322
849.34668,318
849.464539,318
849.582458,321
849.700317,323
849.818176,320
849.936096,324
850.053955,324
850.171875,316
850.289673,322
850.407593,328
850.525452,313
850.643311,330
850.761169,328
850.878967,323
850.996887,309
851.114746,327
851.232544,318
851.350403,321
851.468262,318
851.58606,321
851.703979,304
851.821777,327
851.939636,326
852.057434,306
852.175232,322
852.293091,322
852.410889,311
852.528687,311
852.646545,316
852.764343,319
852.88208,326
852.999939,314
853.117676,308
853.235535,323
853.353271,327
853.471069,324
853.588928,311
853.706604,326
853.824402,309
853.9422,331
854.059998,334
854.177734,324
854.295532,326
854.413269,309
854.531006,312
854.648804,322
854.766541,310
854.884277,326
855.002014,314
855.119751,317
855.237549,320
855.355225,316
855.473022,318
855.590698,315
855.708435,299
855.826172,327
855.943848,314
856.061646,308
856.179321,317
856.296997,330
856.414795,325
856.53241,308
856.650085,315
856.767822,324
856.885559,315
857.003174,324
857.120911,296
857.238586,316
857.356201,316
857.473938,321
857.591614,319
857.709351,319
857.826965,318
857.944641,322
858.062317,311
858.179993,324
858.297668,311
858.415283,317
858.532959,298
858.650574,330
858.768188,319
858.885803,308
859.003479,321
859.121094,312
859.23877,320
859.356384,327
859.473999,326
859.591675,329
859.709229,318
859.826843,329
859.944458,313
860.062012,316
860.179626,314
860.297302,328
860.414856,327
860.532471,325
860.650024,328
860.767639,328
860.885193,329
861.002808,310
861.120361,311
861.237976,307
861.35553,317
861.473022,312
861.590698,323
861.708191,323
861.825745,320
861.943298,322
862.060852,309
862.178406,319
862.295959,328
862.413513,316
862.531006,313
862.64856,319
862.766113,322
862.883667,311
863.00116,316
863.118713,329
863.236206,308
863.353699,319
863.471252,314
863.588745,325
863.706177,318
863.82373,327
863.941162,315
864.058716,320
864.176208,311
864.29364,328
864.411194,315
864.528687,319
864.646118,314
864.763611,329
864.881042,329
864.998535,308
865.116028,313
865.233459,316
865.350891,314
865.468384,312
865.585754,311
865.703308,322
865.820679,311
865.938171,319
866.055542,310
866.173035,333
866.290466,319
866.407837,312
866.52533,319
866.6427,312
866.760071,317
866.877563,322
866.994934,327
867.112305,307
867.229736,313
867.347107,322
867.464539,313
867.58197,314
867.699341,315
867.81665,328
867.934082,313
868.051453,328
868.168823,320
868.286194,309
868.403564,310
868.520935,322
868.638306,327
868.755676,330
868.872986,319
868.990295,303
869.107727,311
869.225037,321
869.342346,318
869.459717,332
869.577026,307
869.694336,317
869.811707,318
869.929016,313
870.046326,316
870.163635,328
870.280945,312
870.398254,326
870.515564,309
870.632812,315
870.750183,312
870.867432,321
870.984741,315
871.102051,323
871.219299,311
871.336609,322
871.453918,308
871.571106,320
871.688416,315
871.805664,315
871.922852,315
872.040222,303
872.157471,322
872.274719,320
872.391968,314
872.509155,333
872.626465,312
872.743652,312
872.860962,322
872.978149,314
873.095337,312
873.212646,330
873.329834,313
873.44696,318
873.564209,303
873.681396,325
873.798645,307
873.915894,319
874.03302,314
874.150208,314
874.267456,319
874.384583,313
874.501831,313
874.618958,317
874.736145,299
874.853333,322
874.970459,313
875.087646,317
875.204834,309
875.32196,318
875.439148,320
875.556274,325
875.673401,310
875.790527,332
875.907715,310
876.024841,318
876.141968,310
876.259094,332
876.376282,328
876.493347,297
876.610474,310
876.7276,314
876.844727,314
876.961853,313
877.078918,311
877.195984,324
877.313171,317
877.430237,316
877.547302,314
877.664368,307
877.781433,315
877.898499,325
878.015625,320
878.13269,317
878.249695,313
878.366821,322
878.483887,313
878.600952,307
878.717957,315
878.834961,318
878.952087,319
879.069092,324
879.186157,324
879.303162,313
879.420227,312
879.537231,319
879.654236,324
879.77124,321
879.888306,322
880.005249,320
880.122314,321
880.239319,315
880.356323,316
880.473328,326
880.590271,319
880.707275,322
880.824341,311
880.941284,323
881.058228,323
881.175232,315
881.292236,308
881.40918,305
881.526123,317
881.643066,321
881.760071,310
881.877014,307
881.993958,309
882.11084,319
882.227783,318
882.344727,310
882.46167,314
882.578613,308
882.695618,319
882.812439,315
882.929382,304
883.046326,318
883.163208,318
883.280151,313
883.397034,325
883.513916,321
883.630798,321
883.747742,315
883.864563,330
883.981506,322
884.098389,309
884.21521,319
884.332153,300
884.448975,326
884.565796,322
884.682678,300
884.7995,317
884.916443,322
885.033264,328
885.150085,320
885.266968,316
885.383789,328
885.500671,302
885.617493,321
885.734314,306
885.851196,314
885.967896,322
886.084717,311
886.201599,318
886.318359,326
886.435181,320
886.552002,327
886.668762,312
886.785645,327
886.902344,313
887.019165,327
887.135925,311
887.252747,321
887.369446,320
887.486267,318
887.603027,311
887.719788,318
887.836548,304
887.953247,334
888.070068,317
888.186829,322
888.303528,311
888.420288,329
888.536987,315
888.653687,308
888.770447,321
888.887146,324
889.003967,314
889.120667,318
889.237305,317
889.354065,312
889.470703,322
889.587463,317
889.704163,321
889.820862,324
889.937561,303
890.054199,309
890.170837,315
890.287598,311
890.404236,322
890.520874,314
890.637634,318
890.754211,322
890.87085,315
890.987549,318
891.104187,323
891.220886,312
891.337463,320
891.454102,327
891.57074,312
891.687378,314
891.804077,310
891.920654,324
892.037231,308
892.15387,325
892.270447,308
892.387085,319
892.503723,311
892.6203,324
892.736877,321
892.853516,303
892.970032,312
893.08667,308
893.203186,321
893.319763,309
893.43634,324
893.552917,306
893.669556,305
893.786011,314
893.902588,329
894.019165,316
894.135681,309
894.252197,311
894.368835,324
894.485291,316
894.601868,318
894.718384,312
894.8349,324
894.951355,330
895.067932,331
895.184448,322
895.300964,308
895.417419,312
895.533936,304
895.650452,316
895.766907,322
895.883423,317
895.999878,330
896.116333,320
896.232849,317
896.349304,330
896.465759,309
896.582214,305
896.698669,315
896.815125,320
896.931641,310
897.048035,315
897.164551,315
897.280884,328
897.397339,309
897.513794,320
897.630249,334
897.746582,322
897.863098,319
897.979431,315
898.095886,318
898.212341,328
898.328674,322
898.445129,320
898.561462,316
898.677795,314
898.794312,321
898.910645,332
899.026978,306
899.143433,316
899.259766,330
899.37616,313
899.492493,313
899.608765,311
899.725159,328
899.841553,312
899.957947,313
900.07428,322
900.190552,322
900.306946,327
900.423157,316
900.53949,325
900.655884,309
900.772156,314
900.888489,300
901.004822,323
901.121033,306
901.237366,329
901.353699,321
901.46991,328
901.586304,307
901.702515,335
901.818787,295
901.93512,319
902.051331,318
902.167603,326
902.283875,314
902.400085,319
902.516418,324
902.632629,327
902.74884,322
902.865112,325
902.981384,319
903.097595,331
903.213867,319
903.330017,331
903.446289,328
903.5625,315
903.67865,323
903.794922,325
903.911072,313
904.027344,311
904.143494,325
904.259705,312
904.375916,322
904.492065,322
904.608215,313
904.724426,326
904.840576,308
904.956726,319
905.072876,321
905.189087,321
905.305176,320
905.421387,333
905.537537,314
905.653687,324
905.769775,314
905.885925,313
906.002014,311
906.118164,314
906.234314,319
906.350403,318
906.466492,316
906.582642,327
906.69873,320
906.814758,306
906.930908,321
907.046936,317
907.163086,307
907.279175,322
907.395264,307
907.511353,314
907.62738,310
907.743408,321
907.859497,317
907.975525,323
908.091553,334
908.207703,311
908.32373,305
908.439758,311
908.555786,300
908.671814,323
908.787842,328
908.90387,328
909.019775,320
909.135864,319
909.251892,320
909.367859,328
909.483826,315
909.599854,322
909.715881,319
909.831848,330
909.947815,311
910.063782,322
910.179749,311
910.295776,314
910.411743,319
910.527649,320
910.643616,327
910.759583,316
910.875488,313
910.991455,322
911.107361,325
911.223267,320
911.339294,311
911.4552,320
911.571106,310
911.687073,326
911.802979,325
911.918823,324
912.034729,315
912.150635,328
912.266602,318
912.382446,323
912.498352,304
912.614197,325
912.730103,309
912.846008,303
792.44574,331
792.56488,351
792.68396,407
792.80304,382
792.92218,350
793.041199,327
793.160339,338
793.279419,347
793.398499,337
793.517578,328
793.636658,332
793.755737,348
793.874817,367
793.993896,343
794.112976,356
794.232056,331
794.351074,338
794.470215,330
794.589233,331
794.708313,330
794.827393,322
794.946411,329
795.065552,349
795.18457,341
795.303589,347
795.422668,332
795.541687,336
795.660767,350
795.779846,321
795.898865,323
796.017883,342
796.136963,329
796.255981,342
796.375061,339
796.49408,333
796.613037,342
796.732117,333
796.851135,330
796.970154,347
797.089233,324
797.208191,331
797.327271,329
797.446228,322
797.565186,342
797.684265,342
797.803223,336
797.922241,321
798.04126,329
798.160278,339
798.279297,328
798.398315,337
798.517273,338
798.636292,336
798.75531,327
798.874268,333
798.993286,337
799.112244,331
799.231323,342
799.350281,338
799.469238,325
799.588257,337
799.707153,335
799.826111,333
799.945129,336
800.064087,323
800.183044,318
800.302063,327
800.421021,331
800.539978,339
800.658936,324
800.777893,344
800.896912,327
801.015747,331
801.134705,336
801.253723,338
801.37262,336
801.491638,329
801.610535,323
801.729492,332
801.84845,333
801.967407,334
802.086243,328
802.205261,337
802.324158,334
802.443115,340
802.562073,332
802.680969,329
802.799927,329
802.918762,329
803.037659,335
803.156677,327
803.275574,339
803.39447,332
803.513428,340
803.632263,350
803.751221,339
803.870117,325
803.989014,331
804.107971,337
804.226746,333
804.345642,328
804.4646,336
804.583496,317
804.702393,334
804.821228,318
804.940125,339
805.059021,334
805.177917,331
805.296814,341
805.415649,336
805.534546,337
805.653442,327
805.772278,342
805.891113,344
806.01001,336
806.128906,332
806.247742,320
806.366577,329
806.485413,325
806.604309,323
806.723145,334
806.84198,331
806.960876,330
807.079712,324
807.198486,336
807.317383,324
807.436218,331
807.554993,324
807.673889,316
807.792725,326
807.91156,328
808.030396,329
808.14917,346
808.268005,318
808.386841,335
808.505676,328
808.624451,338
808.743286,333
808.862122,329
808.980896,340
809.099731,334
809.218506,328
809.337341,323
809.456116,338
809.57489,324
809.693726,337
809.8125,345
809.931274,328
810.050049,338
810.168884,330
810.287659,335
810.406372,337
810.525269,329
810.643982,324
810.762756,349
810.881531,331
811.000305,341
811.11908,325
811.237854,324
811.356567,329
811.475403,336
811.594116,333
811.71283,349
811.831604,347
811.950378,339
812.069153,337
812.187927,325
812.30658,333
812.425415,340
812.544128,327
812.662781,344
812.781616,331
812.900269,329
813.019043,329
813.137756,330
813.256531,322
813.375244,340
813.493896,320
813.612671,332
813.731384,332
813.850037,340
813.96875,327
814.087524,339
814.206238,337
814.324951,327
814.443604,321
814.562256,321
814.68103,337
814.799683,321
814.918335,330
815.037109,334
815.155762,329
815.274475,322
815.393188,324
815.511841,337
815.630554,316
815.749146,332
815.867859,328
815.986572,328
816.105164,339
816.223877,327
816.342529,334
816.461182,328
816.579895,337
816.698486,349
816.817139,333
816.935791,342
817.054504,325
817.173096,327
817.291748,336
817.4104,332
817.529053,335
817.647644,339
817.766235,321
817.884949,322
818.00354,332
818.122192,335
818.240845,318
818.359436,320
818.478088,338
818.59668,324
818.715271,324
818.833923,334
818.952515,317
819.071106,326
819.189758,323
819.30835,313
819.426941,311
819.545532,320
819.664124,322
819.782715,327
819.901306,331
820.019897,317
820.138489,316
820.25708,323
820.375671,328
820.494202,320
820.612732,323
820.731384,340
820.849915,315
820.968506,324
821.087097,302
821.205627,333
821.324158,313
821.442749,308
821.561279,319
821.679871,308
821.798401,320
821.916931,328
822.035461,326
822.154053,321
822.272583,310
822.391174,328
822.509583,319
822.628174,317
822.746704,317
822.865234,312
822.983765,334
823.102295,327
823.220825,328
823.339294,323
823.457825,308
823.576355,330
823.694824,311
823.813354,324
823.931885,331
824.050354,315
824.168884,322
824.287354,307
824.405823,319
824.524353,329
824.642822,327
824.761353,321
824.879822,318
824.998291,316
825.116699,325
825.235291,322
825.353699,313
825.472168,319
825.590637,325
825.709106,325
825.827576,318
825.946045,327
826.064453,334
826.182983,312
826.301392,315
826.4198,302
826.53833,330
826.656738,329
826.775208,320
826.893677,321
827.012024,322
827.130493,307
827.248962,330
827.36731,323
827.485779,301
827.604248,311
827.722595,323
827.841064,327
827.959412,327
828.077942,317
828.196289,320
828.314636,322
828.433105,307
828.551514,313
828.669861,320
828.78833,322
828.906677,316
829.025085,322
829.143433,308
829.261841,313
829.38031,316
829.498657,326
829.617004,323
829.735413,319
829.85376,324
829.972107,326
830.090515,315
830.208862,318
830.327209,324
830.445557,322
830.563904,308
830.682312,319
830.800659,317
830.919006,326
831.037354,325
831.155701,318
831.274048,310
831.392395,323
831.51062,326
831.629028,324
831.747314,318
831.865662,308
831.984009,314
832.102356,326
832.220642,321
832.338928,319
832.457275,311
832.575623,319
832.693909,308
832.812134,309
832.930481,303
833.048828,327
833.167114,310
833.2854,316
833.403687,310
833.521973,327
833.640259,309
833.758545,330
833.876831,310
833.995056,322
834.113281,301
834.231628,314
834.349915,316
834.468201,324
834.586426,314
834.704651,319
834.822998,324
834.941162,321
835.059448,318
835.177673,330
835.295959,321
835.414246,325
835.53241,327
835.650635,319
835.768921,323
835.887146,321
836.005371,318
836.123596,321
836.241821,307
836.360046,318
836.478271,322
836.596497,329
836.714722,324
836.832886,333
836.95105,314
837.069336,317
837.1875,296
837.305725,322
837.423889,320
837.542053,319
837.660339,323
837.778503,318
837.896667,313
838.014832,315
838.132996,323
838.25116,330
838.369385,304
838.487488,329
838.605713,323
838.723877,314
838.84198,324
838.960205,319
839.078308,323
839.196472,324
839.314636,326
839.4328,315
839.550964,324
839.669067,324
839.787231,314
839.905396,322
840.023499,320
840.141602,313
840.259766,322
840.377869,312
840.495972,324
840.614136,324
840.732239,325
840.850342,326
840.968445,322
841.086548,318
841.204651,314
841.322754,314
841.440918,332
841.55896,326
841.677002,315
841.795166,311
841.913208,324
842.031311,325
842.149353,321
842.267456,332
842.385498,311
842.503601,324
842.621643,312
842.739746,305
842.857788,329
842.97583,325
843.093933,313
843.211975,336
843.330017,326
843.44812,328
843.566101,311
843.684204,320
843.802246,310
843.920227,321
844.038269,321
844.156311,327
844.274292,294
844.392395,325
844.510376,317
844.628357,309
844.74646,308
844.864441,336
844.982422,325
845.100403,309
845.218384,322
845.336426,326
845.454468,318
845.572449,328
845.69043,321
845.808411,325
845.926453,314
846.044373,320
846.162354,326
846.280396,326
846.398315,319
846.516296,307
846.634216,316
846.752197,320
846.870178,309
846.988098,331
847.106079,310
847.22406,332
847.34198,331
847.4599,322
847.577881,307
847.695801,305
847.813782,308
847.931641,322
848.049561,317
848.167603,312
848.285461,322
848.403381,324
848.521362,324
848.639221,324
848.75708,316
848.875,323
848.99292,316
849.110901,318
849.22876,309
849.34668,327
849.464539,302
849.582458,320
849.700317,312
849.818176,332
849.936096,318
850.053955,312
850.171875,326
850.289673,312
850.407593,320
850.525452,311
850.643311,330
850.761169,317
850.878967,317
850.996887,326
851.114746,311
851.232544,312
851.350403,312
851.468262,314
851.58606,326
851.703979,331
851.821777,326
851.939636,323
852.057434,301
852.175232,322
852.293091,314
852.410889,324
852.528687,319
852.646545,323
852.764343,326
852.88208,308
852.999939,322
853.117676,329
853.235535,333
853.353271,304
853.471069,303
853.588928,330
853.706604,312
853.824402,316
853.9422,323
854.059998,316
854.177734,326
854.295532,346
854.413269,324
854.531006,332
854.648804,324
854.766541,327
854.884277,310
855.002014,318
855.119751,309
855.237549,312
855.355225,323
855.473022,322
855.590698,307
855.708435,313
855.826172,319
855.943848,315
856.061646,319
856.179321,316
856.296997,318
856.414795,322
856.53241,309
856.650085,316
856.767822,322
856.885559,320
857.003174,294
857.120911,321
857.238586,330
857.356201,324
857.473938,315
857.591614,310
857.709351,329
857.826965,315
857.944641,311
858.062317,310
858.179993,321
858.297668,316
858.415283,322
858.532959,328
858.650574,319
858.768188,321
858.885803,315
859.003479,316
859.121094,329
859.23877,320
859.356384,319
859.473999,330
859.591675,318
859.709229,330
859.826843,308
859.944458,310
860.062012,329
860.179626,323
860.297302,329
860.414856,314
860.532471,326
860.650024,323
860.767639,311
860.885193,318
861.002808,327
861.120361,323
861.237976,314
861.35553,327
861.473022,317
861.590698,303
861.708191,312
861.825745,325
861.943298,316
862.060852,328
862.178406,314
862.295959,317
862.413513,329
862.531006,325
862.64856,325
862.766113,323
862.883667,318
863.00116,318
863.118713,324
863.236206,320
863.353699,322
863.471252,326
863.588745,313
863.706177,317
863.82373,317
863.941162,327
864.058716,316
864.176208,309
864.29364,292
864.411194,323
864.528687,304
864.646118,307
864.763611,322
864.881042,315
864.998535,312
865.116028,336
865.233459,312
865.350891,322
865.468384,317
865.585754,327
865.703308,317
865.820679,329
865.938171,307
866.055542,318
866.173035,315
866.290466,319
866.407837,306
866.52533,312
866.6427,294
866.760071,321
866.877563,314
866.994934,317
867.112305,318
867.229736,309
867.347107,319
867.464539,319
867.58197,322
867.699341,324
867.81665,326
867.934082,324
868.051453,325
868.168823,311
868.286194,317
868.403564,317
868.520935,319
868.638306,306
868.755676,316
868.872986,322
868.990295,318
869.107727,326
869.225037,315
869.342346,317
869.459717,315
869.577026,327
869.694336,317
869.811707,333
869.929016,322
870.046326,316
870.163635,316
870.280945,327
870.398254,316
870.515564,332
870.632812,314
870.750183,322
870.867432,324
870.984741,326
871.102051,304
871.219299,321
871.336609,318
871.453918,334
871.571106,320
871.688416,319
871.805664,323
871.922852,316
872.040222,321
872.157471,336
872.274719,307
872.391968,333
872.509155,319
872.626465,310
872.743652,312
872.860962,320
872.978149,316
873.095337,335
873.212646,315
873.329834,316
873.44696,321
873.564209,320
873.681396,309
873.798645,309
873.915894,324
874.03302,330
874.150208,309
874.267456,322
874.384583,313
874.501831,320
874.618958,314
874.736145,303
874.853333,311
874.970459,333
875.087646,331
875.204834,333
875.32196,317
875.439148,323
875.556274,311
875.673401,333
875.790527,324
875.907715,310
876.024841,318
876.141968,325
876.259094,307
876.376282,327
876.493347,298
876.610474,320
876.7276,317
876.844727,324
876.961853,324
877.078918,314
877.195984,321
877.313171,311
877.430237,324
877.547302,331
877.664368,317
877.781433,321
877.898499,310
878.015625,325
878.13269,326
878.249695,311
878.366821,318
878.483887,320
878.600952,328
878.717957,315
878.834961,304
878.952087,327
879.069092,337
879.186157,317
879.303162,308
879.420227,316
879.537231,306
879.654236,312
879.77124,332
879.888306,314
880.005249,312
880.122314,319
880.239319,323
880.356323,317
880.473328,303
880.590271,322
880.707275,325
880.824341,315
880.941284,317
881.058228,336
881.175232,327
881.292236,327
881.40918,318
881.526123,320
881.643066,304
881.760071,315
881.877014,313
881.993958,313
882.11084,318
882.227783,325
882.344727,322
882.46167,336
882.578613,320
882.695618,327
882.812439,311
882.929382,306
883.046326,316
883.163208,318
883.280151,308
883.397034,323
883.513916,322
883.630798,308
883.747742,321
883.864563,320
883.981506,303
884.098389,308
884.21521,317
884.332153,329
884.448975,330
884.565796,325
884.682678,310
884.7995,314
884.916443,313
885.033264,312
885.150085,315
885.266968,323
885.383789,329
885.500671,305
885.617493,318
885.734314,322
885.851196,313
885.967896,326
886.084717,325
886.201599,322
886.318359,319
886.435181,320
886.552002,318
886.668762,315
886.785645,314
886.902344,322
887.019165,315
887.135925,324
887.252747,296
887.369446,330
887.486267,323
887.603027,325
887.719788,311
887.836548,324
887.953247,324
888.070068,332
888.186829,309
888.303528,326
888.420288,313
888.536987,335
888.653687,298
888.770447,322
888.887146,321
889.003967,328
889.120667,317
889.237305,311
889.354065,308
889.470703,310
889.587463,319
889.704163,327
889.820862,311
889.937561,329
890.054199,312
890.170837,330
890.287598,326
890.404236,336
890.520874,315
890.637634,318
890.754211,320
890.87085,319
890.987549,313
891.104187,329
891.220886,322
891.337463,319
891.454102,307
891.57074,313
891.687378,324
891.804077,326
891.920654,306
892.037231,316
892.15387,321
892.270447,311
892.387085,318
892.503723,330
892.6203,317
892.736877,340
892.853516,314
892.970032,316
893.08667,320
893.203186,313
893.319763,324
893.43634,321
893.552917,316
893.669556,322
893.786011,322
893.902588,324
894.019165,304
894.135681,336
894.252197,313
894.368835,307
894.485291,312
894.601868,320
894.718384,320
894.8349,325
894.951355,315
895.067932,323
895.184448,321
895.300964,318
895.417419,303
895.533936,317
895.650452,319
895.766907,312
895.883423,316
895.999878,316
896.116333,301
896.232849,315
896.349304,308
896.465759,315
896.582214,310
896.698669,324
896.815125,310
896.931641,326
897.048035,313
897.164551,314
897.280884,314
897.397339,311
897.513794,318
897.630249,323
897.746582,314
897.863098,333
897.979431,324
898.095886,327
898.212341,312
898.328674,325
898.445129,317
898.561462,323
898.677795,321
898.794312,332
898.910645,313
899.026978,320
899.143433,335
899.259766,316
899.37616,316
899.492493,308
899.608765,318
899.725159,319
899.841553,311
899.957947,316
900.07428,315
900.190552,331
900.306946,311
900.423157,322
900.53949,311
900.655884,308
900.772156,318
900.888489,319
901.004822,324
901.121033,325
901.237366,317
901.353699,310
901.46991,321
901.586304,315
901.702515,319
901.818787,333
901.93512,317
902.051331,325
902.167603,305
902.283875,310
902.400085,316
902.516418,311
902.632629,322
902.74884,327
902.865112,305
902.981384,314
903.097595,325
903.213867,321
903.330017,312
903.446289,334
903.5625,315
903.67865,336
903.794922,307
903.911072,310
904.027344,316
904.143494,310
904.259705,325
904.375916,317
904.492065,318
904.608215,329
904.724426,311
904.840576,321
904.956726,305
905.072876,324
905.189087,308
905.305176,319
905.421387,315
905.537537,319
905.653687,326
905.769775,308
905.885925,318
906.002014,308
906.118164,317
906.234314,318
906.350403,332
906.466492,327
906.582642,315
906.69873,323
906.814758,301
906.930908,324
907.046936,312
907.163086,327
907.279175,319
907.395264,310
907.511353,303
907.62738,313
907.743408,319
907.859497,327
907.975525,316
908.091553,314
908.207703,323
908.32373,313
908.439758,308
908.555786,308
908.671814,327
908.787842,324
908.90387,320
909.019775,329
909.135864,322
909.251892,325
909.367859,316
909.483826,315
909.599854,326
909.715881,318
909.831848,312
909.947815,320
910.063782,310
910.179749,314
910.295776,310
910.411743,322
910.527649,320
910.643616,317
910.759583,321
910.875488,323
910.991455,326
911.107361,326
911.223267,322
911.339294,333
911.4552,327
911.571106,317
911.687073,320
911.802979,337
911.918823,320
912.034729,322
912.150635,314
912.266602,324
912.382446,315
912.498352,324
912.614197,324
912.730103,312
912.846008,308
