792.44574,321
792.56488,361
792.68396,415
792.80304,397
792.92218,350
793.041199,325
793.160339,318
793.279419,360
793.398499,327
793.517578,322
793.636658,331
793.755737,336
793.874817,351
793.993896,336
794.112976,332
794.232056,315
794.351074,335
794.470215,331
794.589233,339
794.708313,333
794.827393,334
794.946411,321
795.065552,334
795.18457,342
795.303589,326
795.422668,324
795.541687,339
795.660767,328
795.779846,324
795.898865,310
796.017883,340
796.136963,334
796.255981,337
796.375061,332
796.49408,346
796.613037,325
796.732117,330
796.851135,322
796.970154,334
797.089233,335
797.208191,330
797.327271,343
797.446228,330
797.565186,341
797.684265,348
797.803223,317
797.922241,326
798.04126,321
798.160278,331
798.279297,339
798.398315,340
798.517273,340
798.636292,331
798.75531,323
798.874268,336
798.993286,325
799.112244,342
799.231323,330
799.350281,334
799.469238,339
799.588257,331
799.707153,326
799.826111,328
799.945129,322
800.064087,338
800.183044,340
800.302063,331
800.421021,338
800.539978,345
800.658936,328
800.777893,327
800.896912,329
801.015747,332
801.134705,331
801.253723,351
801.37262,320
801.491638,333
801.610535,329
801.729492,322
801.84845,318
801.967407,318
802.086243,330
802.205261,335
802.324158,331
802.443115,338
802.562073,341
802.680969,338
802.799927,327
802.918762,334
803.037659,337
803.156677,327
803.275574,334
803.39447,338
803.513428,330
803.632263,326
803.751221,329
803.870117,335
803.989014,326
804.107971,319
804.226746,334
804.345642,336
804.4646,336
804.583496,335
804.702393,311
804.821228,332
804.940125,317
805.059021,330
805.177917,327
805.296814,332
805.415649,324
805.534546,335
805.653442,342
805.772278,329
805.891113,334
806.01001,344
806.128906,335
806.247742,343
806.366577,327
806.485413,345
806.604309,327
806.723145,333
806.84198,324
806.960876,337
807.079712,341
807.198486,327
807.317383,335
807.436218,320
807.554993,326
807.673889,342
807.792725,332
807.91156,329
808.030396,331
808.14917,335
808.268005,333
808.386841,336
808.505676,340
808.624451,337
808.743286,338
808.862122,328
808.980896,341
809.099731,325
809.218506,343
809.337341,331
809.456116,326
809.57489,334
809.693726,349
809.8125,328
809.931274,348
810.050049,332
810.168884,327
810.287659,324
810.406372,346
810.525269,335
810.643982,339
810.762756,342
810.881531,348
811.000305,332
811.11908,334
811.237854,315
811.356567,338
811.475403,329
811.594116,335
811.71283,336
811.831604,347
811.950378,313
812.069153,348
812.187927,324
812.30658,345
812.425415,322
812.544128,337
812.662781,340
812.781616,352
812.900269,328
813.019043,351
813.137756,330
813.256531,337
813.375244,333
813.493896,324
813.612671,335
813.731384,338
813.850037,341
813.96875,336
814.087524,330
814.206238,333
814.324951,344
814.443604,326
814.562256,338
814.68103,328
814.799683,344
814.918335,340
815.037109,339
815.155762,329
815.274475,338
815.393188,324
815.511841,324
815.630554,332
815.749146,330
815.867859,334
815.986572,340
816.105164,326
816.223877,340
816.342529,320
816.461182,346
816.579895,330
816.698486,323
816.817139,325
816.935791,326
817.054504,339
817.173096,330
817.291748,330
817.4104,336
817.529053,327
817.647644,327
817.766235,344
817.884949,336
818.00354,336
818.122192,331
818.240845,327
818.359436,309
818.478088,337
818.59668,329
818.715271,328
818.833923,329
818.952515,333
819.071106,336
819.189758,322
819.30835,326
819.426941,333
819.545532,319
819.664124,338
819.782715,320
819.901306,327
820.019897,326
820.138489,318
820.25708,328
820.375671,317
820.494202,312
820.612732,320
820.731384,325
820.849915,325
820.968506,319
821.087097,324
821.205627,323
821.324158,310
821.442749,317
821.561279,320
821.679871,328
821.798401,327
821.916931,326
822.035461,306
822.154053,313
822.272583,312
822.391174,309
822.509583,321
822.628174,322
822.746704,314
822.865234,321
822.983765,316
823.102295,322
823.220825,325
823.339294,325
823.457825,313
823.576355,329
823.694824,318
823.813354,331
823.931885,317
824.050354,321
824.168884,326
824.287354,324
824.405823,324
824.524353,329
824.642822,322
824.761353,322
824.879822,305
824.998291,312
825.116699,311
825.235291,314
825.353699,322
825.472168,314
825.590637,322
825.709106,321
825.827576,317
825.946045,330
826.064453,326
826.182983,314
826.301392,317
826.4198,321
826.53833,317
826.656738,310
826.775208,315
826.893677,316
827.012024,331
827.130493,316
827.248962,318
827.36731,324
827.485779,319
827.604248,326
827.722595,305
827.841064,333
827.959412,308
828.077942,319
828.196289,316
828.314636,313
828.433105,316
828.551514,309
828.669861,333
828.78833,331
828.906677,316
829.025085,318
829.143433,312
829.261841,308
829.38031,311
829.498657,324
829.617004,312
829.735413,321
829.85376,319
829.972107,307
830.090515,310
830.208862,308
830.327209,314
830.445557,306
830.563904,327
830.682312,318
830.800659,319
830.919006,319
831.037354,324
831.155701,312
831.274048,312
831.392395,321
831.51062,316
831.629028,313
831.747314,325
831.865662,326
831.984009,323
832.102356,310
832.220642,306
832.338928,319
832.457275,329
832.575623,319
832.693909,314
832.812134,327
832.930481,325
833.048828,312
833.167114,310
833.2854,316
833.403687,324
833.521973,317
833.640259,314
833.758545,326
833.876831,310
833.995056,311
834.113281,309
834.231628,326
834.349915,313
834.468201,316
834.586426,316
834.704651,316
834.822998,313
834.941162,304
835.059448,316
835.177673,331
835.295959,319
835.414246,319
835.53241,324
835.650635,328
835.768921,307
835.887146,313
836.005371,315
836.123596,305
836.241821,336
836.360046,307
836.478271,315
836.596497,311
836.714722,313
836.832886,325
836.95105,314
837.069336,326
837.1875,326
837.305725,307
837.423889,321
837.542053,318
837.660339,321
837.778503,320
837.896667,311
838.014832,333
838.132996,318
838.25116,311
838.369385,316
838.487488,314
838.605713,305
838.723877,324
838.84198,323
838.960205,324
839.078308,314
839.196472,321
839.314636,324
839.4328,329
839.550964,332
839.669067,310
839.787231,323
839.905396,324
840.023499,323
840.141602,315
840.259766,303
840.377869,320
840.495972,325
840.614136,328
840.732239,318
840.850342,322
840.968445,326
841.086548,326
841.204651,327
841.322754,306
841.440918,326
841.55896,322
841.677002,319
841.795166,321
841.913208,313
842.031311,325
842.149353,319
842.267456,324
842.385498,323
842.503601,321
842.621643,307
842.739746,317
842.857788,326
842.97583,316
843.093933,327
843.211975,317
843.330017,319
843.44812,310
843.566101,316
843.684204,317
843.802246,308
843.920227,316
844.038269,315
844.156311,307
844.274292,323
844.392395,312
844.510376,314
844.628357,303
844.74646,324
844.864441,317
844.982422,316
845.100403,312
845.218384,321
845.336426,320
845.454468,321
845.572449,305
845.69043,331
845.808411,313
845.926453,314
846.044373,321
846.162354,325
846.280396,311
846.398315,318
846.516296,322
846.634216,310
846.752197,310
846.870178,320
846.988098,322
847.106079,318
847.22406,318
847.34198,311
847.4599,322
847.577881,312
847.695801,312
847.813782,311
847.931641,315
848.049561,333
848.167603,314
848.285461,319
848.403381,316
848.521362,313
848.639221,322
848.75708,313
848.875,318
848.99292,322
849.110901,304
849.22876,320
849.34668,332
849.464539,325
849.582458,316
849.700317,315
849.818176,320
849.936096,309
850.053955,317
850.171875,313
850.289673,322
850.407593,318
850.525452,309
850.643311,310
850.761169,310
850.878967,305
850.996887,320
851.114746,309
851.232544,321
851.350403,315
851.468262,328
851.58606,306
851.703979,324
851.821777,325
851.939636,308
852.057434,319
852.175232,329
852.293091,320
852.410889,318
852.528687,317
852.646545,300
852.764343,317
852.88208,324
852.999939,332
853.117676,305
853.235535,321
853.353271,303
853.471069,304
853.588928,314
853.706604,326
853.824402,328
853.9422,316
854.059998,315
854.177734,318
854.295532,317
854.413269,309
854.531006,305
854.648804,324
854.766541,316
854.884277,311
855.002014,317
855.119751,309
855.237549,318
855.355225,305
855.473022,312
855.590698,315
855.708435,319
855.826172,317
855.943848,323
856.061646,323
856.179321,308
856.296997,311
856.414795,323
856.53241,320
856.650085,320
856.767822,325
856.885559,317
857.003174,323
857.120911,325
857.238586,318
857.356201,329
857.473938,311
857.591614,318
857.709351,325
857.826965,317
857.944641,321
858.062317,319
858.179993,303
858.297668,315
858.415283,309
858.532959,319
858.650574,324
858.768188,309
858.885803,323
859.003479,313
859.121094,321
859.23877,310
859.356384,317
859.473999,320
859.591675,310
859.709229,315
859.826843,319
859.944458,312
860.062012,322
860.179626,315
860.297302,304
860.414856,319
860.532471,331
860.650024,315
860.767639,318
860.885193,313
861.002808,314
861.120361,317
861.237976,326
861.35553,319
861.473022,307
861.590698,308
861.708191,311
861.825745,304
861.943298,322
862.060852,321
862.178406,323
862.295959,317
862.413513,320
862.531006,320
862.64856,314
862.766113,314
862.883667,316
863.00116,315
863.118713,320
863.236206,327
863.353699,315
863.471252,317
863.588745,319
863.706177,319
863.82373,322
863.941162,327
864.058716,319
864.176208,321
864.29364,323
864.411194,304
864.528687,326
864.646118,308
864.763611,310
864.881042,318
864.998535,313
865.116028,316
865.233459,321
865.350891,308
865.468384,321
865.585754,311
865.703308,322
865.820679,312
865.938171,322
866.055542,321
866.173035,313
866.290466,311
866.407837,305
866.52533,316
866.6427,318
866.760071,323
866.877563,308
866.994934,327
867.112305,319
867.229736,324
867.347107,327
867.464539,311
867.58197,318
867.699341,316
867.81665,329
867.934082,311
868.051453,317
868.168823,324
868.286194,327
868.403564,322
868.520935,327
868.638306,321
868.755676,318
868.872986,322
868.990295,324
869.107727,327
869.225037,326
869.342346,323
869.459717,318
869.577026,319
869.694336,318
869.811707,318
869.929016,313
870.046326,316
870.163635,307
870.280945,328
870.398254,329
870.515564,307
870.632812,319
870.750183,320
870.867432,319
870.984741,316
871.102051,323
871.219299,318
871.336609,328
871.453918,317
871.571106,299
871.688416,312
871.805664,316
871.922852,323
872.040222,309
872.157471,313
872.274719,310
872.391968,328
872.509155,324
872.626465,314
872.743652,329
872.860962,320
872.978149,323
873.095337,312
873.212646,313
873.329834,316
873.44696,305
873.564209,309
873.681396,314
873.798645,317
873.915894,308
874.03302,314
874.150208,324
874.267456,308
874.384583,314
874.501831,321
874.618958,317
874.736145,315
874.853333,321
874.970459,300
875.087646,319
875.204834,311
875.32196,321
875.439148,331
875.556274,319
875.673401,321
875.790527,319
875.907715,323
876.024841,323
876.141968,308
876.259094,321
876.376282,310
876.493347,316
876.610474,315
876.7276,320
876.844727,314
876.961853,319
877.078918,315
877.195984,316
877.313171,317
877.430237,312
877.547302,297
877.664368,315
877.781433,324
877.898499,311
878.015625,309
878.13269,333
878.249695,315
878.366821,305
878.483887,312
878.600952,314
878.717957,310
878.834961,310
878.952087,314
879.069092,327
879.186157,320
879.303162,329
879.420227,310
879.537231,319
879.654236,314
879.77124,314
879.888306,330
880.005249,320
880.122314,303
880.239319,315
880.356323,319
880.473328,322
880.590271,309
880.707275,323
880.824341,296
880.941284,318
881.058228,321
881.175232,322
881.292236,321
881.40918,327
881.526123,317
881.643066,323
881.760071,304
881.877014,334
881.993958,312
882.11084,330
882.227783,307
882.344727,322
882.46167,326
882.578613,310
882.695618,317
882.812439,308
882.929382,325
883.046326,330
883.163208,299
883.280151,330
883.397034,317
883.513916,322
883.630798,321
883.747742,316
883.864563,323
883.981506,316
884.098389,328
884.21521,312
884.332153,306
884.448975,323
884.565796,313
884.682678,314
884.7995,318
884.916443,325
885.033264,312
885.150085,312
885.266968,335
885.383789,323
885.500671,310
885.617493,321
885.734314,319
885.851196,319
885.967896,315
886.084717,308
886.201599,320
886.318359,338
886.435181,313
886.552002,322
886.668762,309
886.785645,305
886.902344,317
887.019165,303
887.135925,322
887.252747,313
887.369446,321
887.486267,318
887.603027,322
887.719788,327
887.836548,324
887.953247,334
888.070068,313
888.186829,314
888.303528,312
888.420288,317
888.536987,311
888.653687,315
888.770447,309
888.887146,325
889.003967,321
889.120667,307
889.237305,326
889.354065,325
889.470703,321
889.587463,322
889.704163,319
889.820862,316
889.937561,318
890.054199,333
890.170837,314
890.287598,316
890.404236,316
890.520874,326
890.637634,318
890.754211,309
890.87085,323
890.987549,320
891.104187,319
891.220886,324
891.337463,311
891.454102,315
891.57074,312
891.687378,322
891.804077,325
891.920654,311
892.037231,317
892.15387,314
892.270447,305
892.387085,315
892.503723,315
892.6203,319
892.736877,316
892.853516,313
892.970032,309
893.08667,319
893.203186,311
893.319763,319
893.43634,328
893.552917,322
893.669556,319
893.786011,325
893.902588,316
894.019165,302
894.135681,312
894.252197,325
894.368835,324
894.485291,312
894.601868,304
894.718384,329
894.8349,330
894.951355,326
895.067932,313
895.184448,324
895.300964,313
895.417419,316
895.533936,316
895.650452,310
895.766907,317
895.883423,330
895.999878,326
896.116333,315
896.232849,315
896.349304,322
896.465759,317
896.582214,312
896.698669,335
896.815125,317
896.931641,308
897.048035,320
897.164551,312
897.280884,320
897.397339,324
897.513794,326
897.630249,318
897.746582,322
897.863098,329
897.979431,319
898.095886,317
898.212341,321
898.328674,317
898.445129,309
898.561462,307
898.677795,323
898.794312,318
898.910645,318
899.026978,305
899.143433,331
899.259766,311
899.37616,323
899.492493,318
899.608765,331
899.725159,309
899.841553,319
899.957947,319
900.07428,318
900.190552,315
900.306946,319
900.423157,321
900.53949,318
900.655884,314
900.772156,311
900.888489,310
901.004822,314
901.121033,314
901.237366,308
901.353699,323
901.46991,307
901.586304,327
901.702515,328
901.818787,312
901.93512,311
902.051331,319
902.167603,310
902.283875,322
902.400085,315
902.516418,307
902.632629,324
902.74884,321
902.865112,324
902.981384,315
903.097595,332
903.213867,315
903.330017,310
903.446289,315
903.5625,322
903.67865,326
903.794922,304
903.911072,327
904.027344,315
904.143494,303
904.259705,323
904.375916,317
904.492065,317
904.608215,326
904.724426,331
904.840576,313
904.956726,315
905.072876,313
905.189087,327
905.305176,302
905.421387,311
905.537537,310
905.653687,327
905.769775,315
905.885925,304
906.002014,315
906.118164,323
906.234314,328
906.350403,314
906.466492,319
906.582642,322
906.69873,317
906.814758,321
906.930908,311
907.046936,338
907.163086,314
907.279175,326
907.395264,313
907.511353,304
907.62738,312
907.743408,322
907.859497,299
907.975525,328
908.091553,311
908.207703,321
908.32373,327
908.439758,332
908.555786,321
908.671814,319
908.787842,321
908.90387,312
909.019775,313
909.135864,328
909.251892,315
909.367859,307
909.483826,317
909.599854,315
909.715881,318
909.831848,313
909.947815,307
910.063782,314
910.179749,318
910.295776,312
910.411743,305
910.527649,306
910.643616,320
910.759583,319
910.875488,315
910.991455,312
911.107361,317
911.223267,308
911.339294,305
911.4552,315
911.571106,328
911.687073,304
911.802979,305
911.918823,320
912.034729,319
912.150635,326
912.266602,323
912.382446,311
912.498352,320
912.614197,324
912.730103,318
912.846008,315
792.44574,311
792.56488,361
792.68396,394
792.80304,367
792.92218,341
793.041199,326
793.160339,334
793.279419,332
793.398499,343
793.517578,314
793.636658,317
793.755737,336
793.874817,343
793.993896,351
794.112976,347
794.232056,317
794.351074,337
794.470215,337
794.589233,334
794.708313,341
794.827393,323
794.946411,336
795.065552,338
795.18457,337
795.303589,328
795.422668,339
795.541687,321
795.660767,323
795.779846,350
795.898865,326
796.017883,342
796.136963,319
796.255981,329
796.375061,334
796.49408,326
796.613037,322
796.732117,344
796.851135,338
796.970154,317
797.089233,326
797.208191,324
797.327271,322
797.446228,343
797.565186,331
797.684265,320
797.803223,314
797.922241,337
798.04126,316
798.160278,311
798.279297,336
798.398315,324
798.517273,326
798.636292,335
798.75531,335
798.874268,335
798.993286,319
799.112244,335
799.231323,333
799.350281,328
799.469238,331
799.588257,330
799.707153,322
799.826111,333
799.945129,329
800.064087,324
800.183044,311
800.302063,329
800.421021,336
800.539978,332
800.658936,333
800.777893,342
800.896912,330
801.015747,320
801.134705,325
801.253723,334
801.37262,330
801.491638,331
801.610535,340
801.729492,328
801.84845,321
801.967407,345
802.086243,327
802.205261,327
802.324158,336
802.443115,341
802.562073,327
802.680969,343
802.799927,318
802.918762,345
803.037659,327
803.156677,330
803.275574,327
803.39447,338
803.513428,328
803.632263,339
803.751221,318
803.870117,327
803.989014,321
804.107971,336
804.226746,327
804.345642,338
804.4646,324
804.583496,337
804.702393,323
804.821228,334
804.940125,327
805.059021,331
805.177917,336
805.296814,338
805.415649,331
805.534546,318
805.653442,332
805.772278,341
805.891113,331
806.01001,341
806.128906,338
806.247742,330
806.366577,315
806.485413,338
806.604309,323
806.723145,331
806.84198,330
806.960876,332
807.079712,334
807.198486,329
807.317383,334
807.436218,341
807.554993,325
807.673889,327
807.792725,333
807.91156,352
808.030396,335
808.14917,326
808.268005,346
808.386841,336
808.505676,316
808.624451,343
808.743286,343
808.862122,324
808.980896,340
809.099731,331
809.218506,321
809.337341,334
809.456116,319
809.57489,350
809.693726,321
809.8125,346
809.931274,330
810.050049,334
810.168884,322
810.287659,339
810.406372,332
810.525269,326
810.643982,333
810.762756,332
810.881531,329
811.000305,329
811.11908,321
811.237854,335
811.356567,327
811.475403,348
811.594116,329
811.71283,327
811.831604,331
811.950378,333
812.069153,321
812.187927,328
812.30658,343
812.425415,349
812.544128,334
812.662781,320
812.781616,339
812.900269,334
813.019043,334
813.137756,333
813.256531,329
813.375244,334
813.493896,318
813.612671,332
813.731384,319
813.850037,334
813.96875,337
814.087524,343
814.206238,328
814.324951,326
814.443604,319
814.562256,345
814.68103,332
814.799683,336
814.918335,334
815.037109,339
815.155762,331
815.274475,322
815.393188,322
815.511841,338
815.630554,339
815.749146,337
815.867859,326
815.986572,319
816.105164,325
816.223877,329
816.342529,309
816.461182,342
816.579895,314
816.698486,327
816.817139,331
816.935791,334
817.054504,327
817.173096,343
817.291748,338
817.4104,333
817.529053,321
817.647644,322
817.766235,328
817.884949,331
818.00354,331
818.122192,325
818.240845,324
818.359436,320
818.478088,322
818.59668,329
818.715271,306
818.833923,329
818.952515,342
819.071106,320
819.189758,328
819.30835,325
819.426941,317
819.545532,336
819.664124,325
819.782715,319
819.901306,323
820.019897,318
820.138489,332
820.25708,323
820.375671,313
820.494202,314
820.612732,307
820.731384,315
820.849915,324
820.968506,329
821.087097,323
821.205627,315
821.324158,315
821.442749,316
821.561279,323
821.679871,317
821.798401,305
821.916931,328
822.035461,316
822.154053,333
822.272583,309
822.391174,321
822.509583,314
822.628174,332
822.746704,325
822.865234,313
822.983765,306
823.102295,309
823.220825,319
823.339294,331
823.457825,326
823.576355,323
823.694824,309
823.813354,316
823.931885,308
824.050354,314
824.168884,299
824.287354,323
824.405823,318
824.524353,318
824.642822,323
824.761353,330
824.879822,323
824.998291,319
825.116699,309
825.235291,322
825.353699,313
825.472168,312
825.590637,317
825.709106,329
825.827576,322
825.946045,305
826.064453,321
826.182983,323
826.301392,314
826.4198,320
826.53833,321
826.656738,323
826.775208,321
826.893677,312
827.012024,310
827.130493,319
827.248962,332
827.36731,330
827.485779,309
827.604248,310
827.722595,308
827.841064,317
827.959412,308
828.077942,317
828.196289,318
828.314636,306
828.433105,327
828.551514,311
828.669861,308
828.78833,302
828.906677,317
829.025085,310
829.143433,312
829.261841,320
829.38031,315
829.498657,321
829.617004,318
829.735413,320
829.85376,324
829.972107,309
830.090515,306
830.208862,332
830.327209,310
830.445557,319
830.563904,318
830.682312,321
830.800659,310
830.919006,310
831.037354,305
831.155701,313
831.274048,320
831.392395,316
831.51062,319
831.629028,309
831.747314,324
831.865662,317
831.984009,317
832.102356,314
832.220642,328
832.338928,310
832.457275,316
832.575623,309
832.693909,311
832.812134,300
832.930481,324
833.048828,305
833.167114,322
833.2854,312
833.403687,306
833.521973,312
833.640259,335
833.758545,327
833.876831,315
833.995056,308
834.113281,310
834.231628,333
834.349915,302
834.468201,326
834.586426,315
834.704651,326
834.822998,305
834.941162,308
835.059448,304
835.177673,319
835.295959,312
835.414246,327
835.53241,311
835.650635,329
835.768921,308
835.887146,323
836.005371,301
836.123596,337
836.241821,320
836.360046,315
836.478271,316
836.596497,327
836.714722,319
836.832886,307
836.95105,322
837.069336,323
837.1875,311
837.305725,319
837.423889,306
837.542053,327
837.660339,322
837.778503,318
837.896667,313
838.014832,310
838.132996,314
838.25116,319
838.369385,320
838.487488,321
838.605713,314
838.723877,330
838.84198,326
838.960205,317
839.078308,317
839.196472,336
839.314636,321
839.4328,317
839.550964,314
839.669067,313
839.787231,322
839.905396,315
840.023499,313
840.141602,333
840.259766,305
840.377869,314
840.495972,307
840.614136,341
840.732239,303
840.850342,303
840.968445,317
841.086548,309
841.204651,320
841.322754,325
841.440918,324
841.55896,320
841.677002,316
841.795166,300
841.913208,305
842.031311,318
842.149353,317
842.267456,312
842.385498,322
842.503601,303
842.621643,327
842.739746,322
842.857788,326
842.97583,315
843.093933,320
843.211975,334
843.330017,316
843.44812,315
843.566101,327
843.684204,309
843.802246,320
843.920227,318
844.038269,318
844.156311,326
844.274292,314
844.392395,319
844.510376,308
844.628357,319
844.74646,307
844.864441,324
844.982422,321
845.100403,322
845.218384,324
845.336426,312
845.454468,321
845.572449,317
845.69043,310
845.808411,307
845.926453,319
846.044373,328
846.162354,310
846.280396,307
846.398315,311
846.516296,326
846.634216,316
846.752197,319
846.870178,321
846.988098,313
847.106079,314
847.22406,316
847.34198,323
847.4599,312
847.577881,298
847.695801,309
847.813782,311
847.931641,308
848.049561,308
848.167603,319
848.285461,308
848.403381,315
848.521362,318
848.639221,308
848.75708,319
848.875,322
848.99292,299
849.110901,330
849.22876,310
849.34668,319
849.464539,316
849.582458,321
849.700317,320
849.818176,321
849.936096,294
850.053955,320
850.171875,306
850.289673,320
850.407593,316
850.525452,307
850.643311,320
850.761169,308
850.878967,312
850.996887,324
851.114746,311
851.232544,320
851.350403,314
851.468262,322
851.58606,320
851.703979,310
851.821777,316
851.939636,316
852.057434,313
852.175232,321
852.293091,319
852.410889,309
852.528687,321
852.646545,320
852.764343,314
852.88208,316
852.999939,323
853.117676,309
853.235535,320
853.353271,317
853.471069,314
853.588928,313
853.706604,316
853.824402,320
853.9422,307
854.059998,316
854.177734,328
854.295532,314
854.413269,319
854.531006,323
854.648804,322
854.766541,322
854.884277,312
855.002014,322
855.119751,319
855.237549,307
855.355225,315
855.473022,331
855.590698,305
855.708435,324
855.826172,305
855.943848,329
856.061646,314
856.179321,313
856.296997,311
856.414795,310
856.53241,320
856.650085,318
856.767822,318
856.885559,323
857.003174,305
857.120911,309
857.238586,316
857.356201,310
857.473938,313
857.591614,317
857.709351,330
857.826965,319
857.944641,333
858.062317,317
858.179993,311
858.297668,319
858.415283,296
858.532959,311
858.650574,314
858.768188,328
858.885803,321
859.003479,316
859.121094,308
859.23877,314
859.356384,317
859.473999,310
859.591675,312
859.709229,332
859.826843,307
859.944458,318
860.062012,312
860.179626,327
860.297302,330
860.414856,325
860.532471,307
860.650024,324
860.767639,314
860.885193,319
861.002808,328
861.120361,324
861.237976,322
861.35553,310
861.473022,325
861.590698,320
861.708191,314
861.825745,316
861.943298,301
862.060852,318
862.178406,314
862.295959,314
862.413513,311
862.531006,309
862.64856,317
862.766113,321
862.883667,313
863.00116,306
863.118713,315
863.236206,328
863.353699,318
863.471252,327
863.588745,313
863.706177,326
863.82373,320
863.941162,309
864.058716,310
864.176208,315
864.29364,309
864.411194,307
864.528687,317
864.646118,320
864.763611,325
864.881042,321
864.998535,301
865.116028,307
865.233459,307
865.350891,324
865.468384,309
865.585754,320
865.703308,327
865.820679,314
865.938171,320
866.055542,325
866.173035,312
866.290466,326
866.407837,313
866.52533,327
866.6427,320
866.760071,325
866.877563,311
866.994934,311
867.112305,322
867.229736,310
867.347107,322
867.464539,314
867.58197,300
867.699341,319
867.81665,312
867.934082,319
868.051453,317
868.168823,316
868.286194,298
868.403564,321
868.520935,321
868.638306,308
868.755676,330
868.872986,298
868.990295,322
869.107727,312
869.225037,315
869.342346,323
869.459717,321
869.577026,309
869.694336,312
869.811707,335
869.929016,311
870.046326,325
870.163635,306
870.280945,316
870.398254,314
870.515564,313
870.632812,306
870.750183,312
870.867432,314
870.984741,314
871.102051,311
871.219299,334
871.336609,307
871.453918,319
871.571106,319
871.688416,311
871.805664,314
871.922852,313
872.040222,312
872.157471,312
872.274719,321
872.391968,313
872.509155,320
872.626465,324
872.743652,318
872.860962,316
872.978149,310
873.095337,330
873.212646,324
873.329834,317
873.44696,317
873.564209,319
873.681396,312
873.798645,312
873.915894,308
874.03302,313
874.150208,310
874.267456,309
874.384583,325
874.501831,322
874.618958,318
874.736145,319
874.853333,310
874.970459,320
875.087646,309
875.204834,315
875.32196,314
875.439148,319
875.556274,330
875.673401,322
875.790527,309
875.907715,321
876.024841,313
876.141968,319
876.259094,326
876.376282,327
876.493347,301
876.610474,306
876.7276,317
876.844727,311
876.961853,318
877.078918,315
877.195984,307
877.313171,328
877.430237,323
877.547302,321
877.664368,320
877.781433,318
877.898499,303
878.015625,321
878.13269,318
878.249695,321
878.366821,323
878.483887,320
878.600952,307
878.717957,318
878.834961,324
878.952087,318
879.069092,310
879.186157,317
879.303162,305
879.420227,327
879.537231,321
879.654236,316
879.77124,318
879.888306,308
880.005249,300
880.122314,321
880.239319,307
880.356323,329
880.473328,315
880.590271,320
880.707275,317
880.824341,307
880.941284,311
881.058228,321
881.175232,307
881.292236,320
881.40918,334
881.526123,307
881.643066,312
881.760071,322
881.877014,307
881.993958,325
882.11084,299
882.227783,326
882.344727,319
882.46167,315
882.578613,308
882.695618,325
882.812439,314
882.929382,322
883.046326,304
883.163208,323
883.280151,322
883.397034,309
883.513916,316
883.630798,328
883.747742,305
883.864563,310
883.981506,314
884.098389,306
884.21521,325
884.332153,324
884.448975,311
884.565796,336
884.682678,312
884.7995,316
884.916443,311
885.033264,327
885.150085,318
885.266968,334
885.383789,304
885.500671,311
885.617493,313
885.734314,315
885.851196,317
885.967896,312
886.084717,316
886.201599,321
886.318359,311
886.435181,318
886.552002,303
886.668762,315
886.785645,313
886.902344,318
887.019165,319
887.135925,305
887.252747,312
887.369446,314
887.486267,328
887.603027,315
887.719788,318
887.836548,330
887.953247,313
888.070068,315
888.186829,313
888.303528,309
888.420288,304
888.536987,326
888.653687,308
888.770447,329
888.887146,310
889.003967,321
889.120667,311
889.237305,319
889.354065,313
889.470703,308
889.587463,307
889.704163,316
889.820862,320
889.937561,323
890.054199,311
890.170837,311
890.287598,305
890.404236,326
890.520874,324
890.637634,312
890.754211,315
890.87085,314
890.987549,315
891.104187,313
891.220886,304
891.337463,319
891.454102,302
891.57074,323
891.687378,321
891.804077,304
891.920654,312
892.037231,313
892.15387,310
892.270447,313
892.387085,316
892.503723,316
892.6203,321
892.736877,318
892.853516,308
892.970032,324
893.08667,319
893.203186,317
893.319763,300
893.43634,323
893.552917,315
893.669556,308
893.786011,318
893.902588,321
894.019165,307
894.135681,311
894.252197,302
894.368835,323
894.485291,308
894.601868,320
894.718384,314
894.8349,320
894.951355,321
895.067932,326
895.184448,311
895.300964,322
895.417419,313
895.533936,322
895.650452,317
895.766907,324
895.883423,308
895.999878,326
896.116333,303
896.232849,307
896.349304,312
896.465759,322
896.582214,322
896.698669,310
896.815125,316
896.931641,327
897.048035,316
897.164551,328
897.280884,304
897.397339,312
897.513794,319
897.630249,315
897.746582,318
897.863098,317
897.979431,300
898.095886,313
898.212341,299
898.328674,324
898.445129,310
898.561462,307
898.677795,325
898.794312,310
898.910645,320
899.026978,324
899.143433,313
899.259766,321
899.37616,331
899.492493,321
899.608765,316
899.725159,316
899.841553,309
899.957947,311
900.07428,317
900.190552,318
900.306946,308
900.423157,330
900.53949,314
900.655884,327
900.772156,317
900.888489,312
901.004822,320
901.121033,318
901.237366,320
901.353699,317
901.46991,319
901.586304,311
901.702515,313
901.818787,311
901.93512,310
902.051331,314
902.167603,323
902.283875,318
902.400085,315
902.516418,316
902.632629,317
902.74884,317
902.865112,324
902.981384,319
903.097595,321
903.213867,313
903.330017,312
903.446289,316
903.5625,314
903.67865,329
903.794922,313
903.911072,307
904.027344,314
904.143494,304
904.259705,304
904.375916,313
904.492065,317
904.608215,299
904.724426,308
904.840576,321
904.956726,323
905.072876,312
905.189087,309
905.305176,317
905.421387,316
905.537537,324
905.653687,328
905.769775,315
905.885925,313
906.002014,315
906.118164,323
906.234314,316
906.350403,327
906.466492,307
906.582642,316
906.69873,314
906.814758,308
906.930908,311
907.046936,325
907.163086,321
907.279175,306
907.395264,330
907.511353,312
907.62738,323
907.743408,311
907.859497,308
907.975525,313
908.091553,320
908.207703,317
908.32373,315
908.439758,303
908.555786,314
908.671814,319
908.787842,315
908.90387,305
909.019775,306
909.135864,313
909.251892,316
909.367859,289
909.483826,321
909.599854,319
909.715881,319
909.831848,309
909.947815,314
910.063782,311
910.179749,322
910.295776,310
910.411743,309
910.527649,309
910.643616,322
910.759583,312
910.875488,319
910.991455,305
911.107361,325
911.223267,321
911.339294,318
911.4552,310
911.571106,303
911.687073,321
911.802979,322
911.918823,312
912.034729,335
912.150635,299
912.266602,329
912.382446,300
912.498352,329
912.614197,327
912.730103,316
912.846008,313
792.44574,327
792.56488,353
792.68396,397
792.80304,367
792.92218,348
793.041199,311
793.160339,332
793.279419,341
793.398499,333
793.517578,302
793.636658,322
793.755737,336
793.874817,340
793.993896,342
794.112976,324
794.232056,328
794.351074,327
794.470215,316
794.589233,338
794.708313,340
794.827393,326
794.946411,340
795.065552,331
795.18457,355
795.303589,331
795.422668,329
795.541687,336
795.660767,325
795.779846,351
795.898865,315
796.017883,336
796.136963,329
796.255981,332
796.375061,326
796.49408,329
796.613037,351
796.732117,332
796.851135,329
796.970154,327
797.089233,332
797.208191,333
797.327271,336
797.446228,329
797.565186,340
797.684265,325
797.803223,334
797.922241,318
798.04126,317
798.160278,335
798.279297,324
798.398315,328
798.517273,325
798.636292,329
798.75531,321
798.874268,327
798.993286,333
799.112244,326
799.231323,316
799.350281,329
799.469238,339
799.588257,334
799.707153,325
799.826111,333
799.945129,323
800.064087,342
800.183044,325
800.302063,329
800.421021,321
800.539978,324
800.658936,323
800.777893,330
800.896912,320
801.015747,344
801.134705,331
801.253723,327
801.37262,344
801.491638,330
801.610535,326
801.729492,333
801.84845,330
801.967407,326
802.086243,334
802.205261,334
802.324158,317
802.443115,336
802.562073,333
802.680969,329
802.799927,334
802.918762,326
803.037659,319
803.156677,332
803.275574,328
803.39447,319
803.513428,330
803.632263,331
803.751221,324
803.870117,330
803.989014,336
804.107971,326
804.226746,331
804.345642,326
804.4646,342
804.583496,336
804.702393,324
804.821228,327
804.940125,329
805.059021,331
805.177917,328
805.296814,342
805.415649,328
805.534546,331
805.653442,339
805.772278,338
805.891113,331
806.01001,344
806.128906,343
806.247742,334
806.366577,335
806.485413,336
806.604309,333
806.723145,337
806.84198,329
806.960876,343
807.079712,319
807.198486,332
807.317383,329
807.436218,330
807.554993,336
807.673889,329
807.792725,331
807.91156,341
808.030396,327
808.14917,325
808.268005,333
808.386841,333
808.505676,342
808.624451,330
808.743286,335
808.862122,342
808.980896,329
809.099731,337
809.218506,339
809.337341,332
809.456116,336
809.57489,335
809.693726,340
809.8125,341
809.931274,330
810.050049,334
810.168884,329
810.287659,331
810.406372,338
810.525269,339
810.643982,318
810.762756,336
810.881531,329
811.000305,336
811.11908,321
811.237854,346
811.356567,336
811.475403,337
811.594116,333
811.71283,343
811.831604,319
811.950378,328
812.069153,341
812.187927,347
812.30658,342
812.425415,331
812.544128,322
812.662781,337
812.781616,326
812.900269,340
813.019043,332
813.137756,330
813.256531,333
813.375244,343
813.493896,326
813.612671,333
813.731384,317
813.850037,350
813.96875,328
814.087524,339
814.206238,337
814.324951,340
814.443604,334
814.562256,337
814.68103,331
814.799683,329
814.918335,340
815.037109,343
815.155762,325
815.274475,340
815.393188,326
815.511841,344
815.630554,347
815.749146,340
815.867859,321
815.986572,331
816.105164,330
816.223877,331
816.342529,328
816.461182,340
816.579895,324
816.698486,338
816.817139,336
816.935791,322
817.054504,327
817.173096,324
817.291748,334
817.4104,334
817.529053,318
817.647644,340
817.766235,325
817.884949,346
818.00354,332
818.122192,331
818.240845,327
818.359436,340
818.478088,322
818.59668,339
818.715271,314
818.833923,337
818.952515,316
819.071106,337
819.189758,327
819.30835,320
819.426941,323
819.545532,330
819.664124,324
819.782715,329
819.901306,320
820.019897,339
820.138489,330
820.25708,329
820.375671,316
820.494202,309
820.612732,318
820.731384,318
820.849915,314
820.968506,322
821.087097,318
821.205627,324
821.324158,318
821.442749,323
821.561279,312
821.679871,312
821.798401,316
821.916931,318
822.035461,315
822.154053,337
822.272583,312
822.391174,309
822.509583,320
822.628174,331
822.746704,317
822.865234,322
822.983765,316
823.102295,324
823.220825,321
823.339294,310
823.457825,304
823.576355,320
823.694824,318
823.813354,316
823.931885,321
824.050354,323
824.168884,325
824.287354,315
824.405823,342
824.524353,318
824.642822,327
824.761353,315
824.879822,320
824.998291,330
825.116699,320
825.235291,311
825.353699,315
825.472168,316
825.590637,317
825.709106,319
825.827576,313
825.946045,323
826.064453,329
826.182983,317
826.301392,315
826.4198,311
826.53833,324
826.656738,315
826.775208,317
826.893677,314
827.012024,322
827.130493,310
827.248962,318
827.36731,319
827.485779,336
827.604248,314
827.722595,328
827.841064,317
827.959412,299
828.077942,326
828.196289,311
828.314636,311
828.433105,316
828.551514,314
828.669861,317
828.78833,311
828.906677,315
829.025085,321
829.143433,316
829.261841,319
829.38031,321
829.498657,309
829.617004,307
829.735413,320
829.85376,312
829.972107,314
830.090515,319
830.208862,320
830.327209,307
830.445557,320
830.563904,319
830.682312,321
830.800659,314
830.919006,326
831.037354,322
831.155701,329
831.274048,317
831.392395,316
831.51062,299
831.629028,308
831.747314,314
831.865662,313
831.984009,319
832.102356,319
832.220642,313
832.338928,316
832.457275,317
832.575623,323
832.693909,329
832.812134,320
832.930481,312
833.048828,315
833.167114,323
833.2854,318
833.403687,315
833.521973,310
833.640259,322
833.758545,315
833.876831,319
833.995056,309
834.113281,300
834.231628,326
834.349915,317
834.468201,316
834.586426,308
834.704651,322
834.822998,319
834.941162,327
835.059448,318
835.177673,324
835.295959,322
835.414246,311
835.53241,312
835.650635,312
835.768921,312
835.887146,320
836.005371,316
836.123596,322
836.241821,322
836.360046,319
836.478271,312
836.596497,329
836.714722,312
836.832886,325
836.95105,327
837.069336,314
837.1875,317
837.305725,326
837.423889,311
837.542053,316
837.660339,333
837.778503,304
837.896667,314
838.014832,317
838.132996,317
838.25116,329
838.369385,307
838.487488,320
838.605713,320
838.723877,318
838.84198,318
838.960205,321
839.078308,305
839.196472,320
839.314636,305
839.4328,324
839.550964,316
839.669067,311
839.787231,317
839.905396,320
840.023499,309
840.141602,326
840.259766,320
840.377869,330
840.495972,309
840.614136,319
840.732239,295
840.850342,315
840.968445,310
841.086548,330
841.204651,315
841.322754,323
841.440918,305
841.55896,314
841.677002,320
841.795166,310
841.913208,318
842.031311,312
842.149353,329
842.267456,331
842.385498,329
842.503601,308
842.621643,321
842.739746,319
842.857788,318
842.97583,323
843.093933,326
843.211975,318
843.330017,312
843.44812,324
843.566101,303
843.684204,311
843.802246,306
843.920227,322
844.038269,300
844.156311,317
844.274292,311
844.392395,312
844.510376,326
844.628357,314
844.74646,316
844.864441,320
844.982422,312
845.100403,316
845.218384,311
845.336426,309
845.454468,330
845.572449,316
845.69043,313
845.808411,318
845.926453,319
846.044373,313
846.162354,316
846.280396,315
846.398315,319
846.516296,325
846.634216,304
846.752197,317
846.870178,325
846.988098,322
847.106079,310
847.22406,303
847.34198,311
847.4599,314
847.577881,307
847.695801,329
847.813782,310
847.931641,314
848.049561,337
848.167603,300
848.285461,303
848.403381,325
848.521362,317
848.639221,333
848.75708,320
848.875,313
848.99292,309
849.110901,327
849.22876,312
849.34668,326
849.464539,307
849.582458,310
849.700317,308
849.818176,321
849.936096,324
850.053955,320
850.171875,312
850.289673,315
850.407593,312
850.525452,312
850.643311,321
850.761169,319
850.878967,313
850.996887,320
851.114746,320
851.232544,325
851.350403,311
851.468262,321
851.58606,304
851.703979,312
851.821777,314
851.939636,323
852.057434,318
852.175232,322
852.293091,316
852.410889,309
852.528687,318
852.646545,312
852.764343,313
852.88208,320
852.999939,314
853.117676,322
853.235535,317
853.353271,314
853.471069,327
853.588928,304
853.706604,309
853.824402,305
853.9422,335
854.059998,322
854.177734,314
854.295532,317
854.413269,306
854.531006,303
854.648804,310
854.766541,320
854.884277,318
855.002014,316
855.119751,311
855.237549,333
855.355225,308
855.473022,308
855.590698,317
855.708435,329
855.826172,316
855.943848,314
856.061646,322
856.179321,323
856.296997,311
856.414795,311
856.53241,320
856.650085,324
856.767822,319
856.885559,311
857.003174,327
857.120911,312
857.238586,316
857.356201,315
857.473938,334
857.591614,324
857.709351,303
857.826965,318
857.944641,323
858.062317,318
858.179993,309
858.297668,319
858.415283,312
858.532959,308
858.650574,303
858.768188,328
858.885803,309
859.003479,311
859.121094,317
859.23877,320
859.356384,290
859.473999,320
859.591675,304
859.709229,315
859.826843,312
859.944458,314
860.062012,305
860.179626,310
860.297302,298
860.414856,319
860.532471,315
860.650024,327
860.767639,302
860.885193,337
861.002808,336
861.120361,318
861.237976,309
861.35553,319
861.473022,318
861.590698,318
861.708191,322
861.825745,310
861.943298,311
862.060852,311
862.178406,319
862.295959,320
862.413513,315
862.531006,316
862.64856,326
862.766113,321
862.883667,307
863.00116,308
863.118713,319
863.236206,311
863.353699,334
863.471252,323
863.588745,311
863.706177,318
863.82373,296
863.941162,311
864.058716,306
864.176208,309
864.29364,314
864.411194,323
864.528687,312
864.646118,319
864.763611,314
864.881042,306
864.998535,305
865.116028,315
865.233459,310
865.350891,310
865.468384,317
865.585754,323
865.703308,302
865.820679,313
865.938171,315
866.055542,332
866.173035,295
866.290466,309
866.407837,314
866.52533,317
866.6427,310
866.760071,329
866.877563,319
866.994934,311
867.112305,312
867.229736,324
867.347107,319
867.464539,322
867.58197,298
867.699341,309
867.81665,327
867.934082,313
868.051453,319
868.168823,326
868.286194,316
868.403564,324
868.520935,295
868.638306,317
868.755676,317
868.872986,331
868.990295,309
869.107727,303
869.225037,309
869.342346,313
869.459717,320
869.577026,323
869.694336,302
869.811707,318
869.929016,302
870.046326,324
870.163635,306
870.280945,324
870.398254,309
870.515564,315
870.632812,296
870.750183,305
870.867432,310
870.984741,333
871.102051,304
871.219299,319
871.336609,319
871.453918,317
871.571106,319
871.688416,320
871.805664,309
871.922852,317
872.040222,302
872.157471,328
872.274719,316
872.391968,319
872.509155,312
872.626465,310
872.743652,306
872.860962,316
872.978149,316
873.095337,321
873.212646,305
873.329834,332
873.44696,315
873.564209,313
873.681396,309
873.798645,319
873.915894,316
874.03302,313
874.150208,302
874.267456,314
874.384583,305
874.501831,311
874.618958,309
874.736145,318
874.853333,314
874.970459,311
875.087646,316
875.204834,318
875.32196,324
875.439148,320
875.556274,309
875.673401,331
875.790527,311
875.907715,321
876.024841,315
876.141968,324
876.259094,310
876.376282,331
876.493347,318
876.610474,325
876.7276,315
876.844727,316
876.961853,323
877.078918,326
877.195984,317
877.313171,317
877.430237,318
877.547302,322
877.664368,309
877.781433,323
877.898499,303
878.015625,324
878.13269,327
878.249695,307
878.366821,316
878.483887,329
878.600952,304
878.717957,322
878.834961,307
878.952087,322
879.069092,308
879.186157,327
879.303162,309
879.420227,317
879.537231,308
879.654236,314
879.77124,317
879.888306,318
880.005249,312
880.122314,312
880.239319,315
880.356323,327
880.473328,311
880.590271,333
880.707275,321
880.824341,314
880.941284,315
881.058228,315
881.175232,319
881.292236,301
881.40918,317
881.526123,317
881.643066,317
881.760071,315
881.877014,314
881.993958,304
882.11084,314
882.227783,320
882.344727,296
882.46167,324
882.578613,314
882.695618,309
882.812439,320
882.929382,314
883.046326,315
883.163208,309
883.280151,324
883.397034,305
883.513916,318
883.630798,324
883.747742,314
883.864563,316
883.981506,310
884.098389,322
884.21521,309
884.332153,317
884.448975,310
884.565796,318
884.682678,326
884.7995,327
884.916443,310
885.033264,319
885.150085,306
885.266968,322
885.383789,314
885.500671,305
885.617493,311
885.734314,320
885.851196,304
885.967896,307
886.084717,312
886.201599,317
886.318359,323
886.435181,312
886.552002,320
886.668762,306
886.785645,310
886.902344,332
887.019165,310
887.135925,319
887.252747,318
887.369446,324
887.486267,317
887.603027,324
887.719788,321
887.836548,324
887.953247,322
888.070068,308
888.186829,315
888.303528,329
888.420288,311
888.536987,331
888.653687,307
888.770447,315
888.887146,312
889.003967,316
889.120667,311
889.237305,328
889.354065,317
889.470703,325
889.587463,300
889.704163,321
889.820862,315
889.937561,312
890.054199,309
890.170837,315
890.287598,319
890.404236,319
890.520874,321
890.637634,312
890.754211,311
890.87085,322
890.987549,315
891.104187,307
891.220886,319
891.337463,300
891.454102,323
891.57074,319
891.687378,310
891.804077,320
891.920654,313
892.037231,313
892.15387,308
892.270447,308
892.387085,321
892.503723,318
892.6203,327
892.736877,306
892.853516,298
892.970032,318
893.08667,327
893.203186,312
893.319763,306
893.43634,303
893.552917,314
893.669556,305
893.786011,320
893.902588,321
894.019165,313
894.135681,319
894.252197,317
894.368835,326
894.485291,304
894.601868,316
894.718384,318
894.8349,308
894.951355,309
895.067932,315
895.184448,316
895.300964,313
895.417419,314
895.533936,313
895.650452,311
895.766907,310
895.883423,318
895.999878,306
896.116333,316
896.232849,322
896.349304,317
896.465759,313
896.582214,310
896.698669,326
896.815125,318
896.931641,328
897.048035,321
897.164551,308
897.280884,305
897.397339,305
897.513794,304
897.630249,330
897.746582,306
897.863098,327
897.979431,320
898.095886,305
898.212341,318
898.328674,319
898.445129,324
898.561462,318
898.677795,313
898.794312,307
898.910645,310
899.026978,326
899.143433,314
899.259766,327
899.37616,330
899.492493,314
899.608765,319
899.725159,317
899.841553,311
899.957947,312
900.07428,303
900.190552,311
900.306946,317
900.423157,324
900.53949,322
900.655884,311
900.772156,316
900.888489,322
901.004822,311
901.121033,317
901.237366,309
901.353699,307
901.46991,315
901.586304,316
901.702515,315
901.818787,319
901.93512,326
902.051331,316
902.167603,317
902.283875,315
902.400085,313
902.516418,316
902.632629,304
902.74884,322
902.865112,319
902.981384,316
903.097595,310
903.213867,329
903.330017,307
903.446289,314
903.5625,312
903.67865,319
903.794922,323
903.911072,312
904.027344,294
904.143494,320
904.259705,315
904.375916,316
904.492065,313
904.608215,327
904.724426,313
904.840576,297
904.956726,316
905.072876,320
905.189087,309
905.305176,325
905.421387,314
905.537537,316
905.653687,302
905.769775,312
905.885925,310
906.002014,327
906.118164,306
906.234314,318
906.350403,310
906.466492,334
906.582642,319
906.69873,326
906.814758,318
906.930908,322
907.046936,300
907.163086,326
907.279175,306
907.395264,307
907.511353,320
907.62738,323
907.743408,310
907.859497,309
907.975525,325
908.091553,313
908.207703,327
908.32373,330
908.439758,329
908.555786,310
908.671814,316
908.787842,318
908.90387,314
909.019775,320
909.135864,313
909.251892,316
909.367859,314
909.483826,315
909.599854,310
909.715881,325
909.831848,306
909.947815,313
910.063782,316
910.179749,324
910.295776,321
910.411743,324
910.527649,320
910.643616,324
910.759583,303
910.875488,313
910.991455,318
911.107361,321
911.223267,315
911.339294,318
911.4552,313
911.571106,313
911.687073,316
911.802979,315
911.918823,304
912.034729,311
912.150635,318
912.266602,317
912.382446,319
912.498352,321
912.614197,317
912.730103,324
912.846008,321
