792.44574,381
792.56488,406
792.68396,446
792.80304,431
792.92218,383
793.041199,380
793.160339,373
793.279419,385
793.398499,389
793.517578,353
793.636658,358
793.755737,364
793.874817,375
793.993896,367
794.112976,358
794.232056,339
794.351074,369
794.470215,346
794.589233,354
794.708313,348
794.827393,347
794.946411,362
795.065552,355
795.18457,356
795.303589,366
795.422668,350
795.541687,360
795.660767,361
795.779846,340
795.898865,347
796.017883,349
796.136963,350
796.255981,363
796.375061,348
796.49408,356
796.613037,344
796.732117,341
796.851135,351
796.970154,333
797.089233,338
797.208191,349
797.327271,335
797.446228,343
797.565186,337
797.684265,347
797.803223,348
797.922241,338
798.04126,338
798.160278,343
798.279297,334
798.398315,352
798.517273,325
798.636292,349
798.75531,340
798.874268,340
798.993286,347
799.112244,338
799.231323,348
799.350281,343
799.469238,352
799.588257,331
799.707153,337
799.826111,335
799.945129,337
800.064087,337
800.183044,338
800.302063,338
800.421021,337
800.539978,338
800.658936,328
800.777893,348
800.896912,338
801.015747,327
801.134705,327
801.253723,348
801.37262,329
801.491638,342
801.610535,320
801.729492,325
801.84845,334
801.967407,334
802.086243,325
802.205261,327
802.324158,331
802.443115,337
802.562073,337
802.680969,348
802.799927,319
802.918762,339
803.037659,336
803.156677,324
803.275574,329
803.39447,339
803.513428,341
803.632263,336
803.751221,327
803.870117,345
803.989014,329
804.107971,322
804.226746,344
804.345642,324
804.4646,317
804.583496,333
804.702393,330
804.821228,332
804.940125,327
805.059021,316
805.177917,338
805.296814,328
805.415649,323
805.534546,335
805.653442,326
805.772278,332
805.891113,330
806.01001,333
806.128906,335
806.247742,331
806.366577,327
806.485413,347
806.604309,328
806.723145,333
806.84198,337
806.960876,329
807.079712,321
807.198486,334
807.317383,314
807.436218,337
807.554993,317
807.673889,326
807.792725,333
807.91156,332
808.030396,317
808.14917,330
808.268005,326
808.386841,317
808.505676,328
808.624451,322
808.743286,323
808.862122,320
808.980896,329
809.099731,320
809.218506,330
809.337341,322
809.456116,330
809.57489,323
809.693726,329
809.8125,322
809.931274,325
810.050049,327
810.168884,331
810.287659,330
810.406372,325
810.525269,319
810.643982,319
810.762756,334
810.881531,330
811.000305,339
811.11908,344
811.237854,333
811.356567,317
811.475403,325
811.594116,327
811.71283,320
811.831604,313
811.950378,325
812.069153,323
812.187927,336
812.30658,318
812.425415,329
812.544128,331
812.662781,328
812.781616,313
812.900269,329
813.019043,313
813.137756,335
813.256531,325
813.375244,334
813.493896,327
813.612671,343
813.731384,324
813.850037,335
813.96875,323
814.087524,340
814.206238,314
814.324951,331
814.443604,326
814.562256,334
814.68103,345
814.799683,328
814.918335,331
815.037109,337
815.155762,329
815.274475,327
815.393188,311
815.511841,334
815.630554,313
815.749146,332
815.867859,316
815.986572,328
816.105164,337
816.223877,324
816.342529,321
816.461182,330
816.579895,313
816.698486,321
816.817139,310
816.935791,327
817.054504,332
817.173096,329
817.291748,341
817.4104,328
817.529053,327
817.647644,322
817.766235,313
817.884949,320
818.00354,315
818.122192,319
818.240845,335
818.359436,323
818.478088,328
818.59668,317
818.715271,329
818.833923,329
818.952515,314
819.071106,322
819.189758,305
819.30835,326
819.426941,328
819.545532,336
819.664124,326
819.782715,316
819.901306,328
820.019897,320
820.138489,320
820.25708,341
820.375671,310
820.494202,336
820.612732,325
820.731384,310
820.849915,320
820.968506,333
821.087097,314
821.205627,326
821.324158,315
821.442749,333
821.561279,317
821.679871,337
821.798401,317
821.916931,313
822.035461,310
822.154053,319
822.272583,321
822.391174,330
822.509583,335
822.628174,316
822.746704,312
822.865234,313
822.983765,316
823.102295,318
823.220825,308
823.339294,329
823.457825,323
823.576355,318
823.694824,321
823.813354,329
823.931885,323
824.050354,320
824.168884,319
824.287354,327
824.405823,314
824.524353,321
824.642822,335
824.761353,320
824.879822,318
824.998291,314
825.116699,329
825.235291,319
825.353699,324
825.472168,316
825.590637,315
825.709106,326
825.827576,316
825.946045,318
826.064453,322
826.182983,323
826.301392,323
826.4198,319
826.53833,301
826.656738,317
826.775208,328
826.893677,324
827.012024,317
827.130493,326
827.248962,317
827.36731,328
827.485779,316
827.604248,328
827.722595,309
827.841064,304
827.959412,321
828.077942,324
828.196289,322
828.314636,329
828.433105,304
828.551514,326
828.669861,306
828.78833,310
828.906677,326
829.025085,315
829.143433,318
829.261841,326
829.38031,328
829.498657,318
829.617004,325
829.735413,319
829.85376,309
829.972107,317
830.090515,316
830.208862,314
830.327209,325
830.445557,317
830.563904,315
830.682312,328
830.800659,324
830.919006,326
831.037354,330
831.155701,319
831.274048,322
831.392395,342
831.51062,320
831.629028,326
831.747314,313
831.865662,337
831.984009,322
832.102356,325
832.220642,326
832.338928,336
832.457275,325
832.575623,316
832.693909,319
832.812134,319
832.930481,314
833.048828,323
833.167114,314
833.2854,319
833.403687,312
833.521973,334
833.640259,326
833.758545,322
833.876831,327
833.995056,310
834.113281,321
834.231628,320
834.349915,319
834.468201,322
834.586426,321
834.704651,328
834.822998,327
834.941162,321
835.059448,328
835.177673,332
835.295959,325
835.414246,315
835.53241,305
835.650635,318
835.768921,318
835.887146,322
836.005371,308
836.123596,319
836.241821,327
836.360046,311
836.478271,326
836.596497,329
836.714722,312
836.832886,319
836.95105,309
837.069336,328
837.1875,322
837.305725,324
837.423889,327
837.542053,327
837.660339,332
837.778503,328
837.896667,322
838.014832,320
838.132996,312
838.25116,346
838.369385,332
838.487488,331
838.605713,333
838.723877,319
838.84198,329
838.960205,331
839.078308,327
839.196472,324
839.314636,325
839.4328,320
839.550964,315
839.669067,325
839.787231,321
839.905396,325
840.023499,320
840.141602,332
840.259766,323
840.377869,330
840.495972,315
840.614136,333
840.732239,328
840.850342,320
840.968445,329
841.086548,331
841.204651,327
841.322754,327
841.440918,310
841.55896,322
841.677002,334
841.795166,337
841.913208,328
842.031311,328
842.149353,319
842.267456,339
842.385498,332
842.503601,327
842.621643,319
842.739746,332
842.857788,321
842.97583,325
843.093933,326
843.211975,324
843.330017,318
843.44812,324
843.566101,333
843.684204,334
843.802246,322
843.920227,335
844.038269,320
844.156311,342
844.274292,336
844.392395,322
844.510376,327
844.628357,331
844.74646,322
844.864441,327
844.982422,322
845.100403,325
845.218384,325
845.336426,331
845.454468,316
845.572449,326
845.69043,307
845.808411,330
845.926453,315
846.044373,331
846.162354,317
846.280396,321
846.398315,316
846.516296,326
846.634216,326
846.752197,322
846.870178,330
846.988098,321
847.106079,327
847.22406,338
847.34198,322
847.4599,326
847.577881,318
847.695801,324
847.813782,330
847.931641,309
848.049561,326
848.167603,320
848.285461,311
848.403381,328
848.521362,318
848.639221,332
848.75708,328
848.875,334
848.99292,310
849.110901,332
849.22876,318
849.34668,317
849.464539,325
849.582458,311
849.700317,329
849.818176,326
849.936096,335
850.053955,328
850.171875,323
850.289673,328
850.407593,318
850.525452,344
850.643311,321
850.761169,325
850.878967,315
850.996887,327
851.114746,314
851.232544,326
851.350403,327
851.468262,315
851.58606,324
851.703979,324
851.821777,327
851.939636,331
852.057434,320
852.175232,330
852.293091,329
852.410889,326
852.528687,313
852.646545,322
852.764343,320
852.88208,313
852.999939,315
853.117676,335
853.235535,315
853.353271,326
853.471069,315
853.588928,327
853.706604,315
853.824402,325
853.9422,320
854.059998,318
854.177734,323
854.295532,320
854.413269,328
854.531006,337
854.648804,320
854.766541,320
854.884277,329
855.002014,325
855.119751,313
855.237549,321
855.355225,330
855.473022,336
855.590698,321
855.708435,321
855.826172,331
855.943848,336
856.061646,335
856.179321,313
856.296997,323
856.414795,319
856.53241,321
856.650085,303
856.767822,312
856.885559,338
857.003174,315
857.120911,327
857.238586,330
857.356201,337
857.473938,320
857.591614,338
857.709351,324
857.826965,332
857.944641,326
858.062317,326
858.179993,322
858.297668,334
858.415283,322
858.532959,323
858.650574,317
858.768188,313
858.885803,325
859.003479,332
859.121094,328
859.23877,337
859.356384,319
859.473999,332
859.591675,327
859.709229,326
859.826843,324
859.944458,320
860.062012,308
860.179626,334
860.297302,329
860.414856,318
860.532471,330
860.650024,322
860.767639,315
860.885193,327
861.002808,318
861.120361,327
861.237976,328
861.35553,317
861.473022,301
861.590698,330
861.708191,326
861.825745,327
861.943298,315
862.060852,315
862.178406,324
862.295959,329
862.413513,325
862.531006,326
862.64856,311
862.766113,306
862.883667,319
863.00116,312
863.118713,313
863.236206,312
863.353699,312
863.471252,318
863.588745,327
863.706177,333
863.82373,311
863.941162,320
864.058716,321
864.176208,323
864.29364,324
864.411194,328
864.528687,314
864.646118,305
864.763611,323
864.881042,322
864.998535,317
865.116028,329
865.233459,315
865.350891,311
865.468384,324
865.585754,322
865.703308,328
865.820679,322
865.938171,310
866.055542,321
866.173035,321
866.290466,325
866.407837,316
866.52533,323
866.6427,326
866.760071,311
866.877563,312
866.994934,320
867.112305,318
867.229736,325
867.347107,322
867.464539,324
867.58197,316
867.699341,328
867.81665,315
867.934082,332
868.051453,323
868.168823,314
868.286194,317
868.403564,325
868.520935,312
868.638306,327
868.755676,327
868.872986,313
868.990295,326
869.107727,330
869.225037,325
869.342346,319
869.459717,323
869.577026,325
869.694336,313
869.811707,330
869.929016,322
870.046326,316
870.163635,319
870.280945,322
870.398254,323
870.515564,330
870.632812,323
870.750183,338
870.867432,316
870.984741,325
871.102051,317
871.219299,331
871.336609,316
871.453918,340
871.571106,324
871.688416,326
871.805664,339
871.922852,321
872.040222,303
872.157471,325
872.274719,305
872.391968,338
872.509155,323
872.626465,332
872.743652,328
872.860962,330
872.978149,322
873.095337,326
873.212646,321
873.329834,331
873.44696,320
873.564209,332
873.681396,316
873.798645,325
873.915894,311
874.03302,315
874.150208,324
874.267456,348
874.384583,312
874.501831,322
874.618958,317
874.736145,330
874.853333,319
874.970459,325
875.087646,318
875.204834,329
875.32196,325
875.439148,322
875.556274,318
875.673401,330
875.790527,314
875.907715,341
876.024841,326
876.141968,320
876.259094,323
876.376282,324
876.493347,320
876.610474,316
876.7276,332
876.844727,316
876.961853,335
877.078918,314
877.195984,322
877.313171,321
877.430237,335
877.547302,319
877.664368,316
877.781433,331
877.898499,330
878.015625,324
878.13269,318
878.249695,335
878.366821,321
878.483887,326
878.600952,323
878.717957,321
878.834961,327
878.952087,320
879.069092,322
879.186157,321
879.303162,316
879.420227,330
879.537231,323
879.654236,329
879.77124,316
879.888306,330
880.005249,313
880.122314,316
880.239319,314
880.356323,323
880.473328,310
880.590271,335
880.707275,320
880.824341,323
880.941284,340
881.058228,327
881.175232,330
881.292236,325
881.40918,309
881.526123,315
881.643066,325
881.760071,323
881.877014,324
881.993958,315
882.11084,316
882.227783,322
882.344727,308
882.46167,327
882.578613,320
882.695618,324
882.812439,323
882.929382,316
883.046326,316
883.163208,328
883.280151,315
883.397034,316
883.513916,331
883.630798,314
883.747742,329
883.864563,323
883.981506,320
884.098389,325
884.21521,318
884.332153,326
884.448975,314
884.565796,325
884.682678,327
884.7995,334
884.916443,311
885.033264,334
885.150085,339
885.266968,337
885.383789,345
885.500671,334
885.617493,332
885.734314,335
885.851196,325
885.967896,348
886.084717,312
886.201599,321
886.318359,323
886.435181,338
886.552002,339
886.668762,315
886.785645,335
886.902344,319
887.019165,321
887.135925,339
887.252747,310
887.369446,322
887.486267,317
887.603027,326
887.719788,319
887.836548,343
887.953247,309
888.070068,332
888.186829,318
888.303528,340
888.420288,313
888.536987,328
888.653687,301
888.770447,337
888.887146,316
889.003967,325
889.120667,312
889.237305,316
889.354065,311
889.470703,316
889.587463,319
889.704163,324
889.820862,307
889.937561,327
890.054199,315
890.170837,327
890.287598,325
890.404236,317
890.520874,323
890.637634,310
890.754211,312
890.87085,320
890.987549,320
891.104187,324
891.220886,320
891.337463,310
891.454102,317
891.57074,315
891.687378,309
891.804077,326
891.920654,300
892.037231,327
892.15387,309
892.270447,325
892.387085,311
892.503723,324
892.6203,322
892.736877,324
892.853516,301
892.970032,325
893.08667,309
893.203186,312
893.319763,309
893.43634,337
893.552917,315
893.669556,323
893.786011,336
893.902588,330
894.019165,312
894.135681,329
894.252197,317
894.368835,314
894.485291,309
894.601868,325
894.718384,319
894.8349,310
894.951355,316
895.067932,320
895.184448,313
895.300964,333
895.417419,318
895.533936,321
895.650452,316
895.766907,321
895.883423,304
895.999878,319
896.116333,314
896.232849,303
896.349304,307
896.465759,321
896.582214,298
896.698669,322
896.815125,321
896.931641,323
897.048035,319
897.164551,321
897.280884,307
897.397339,326
897.513794,322
897.630249,323
897.746582,326
897.863098,321
897.979431,304
898.095886,331
898.212341,317
898.328674,308
898.445129,316
898.561462,328
898.677795,321
898.794312,326
898.910645,327
899.026978,318
899.143433,310
899.259766,330
899.37616,320
899.492493,330
899.608765,312
899.725159,326
899.841553,312
899.957947,320
900.07428,308
900.190552,329
900.306946,311
900.423157,329
900.53949,296
900.655884,339
900.772156,323
900.888489,316
901.004822,308
901.121033,311
901.237366,318
901.353699,320
901.46991,314
901.586304,317
901.702515,318
901.818787,324
901.93512,321
902.051331,311
902.167603,317
902.283875,323
902.400085,322
902.516418,330
902.632629,312
902.74884,331
902.865112,303
902.981384,324
903.097595,313
903.213867,325
903.330017,328
903.446289,329
903.5625,323
903.67865,327
903.794922,315
903.911072,322
904.027344,321
904.143494,319
904.259705,324
904.375916,320
904.492065,326
904.608215,318
904.724426,312
904.840576,327
904.956726,315
905.072876,333
905.189087,306
905.305176,320
905.421387,313
905.537537,321
905.653687,300
905.769775,327
905.885925,323
906.002014,312
906.118164,317
906.234314,326
906.350403,304
906.466492,318
906.582642,314
906.69873,319
906.814758,329
906.930908,319
907.046936,313
907.163086,317
907.279175,303
907.395264,317
907.511353,313
907.62738,318
907.743408,316
907.859497,318
907.975525,314
908.091553,314
908.207703,323
908.32373,327
908.439758,320
908.555786,306
908.671814,318
908.787842,318
908.90387,324
909.019775,308
909.135864,321
909.251892,323
909.367859,314
909.483826,327
909.599854,312
909.715881,316
909.831848,320
909.947815,311
910.063782,321
910.179749,316
910.295776,326
910.411743,318
910.527649,317
910.643616,322
910.759583,303
910.875488,316
910.991455,316
911.107361,324
911.223267,310
911.339294,320
911.4552,304
911.571106,323
911.687073,311
911.802979,326
911.918823,315
912.034729,332
912.150635,321
912.266602,313
912.382446,314
912.498352,323
912.614197,320
912.730103,325
912.846008,320
792.44574,367
792.56488,395
792.68396,449
792.80304,437
792.92218,384
793.041199,377
793.160339,363
793.279419,389
793.398499,388
793.517578,355
793.636658,369
793.755737,371
793.874817,367
793.993896,404
794.112976,381
794.232056,379
794.351074,361
794.470215,355
794.589233,346
794.708313,363
794.827393,341
794.946411,350
795.065552,369
795.18457,361
795.303589,363
795.422668,360
795.541687,346
795.660767,352
795.779846,372
795.898865,351
796.017883,359
796.136963,368
796.255981,346
796.375061,348
796.49408,354
796.613037,343
796.732117,359
796.851135,345
796.970154,352
797.089233,351
797.208191,343
797.327271,334
797.446228,352
797.565186,342
797.684265,346
797.803223,333
797.922241,338
798.04126,349
798.160278,361
798.279297,347
798.398315,342
798.517273,353
798.636292,350
798.75531,334
798.874268,345
798.993286,325
799.112244,335
799.231323,339
799.350281,338
799.469238,344
799.588257,341
799.707153,338
799.826111,329
799.945129,337
800.064087,345
800.183044,342
800.302063,329
800.421021,339
800.539978,336
800.658936,343
800.777893,321
800.896912,329
801.015747,349
801.134705,334
801.253723,348
801.37262,339
801.491638,332
801.610535,328
801.729492,341
801.84845,329
801.967407,332
802.086243,323
802.205261,330
802.324158,335
802.443115,335
802.562073,321
802.680969,327
802.799927,326
802.918762,335
803.037659,334
803.156677,339
803.275574,323
803.39447,345
803.513428,328
803.632263,343
803.751221,336
803.870117,326
803.989014,324
804.107971,323
804.226746,324
804.345642,334
804.4646,326
804.583496,342
804.702393,334
804.821228,335
804.940125,329
805.059021,332
805.177917,321
805.296814,339
805.415649,332
805.534546,337
805.653442,337
805.772278,331
805.891113,335
806.01001,338
806.128906,329
806.247742,315
806.366577,328
806.485413,328
806.604309,331
806.723145,313
806.84198,327
806.960876,326
807.079712,329
807.198486,316
807.317383,333
807.436218,330
807.554993,336
807.673889,336
807.792725,341
807.91156,331
808.030396,326
808.14917,334
808.268005,332
808.386841,331
808.505676,340
808.624451,330
808.743286,341
808.862122,324
808.980896,327
809.099731,330
809.218506,329
809.337341,333
809.456116,321
809.57489,327
809.693726,314
809.8125,343
809.931274,333
810.050049,319
810.168884,315
810.287659,336
810.406372,344
810.525269,325
810.643982,330
810.762756,333
810.881531,319
811.000305,331
811.11908,321
811.237854,324
811.356567,331
811.475403,333
811.594116,326
811.71283,324
811.831604,322
811.950378,323
812.069153,320
812.187927,341
812.30658,334
812.425415,319
812.544128,333
812.662781,327
812.781616,323
812.900269,335
813.019043,338
813.137756,334
813.256531,323
813.375244,321
813.493896,332
813.612671,323
813.731384,327
813.850037,318
813.96875,339
814.087524,335
814.206238,333
814.324951,333
814.443604,313
814.562256,338
814.68103,318
814.799683,332
814.918335,333
815.037109,337
815.155762,335
815.274475,343
815.393188,311
815.511841,336
815.630554,315
815.749146,321
815.867859,326
815.986572,326
816.105164,335
816.223877,330
816.342529,324
816.461182,322
816.579895,331
816.698486,334
816.817139,331
816.935791,348
817.054504,332
817.173096,332
817.291748,326
817.4104,335
817.529053,322
817.647644,336
817.766235,318
817.884949,325
818.00354,317
818.122192,344
818.240845,317
818.359436,339
818.478088,320
818.59668,321
818.715271,327
818.833923,326
818.952515,333
819.071106,327
819.189758,318
819.30835,322
819.426941,320
819.545532,323
819.664124,319
819.782715,328
819.901306,324
820.019897,332
820.138489,317
820.25708,340
820.375671,316
820.494202,315
820.612732,316
820.731384,322
820.849915,331
820.968506,316
821.087097,323
821.205627,325
821.324158,326
821.442749,321
821.561279,326
821.679871,325
821.798401,314
821.916931,339
822.035461,327
822.154053,323
822.272583,327
822.391174,315
822.509583,314
822.628174,330
822.746704,331
822.865234,320
822.983765,319
823.102295,328
823.220825,316
823.339294,326
823.457825,318
823.576355,319
823.694824,312
823.813354,329
823.931885,307
824.050354,332
824.168884,322
824.287354,332
824.405823,313
824.524353,312
824.642822,326
824.761353,326
824.879822,324
824.998291,323
825.116699,326
825.235291,337
825.353699,316
825.472168,335
825.590637,326
825.709106,322
825.827576,326
825.946045,320
826.064453,319
826.182983,329
826.301392,318
826.4198,319
826.53833,323
826.656738,324
826.775208,312
826.893677,326
827.012024,312
827.130493,325
827.248962,334
827.36731,321
827.485779,323
827.604248,327
827.722595,308
827.841064,327
827.959412,323
828.077942,322
828.196289,319
828.314636,317
828.433105,331
828.551514,330
828.669861,326
828.78833,323
828.906677,305
829.025085,325
829.143433,321
829.261841,322
829.38031,314
829.498657,311
829.617004,321
829.735413,335
829.85376,305
829.972107,317
830.090515,322
830.208862,321
830.327209,321
830.445557,321
830.563904,312
830.682312,320
830.800659,322
830.919006,312
831.037354,325
831.155701,327
831.274048,312
831.392395,333
831.51062,315
831.629028,335
831.747314,317
831.865662,332
831.984009,329
832.102356,335
832.220642,314
832.338928,316
832.457275,316
832.575623,328
832.693909,340
832.812134,308
832.930481,331
833.048828,319
833.167114,321
833.2854,316
833.403687,316
833.521973,328
833.640259,315
833.758545,326
833.876831,314
833.995056,331
834.113281,320
834.231628,321
834.349915,323
834.468201,331
834.586426,320
834.704651,331
834.822998,324
834.941162,330
835.059448,327
835.177673,318
835.295959,328
835.414246,328
835.53241,328
835.650635,325
835.768921,303
835.887146,323
836.005371,309
836.123596,333
836.241821,307
836.360046,324
836.478271,324
836.596497,318
836.714722,311
836.832886,318
836.95105,314
837.069336,321
837.1875,321
837.305725,320
837.423889,317
837.542053,331
837.660339,323
837.778503,329
837.896667,315
838.014832,336
838.132996,323
838.25116,322
838.369385,316
838.487488,328
838.605713,326
838.723877,321
838.84198,321
838.960205,332
839.078308,326
839.196472,329
839.314636,312
839.4328,317
839.550964,317
839.669067,329
839.787231,334
839.905396,322
840.023499,322
840.141602,328
840.259766,328
840.377869,323
840.495972,325
840.614136,326
840.732239,319
840.850342,336
840.968445,319
841.086548,333
841.204651,335
841.322754,320
841.440918,330
841.55896,345
841.677002,320
841.795166,333
841.913208,338
842.031311,338
842.149353,332
842.267456,337
842.385498,319
842.503601,323
842.621643,341
842.739746,329
842.857788,328
842.97583,327
843.093933,332
843.211975,327
843.330017,323
843.44812,333
843.566101,327
843.684204,325
843.802246,329
843.920227,331
844.038269,323
844.156311,328
844.274292,316
844.392395,322
844.510376,306
844.628357,320
844.74646,315
844.864441,320
844.982422,299
845.100403,321
845.218384,316
845.336426,324
845.454468,310
845.572449,336
845.69043,313
845.808411,307
845.926453,320
846.044373,328
846.162354,311
846.280396,342
846.398315,321
846.516296,328
846.634216,327
846.752197,334
846.870178,322
846.988098,321
847.106079,322
847.22406,328
847.34198,309
847.4599,321
847.577881,312
847.695801,327
847.813782,329
847.931641,341
848.049561,337
848.167603,322
848.285461,320
848.403381,320
848.521362,327
848.639221,322
848.75708,332
848.875,328
848.99292,318
849.110901,317
849.22876,322
849.34668,317
849.464539,312
849.582458,329
849.700317,313
849.818176,330
849.936096,327
850.053955,321
850.171875,316
850.289673,338
850.407593,322
850.525452,315
850.643311,324
850.761169,328
850.878967,326
850.996887,305
851.114746,325
851.232544,321
851.350403,328
851.468262,332
851.58606,314
851.703979,317
851.821777,316
851.939636,326
852.057434,321
852.175232,326
852.293091,325
852.410889,334
852.528687,324
852.646545,321
852.764343,335
852.88208,337
852.999939,309
853.117676,322
853.235535,306
853.353271,323
853.471069,304
853.588928,329
853.706604,326
853.824402,326
853.9422,322
854.059998,326
854.177734,309
854.295532,337
854.413269,326
854.531006,320
854.648804,322
854.766541,339
854.884277,312
855.002014,336
855.119751,323
855.237549,334
855.355225,316
855.473022,320
855.590698,334
855.708435,323
855.826172,319
855.943848,343
856.061646,315
856.179321,317
856.296997,318
856.414795,319
856.53241,320
856.650085,316
856.767822,325
856.885559,349
857.003174,324
857.120911,332
857.238586,320
857.356201,332
857.473938,321
857.591614,326
857.709351,330
857.826965,327
857.944641,330
858.062317,329
858.179993,317
858.297668,335
858.415283,310
858.532959,337
858.650574,330
858.768188,322
858.885803,312
859.003479,308
859.121094,324
859.23877,321
859.356384,329
859.473999,332
859.591675,324
859.709229,321
859.826843,320
859.944458,315
860.062012,323
860.179626,339
860.297302,317
860.414856,335
860.532471,324
860.650024,322
860.767639,318
860.885193,333
861.002808,323
861.120361,335
861.237976,318
861.35553,332
861.473022,326
861.590698,331
861.708191,311
861.825745,340
861.943298,316
862.060852,325
862.178406,319
862.295959,317
862.413513,327
862.531006,332
862.64856,325
862.766113,325
862.883667,316
863.00116,317
863.118713,324
863.236206,318
863.353699,322
863.471252,322
863.588745,323
863.706177,320
863.82373,328
863.941162,316
864.058716,317
864.176208,324
864.29364,315
864.411194,325
864.528687,322
864.646118,321
864.763611,324
864.881042,321
864.998535,326
865.116028,314
865.233459,314
865.350891,318
865.468384,306
865.585754,322
865.703308,328
865.820679,323
865.938171,307
866.055542,327
866.173035,325
866.290466,321
866.407837,329
866.52533,326
866.6427,311
866.760071,320
866.877563,329
866.994934,327
867.112305,319
867.229736,325
867.347107,322
867.464539,319
867.58197,320
867.699341,328
867.81665,304
867.934082,336
868.051453,318
868.168823,327
868.286194,323
868.403564,329
868.520935,313
868.638306,330
868.755676,307
868.872986,311
868.990295,316
869.107727,328
869.225037,323
869.342346,328
869.459717,334
869.577026,323
869.694336,332
869.811707,332
869.929016,316
870.046326,325
870.163635,337
870.280945,317
870.398254,335
870.515564,331
870.632812,330
870.750183,331
870.867432,321
870.984741,318
871.102051,323
871.219299,325
871.336609,313
871.453918,337
871.571106,328
871.688416,338
871.805664,330
871.922852,327
872.040222,323
872.157471,339
872.274719,313
872.391968,333
872.509155,322
872.626465,326
872.743652,325
872.860962,328
872.978149,325
873.095337,344
873.212646,337
873.329834,325
873.44696,328
873.564209,331
873.681396,329
873.798645,327
873.915894,318
874.03302,325
874.150208,310
874.267456,323
874.384583,337
874.501831,325
874.618958,321
874.736145,328
874.853333,316
874.970459,332
875.087646,324
875.204834,318
875.32196,320
875.439148,330
875.556274,335
875.673401,325
875.790527,323
875.907715,336
876.024841,325
876.141968,330
876.259094,307
876.376282,317
876.493347,327
876.610474,347
876.7276,324
876.844727,336
876.961853,319
877.078918,324
877.195984,322
877.313171,328
877.430237,329
877.547302,312
877.664368,319
877.781433,331
877.898499,332
878.015625,332
878.13269,315
878.249695,325
878.366821,327
878.483887,331
878.600952,312
878.717957,327
878.834961,324
878.952087,325
879.069092,321
879.186157,319
879.303162,333
879.420227,317
879.537231,310
879.654236,321
879.77124,320
879.888306,329
880.005249,317
880.122314,319
880.239319,330
880.356323,327
880.473328,315
880.590271,322
880.707275,319
880.824341,310
880.941284,314
881.058228,333
881.175232,327
881.292236,310
881.40918,320
881.526123,318
881.643066,321
881.760071,321
881.877014,312
881.993958,318
882.11084,328
882.227783,327
882.344727,331
882.46167,326
882.578613,315
882.695618,330
882.812439,316
882.929382,321
883.046326,333
883.163208,343
883.280151,322
883.397034,313
883.513916,324
883.630798,322
883.747742,317
883.864563,329
883.981506,318
884.098389,327
884.21521,310
884.332153,338
884.448975,328
884.565796,320
884.682678,330
884.7995,329
884.916443,325
885.033264,336
885.150085,327
885.266968,329
885.383789,309
885.500671,344
885.617493,332
885.734314,335
885.851196,321
885.967896,335
886.084717,323
886.201599,334
886.318359,326
886.435181,327
886.552002,327
886.668762,342
886.785645,326
886.902344,335
887.019165,321
887.135925,321
887.252747,328
887.369446,331
887.486267,319
887.603027,322
887.719788,325
887.836548,329
887.953247,324
888.070068,330
888.186829,315
888.303528,315
888.420288,316
888.536987,323
888.653687,312
888.770447,316
888.887146,311
889.003967,327
889.120667,331
889.237305,319
889.354065,322
889.470703,314
889.587463,317
889.704163,335
889.820862,305
889.937561,312
890.054199,313
890.170837,326
890.287598,317
890.404236,320
890.520874,316
890.637634,322
890.754211,306
890.87085,311
890.987549,312
891.104187,333
891.220886,329
891.337463,325
891.454102,315
891.57074,324
891.687378,303
891.804077,314
891.920654,328
892.037231,325
892.15387,314
892.270447,324
892.387085,319
892.503723,318
892.6203,313
892.736877,326
892.853516,324
892.970032,325
893.08667,311
893.203186,329
893.319763,327
893.43634,318
893.552917,319
893.669556,323
893.786011,309
893.902588,313
894.019165,314
894.135681,313
894.252197,313
894.368835,320
894.485291,317
894.601868,320
894.718384,314
894.8349,308
894.951355,327
895.067932,303
895.184448,320
895.300964,317
895.417419,310
895.533936,315
895.650452,322
895.766907,315
895.883423,315
895.999878,323
896.116333,316
896.232849,327
896.349304,335
896.465759,316
896.582214,319
896.698669,308
896.815125,294
896.931641,315
897.048035,316
897.164551,335
897.280884,316
897.397339,320
897.513794,316
897.630249,310
897.746582,316
897.863098,319
897.979431,311
898.095886,329
898.212341,318
898.328674,330
898.445129,314
898.561462,317
898.677795,318
898.794312,322
898.910645,324
899.026978,330
899.143433,311
899.259766,302
899.37616,311
899.492493,326
899.608765,319
899.725159,322
899.841553,304
899.957947,308
900.07428,330
900.190552,315
900.306946,315
900.423157,322
900.53949,318
900.655884,333
900.772156,327
900.888489,326
901.004822,322
901.121033,324
901.237366,320
901.353699,324
901.46991,321
901.586304,325
901.702515,302
901.818787,317
901.93512,324
902.051331,318
902.167603,315
902.283875,316
902.400085,321
902.516418,340
902.632629,324
902.74884,335
902.865112,328
902.981384,331
903.097595,332
903.213867,329
903.330017,336
903.446289,336
903.5625,324
903.67865,318
903.794922,313
903.911072,338
904.027344,312
904.143494,336
904.259705,311
904.375916,326
904.492065,320
904.608215,323
904.724426,320
904.840576,345
904.956726,327
905.072876,320
905.189087,300
905.305176,332
905.421387,317
905.537537,320
905.653687,316
905.769775,317
905.885925,317
906.002014,322
906.118164,320
906.234314,319
906.350403,314
906.466492,327
906.582642,315
906.69873,307
906.814758,314
906.930908,320
907.046936,317
907.163086,320
907.279175,321
907.395264,322
907.511353,309
907.62738,328
907.743408,316
907.859497,308
907.975525,319
908.091553,322
908.207703,310
908.32373,322
908.439758,314
908.555786,331
908.671814,316
908.787842,322
908.90387,315
909.019775,312
909.135864,324
909.251892,329
909.367859,320
909.483826,328
909.599854,313
909.715881,332
909.831848,308
909.947815,308
910.063782,323
910.179749,325
910.295776,319
910.411743,316
910.527649,316
910.643616,314
910.759583,319
910.875488,330
910.991455,322
911.107361,318
911.223267,316
911.339294,321
911.4552,318
911.571106,307
911.687073,323
911.802979,330
911.918823,303
912.034729,320
912.150635,319
912.266602,320
912.382446,315
912.498352,329
912.614197,315
912.730103,309
912.846008,314
792.44574,384
792.56488,403
792.68396,468
792.80304,432
792.92218,384
793.041199,362
793.160339,374
793.279419,375
793.398499,375
793.517578,357
793.636658,369
793.755737,355
793.874817,396
793.993896,359
794.112976,356
794.232056,350
794.351074,351
794.470215,358
794.589233,365
794.708313,357
794.827393,348
794.946411,356
795.065552,364
795.18457,347
795.303589,351
795.422668,358
795.541687,354
795.660767,364
795.779846,356
795.898865,329
796.017883,349
796.136963,357
796.255981,345
796.375061,334
796.49408,340
796.613037,348
796.732117,341
796.851135,344
796.970154,339
797.089233,347
797.208191,344
797.327271,336
797.446228,339
797.565186,335
797.684265,343
797.803223,337
797.922241,331
798.04126,332
798.160278,337
798.279297,341
798.398315,320
798.517273,341
798.636292,350
798.75531,335
798.874268,333
798.993286,340
799.112244,335
799.231323,330
799.350281,351
799.469238,340
799.588257,325
799.707153,344
799.826111,331
799.945129,335
800.064087,342
800.183044,342
800.302063,349
800.421021,324
800.539978,336
800.658936,326
800.777893,345
800.896912,321
801.015747,331
801.134705,335
801.253723,354
801.37262,336
801.491638,330
801.610535,331
801.729492,349
801.84845,326
801.967407,344
802.086243,337
802.205261,328
802.324158,338
802.443115,331
802.562073,342
802.680969,327
802.799927,337
802.918762,334
803.037659,333
803.156677,342
803.275574,326
803.39447,322
803.513428,325
803.632263,339
803.751221,335
803.870117,319
803.989014,332
804.107971,325
804.226746,326
804.345642,327
804.4646,326
804.583496,337
804.702393,328
804.821228,330
804.940125,337
805.059021,331
805.177917,329
805.296814,330
805.415649,328
805.534546,335
805.653442,326
805.772278,323
805.891113,339
806.01001,343
806.128906,329
806.247742,315
806.366577,324
806.485413,344
806.604309,327
806.723145,333
806.84198,322
806.960876,345
807.079712,317
807.198486,335
807.317383,331
807.436218,316
807.554993,316
807.673889,331
807.792725,330
807.91156,329
808.030396,323
808.14917,333
808.268005,330
808.386841,317
808.505676,336
808.624451,334
808.743286,325
808.862122,326
808.980896,344
809.099731,332
809.218506,323
809.337341,316
809.456116,327
809.57489,331
809.693726,333
809.8125,328
809.931274,342
810.050049,318
810.168884,331
810.287659,322
810.406372,321
810.525269,334
810.643982,321
810.762756,332
810.881531,325
811.000305,313
811.11908,335
811.237854,325
811.356567,338
811.475403,330
811.594116,323
811.71283,324
811.831604,315
811.950378,324
812.069153,322
812.187927,335
812.30658,336
812.425415,334
812.544128,332
812.662781,330
812.781616,315
812.900269,319
813.019043,330
813.137756,325
813.256531,339
813.375244,325
813.493896,322
813.612671,344
813.731384,306
813.850037,333
813.96875,333
814.087524,319
814.206238,325
814.324951,328
814.443604,320
814.562256,336
814.68103,326
814.799683,331
814.918335,319
815.037109,316
815.155762,321
815.274475,328
815.393188,325
815.511841,320
815.630554,314
815.749146,330
815.867859,340
815.986572,324
816.105164,324
816.223877,321
816.342529,332
816.461182,321
816.579895,319
816.698486,329
816.817139,324
816.935791,329
817.054504,325
817.173096,334
817.291748,330
817.4104,333
817.529053,321
817.647644,324
817.766235,327
817.884949,333
818.00354,340
818.122192,321
818.240845,323
818.359436,341
818.478088,323
818.59668,329
818.715271,320
818.833923,317
818.952515,329
819.071106,330
819.189758,321
819.30835,328
819.426941,324
819.545532,323
819.664124,333
819.782715,317
819.901306,322
820.019897,325
820.138489,326
820.25708,320
820.375671,330
820.494202,328
820.612732,318
820.731384,330
820.849915,329
820.968506,330
821.087097,313
821.205627,327
821.324158,319
821.442749,320
821.561279,325
821.679871,325
821.798401,313
821.916931,328
822.035461,305
822.154053,310
822.272583,318
822.391174,324
822.509583,324
822.628174,333
822.746704,333
822.865234,325
822.983765,328
823.102295,312
823.220825,320
823.339294,328
823.457825,321
823.576355,317
823.694824,320
823.813354,325
823.931885,334
824.050354,330
824.168884,306
824.287354,319
824.405823,322
824.524353,344
824.642822,316
824.761353,331
824.879822,331
824.998291,315
825.116699,317
825.235291,330
825.353699,327
825.472168,316
825.590637,318
825.709106,309
825.827576,317
825.946045,335
826.064453,324
826.182983,328
826.301392,318
826.4198,323
826.53833,322
826.656738,325
826.775208,321
826.893677,329
827.012024,327
827.130493,326
827.248962,332
827.36731,314
827.485779,311
827.604248,322
827.722595,312
827.841064,319
827.959412,338
828.077942,305
828.196289,313
828.314636,334
828.433105,319
828.551514,327
828.669861,318
828.78833,311
828.906677,318
829.025085,317
829.143433,321
829.261841,319
829.38031,320
829.498657,326
829.617004,317
829.735413,314
829.85376,328
829.972107,334
830.090515,324
830.208862,325
830.327209,319
830.445557,332
830.563904,311
830.682312,314
830.800659,329
830.919006,313
831.037354,310
831.155701,315
831.274048,321
831.392395,305
831.51062,309
831.629028,320
831.747314,313
831.865662,326
831.984009,306
832.102356,337
832.220642,337
832.338928,324
832.457275,329
832.575623,325
832.693909,318
832.812134,324
832.930481,301
833.048828,320
833.167114,315
833.2854,322
833.403687,323
833.521973,328
833.640259,306
833.758545,310
833.876831,327
833.995056,321
834.113281,312
834.231628,320
834.349915,316
834.468201,339
834.586426,323
834.704651,324
834.822998,310
834.941162,320
835.059448,317
835.177673,325
835.295959,321
835.414246,323
835.53241,313
835.650635,330
835.768921,314
835.887146,316
836.005371,333
836.123596,324
836.241821,316
836.360046,331
836.478271,310
836.596497,316
836.714722,318
836.832886,330
836.95105,314
837.069336,312
837.1875,324
837.305725,310
837.423889,315
837.542053,314
837.660339,322
837.778503,312
837.896667,319
838.014832,312
838.132996,328
838.25116,322
838.369385,326
838.487488,329
838.605713,316
838.723877,329
838.84198,307
838.960205,332
839.078308,309
839.196472,317
839.314636,322
839.4328,334
839.550964,315
839.669067,323
839.787231,325
839.905396,333
840.023499,322
840.141602,325
840.259766,329
840.377869,333
840.495972,326
840.614136,332
840.732239,323
840.850342,319
840.968445,326
841.086548,311
841.204651,318
841.322754,314
841.440918,329
841.55896,331
841.677002,339
841.795166,320
841.913208,321
842.031311,320
842.149353,325
842.267456,322
842.385498,330
842.503601,325
842.621643,325
842.739746,322
842.857788,319
842.97583,328
843.093933,316
843.211975,321
843.330017,324
843.44812,328
843.566101,313
843.684204,318
843.802246,319
843.920227,334
844.038269,319
844.156311,333
844.274292,323
844.392395,326
844.510376,319
844.628357,326
844.74646,330
844.864441,314
844.982422,328
845.100403,332
845.218384,327
845.336426,322
845.454468,311
845.572449,316
845.69043,325
845.808411,325
845.926453,318
846.044373,341
846.162354,319
846.280396,318
846.398315,317
846.516296,326
846.634216,323
846.752197,315
846.870178,321
846.988098,323
847.106079,326
847.22406,333
847.34198,315
847.4599,337
847.577881,314
847.695801,314
847.813782,325
847.931641,315
848.049561,320
848.167603,321
848.285461,300
848.403381,321
848.521362,308
848.639221,327
848.75708,322
848.875,331
848.99292,330
849.110901,323
849.22876,324
849.34668,322
849.464539,318
849.582458,324
849.700317,333
849.818176,329
849.936096,320
850.053955,325
850.171875,321
850.289673,320
850.407593,316
850.525452,316
850.643311,319
850.761169,332
850.878967,311
850.996887,331
851.114746,331
851.232544,315
851.350403,313
851.468262,326
851.58606,328
851.703979,325
851.821777,315
851.939636,334
852.057434,310
852.175232,324
852.293091,319
852.410889,324
852.528687,307
852.646545,328
852.764343,330
852.88208,329
852.999939,327
853.117676,323
853.235535,310
853.353271,332
853.471069,310
853.588928,332
853.706604,324
853.824402,330
853.9422,331
854.059998,323
854.177734,313
854.295532,329
854.413269,305
854.531006,327
854.648804,319
854.766541,326
854.884277,312
855.002014,325
855.119751,321
855.237549,326
855.355225,328
855.473022,313
855.590698,326
855.708435,341
855.826172,312
855.943848,319
856.061646,314
856.179321,309
856.296997,314
856.414795,328
856.53241,327
856.650085,319
856.767822,337
856.885559,324
857.003174,323
857.120911,327
857.238586,319
857.356201,333
857.473938,331
857.591614,332
857.709351,317
857.826965,314
857.944641,322
858.062317,330
858.179993,318
858.297668,331
858.415283,332
858.532959,335
858.650574,324
858.768188,321
858.885803,325
859.003479,322
859.121094,332
859.23877,322
859.356384,327
859.473999,322
859.591675,326
859.709229,310
859.826843,317
859.944458,323
860.062012,320
860.179626,324
860.297302,323
860.414856,331
860.532471,312
860.650024,327
860.767639,319
860.885193,330
861.002808,334
861.120361,312
861.237976,315
861.35553,316
861.473022,318
861.590698,328
861.708191,314
861.825745,324
861.943298,307
862.060852,316
862.178406,328
862.295959,324
862.413513,314
862.531006,323
862.64856,320
862.766113,318
862.883667,317
863.00116,324
863.118713,314
863.236206,319
863.353699,323
863.471252,319
863.588745,323
863.706177,323
863.82373,319
863.941162,324
864.058716,316
864.176208,317
864.29364,318
864.411194,317
864.528687,321
864.646118,327
864.763611,300
864.881042,326
864.998535,316
865.116028,329
865.233459,309
865.350891,303
865.468384,330
865.585754,319
865.703308,328
865.820679,316
865.938171,322
866.055542,317
866.173035,322
866.290466,319
866.407837,316
866.52533,327
866.6427,316
866.760071,310
866.877563,319
866.994934,329
867.112305,318
867.229736,333
867.347107,312
867.464539,321
867.58197,318
867.699341,319
867.81665,318
867.934082,318
868.051453,314
868.168823,320
868.286194,323
868.403564,329
868.520935,317
868.638306,320
868.755676,318
868.872986,327
868.990295,324
869.107727,316
869.225037,322
869.342346,324
869.459717,323
869.577026,318
869.694336,329
869.811707,323
869.929016,327
870.046326,315
870.163635,329
870.280945,339
870.398254,313
870.515564,313
870.632812,315
870.750183,335
870.867432,321
870.984741,335
871.102051,324
871.219299,328
871.336609,326
871.453918,321
871.571106,336
871.688416,334
871.805664,313
871.922852,326
872.040222,330
872.157471,342
872.274719,323
872.391968,328
872.509155,326
872.626465,328
872.743652,332
872.860962,326
872.978149,328
873.095337,327
873.212646,322
873.329834,322
873.44696,328
873.564209,332
873.681396,332
873.798645,330
873.915894,331
874.03302,331
874.150208,319
874.267456,334
874.384583,322
874.501831,338
874.618958,330
874.736145,329
874.853333,324
874.970459,330
875.087646,321
875.204834,327
875.32196,322
875.439148,331
875.556274,330
875.673401,330
875.790527,322
875.907715,338
876.024841,318
876.141968,324
876.259094,318
876.376282,318
876.493347,312
876.610474,318
876.7276,325
876.844727,320
876.961853,326
877.078918,327
877.195984,321
877.313171,326
877.430237,327
877.547302,311
877.664368,317
877.781433,318
877.898499,329
878.015625,320
878.13269,295
878.249695,334
878.366821,329
878.483887,311
878.600952,328
878.717957,322
878.834961,307
878.952087,329
879.069092,312
879.186157,335
879.303162,313
879.420227,325
879.537231,310
879.654236,319
879.77124,330
879.888306,312
880.005249,314
880.122314,325
880.239319,311
880.356323,339
880.473328,305
880.590271,329
880.707275,332
880.824341,323
880.941284,314
881.058228,316
881.175232,318
881.292236,332
881.40918,311
881.526123,312
881.643066,326
881.760071,323
881.877014,299
881.993958,324
882.11084,326
882.227783,323
882.344727,314
882.46167,314
882.578613,310
882.695618,329
882.812439,303
882.929382,326
883.046326,304
883.163208,329
883.280151,321
883.397034,313
883.513916,328
883.630798,319
883.747742,315
883.864563,337
883.981506,322
884.098389,316
884.21521,320
884.332153,318
884.448975,312
884.565796,321
884.682678,316
884.7995,335
884.916443,318
885.033264,335
885.150085,328
885.266968,334
885.383789,332
885.500671,328
885.617493,322
885.734314,328
885.851196,326
885.967896,327
886.084717,321
886.201599,330
886.318359,342
886.435181,326
886.552002,331
886.668762,325
886.785645,315
886.902344,330
887.019165,322
887.135925,329
887.252747,332
887.369446,317
887.486267,324
887.603027,325
887.719788,318
887.836548,331
887.953247,306
888.070068,330
888.186829,321
888.303528,316
888.420288,317
888.536987,332
888.653687,316
888.770447,321
888.887146,332
889.003967,333
889.120667,327
889.237305,306
889.354065,327
889.470703,320
889.587463,304
889.704163,322
889.820862,313
889.937561,312
890.054199,321
890.170837,315
890.287598,327
890.404236,307
890.520874,323
890.637634,329
890.754211,308
890.87085,320
890.987549,320
891.104187,321
891.220886,311
891.337463,320
891.454102,322
891.57074,320
891.687378,313
891.804077,311
891.920654,314
892.037231,312
892.15387,316
892.270447,331
892.387085,324
892.503723,312
892.6203,311
892.736877,322
892.853516,311
892.970032,331
893.08667,301
893.203186,319
893.319763,317
893.43634,322
893.552917,319
893.669556,329
893.786011,313
893.902588,332
894.019165,315
894.135681,310
894.252197,311
894.368835,317
894.485291,313
894.601868,310
894.718384,302
894.8349,326
894.951355,316
895.067932,331
895.184448,312
895.300964,324
895.417419,311
895.533936,316
895.650452,304
895.766907,329
895.883423,320
895.999878,327
896.116333,319
896.232849,319
896.349304,311
896.465759,331
896.582214,308
896.698669,323
896.815125,310
896.931641,329
897.048035,318
897.164551,312
897.280884,313
897.397339,323
897.513794,313
897.630249,324
897.746582,317
897.863098,315
897.979431,318
898.095886,328
898.212341,323
898.328674,326
898.445129,301
898.561462,335
898.677795,316
898.794312,336
898.910645,317
899.026978,331
899.143433,328
899.259766,309
899.37616,313
899.492493,322
899.608765,326
899.725159,309
899.841553,317
899.957947,324
900.07428,304
900.190552,325
900.306946,312
900.423157,310
900.53949,315
900.655884,313
900.772156,310
900.888489,327
901.004822,309
901.121033,308
901.237366,315
901.353699,326
901.46991,320
901.586304,324
901.702515,318
901.818787,323
901.93512,303
902.051331,324
902.167603,307
902.283875,331
902.400085,329
902.516418,335
902.632629,323
902.74884,334
902.865112,319
902.981384,330
903.097595,310
903.213867,327
903.330017,309
903.446289,318
903.5625,322
903.67865,346
903.794922,310
903.911072,325
904.027344,310
904.143494,307
904.259705,322
904.375916,324
904.492065,308
904.608215,325
904.724426,311
904.840576,337
904.956726,320
905.072876,321
905.189087,311
905.305176,325
905.421387,310
905.537537,330
905.653687,318
905.769775,322
905.885925,315
906.002014,316
906.118164,326
906.234314,325
906.350403,328
906.466492,322
906.582642,311
906.69873,315
906.814758,296
906.930908,324
907.046936,301
907.163086,328
907.279175,310
907.395264,301
907.511353,322
907.62738,318
907.743408,313
907.859497,320
907.975525,309
908.091553,324
908.207703,317
908.32373,321
908.439758,321
908.555786,321
908.671814,296
908.787842,320
908.90387,327
909.019775,323
909.135864,303
909.251892,317
909.367859,311
909.483826,330
909.599854,306
909.715881,309
909.831848,325
909.947815,324
910.063782,299
910.179749,319
910.295776,309
910.411743,323
910.527649,315
910.643616,316
910.759583,308
910.875488,327
910.991455,317
911.107361,327
911.223267,309
911.339294,313
911.4552,314
911.571106,318
911.687073,311
911.802979,321
911.918823,303
912.034729,314
912.150635,312
912.266602,326
912.382446,304
912.498352,338
912.614197,302
912.730103,314
912.846008,310
