792.44574,360
792.56488,379
792.68396,415
792.80304,411
792.92218,353
793.041199,357
793.160339,357
793.279419,355
793.398499,367
793.517578,344
793.636658,331
793.755737,347
793.874817,369
793.993896,363
794.112976,348
794.232056,349
794.351074,352
794.470215,347
794.589233,333
794.708313,341
794.827393,353
794.946411,342
795.065552,356
795.18457,351
795.303589,341
795.422668,347
795.541687,352
795.660767,332
795.779846,335
795.898865,333
796.017883,355
796.136963,341
796.255981,335
796.375061,345
796.49408,336
796.613037,345
796.732117,338
796.851135,335
796.970154,345
797.089233,342
797.208191,332
797.327271,345
797.446228,341
797.565186,336
797.684265,339
797.803223,331
797.922241,333
798.04126,325
798.160278,339
798.279297,326
798.398315,339
798.517273,340
798.636292,344
798.75531,331
798.874268,337
798.993286,331
799.112244,338
799.231323,339
799.350281,330
799.469238,334
799.588257,332
799.707153,329
799.826111,316
799.945129,343
800.064087,334
800.183044,332
800.302063,335
800.421021,334
800.539978,336
800.658936,333
800.777893,349
800.896912,326
801.015747,327
801.134705,334
801.253723,333
801.37262,331
801.491638,346
801.610535,337
801.729492,343
801.84845,337
801.967407,341
802.086243,323
802.205261,323
802.324158,334
802.443115,332
802.562073,335
802.680969,326
802.799927,326
802.918762,330
803.037659,328
803.156677,326
803.275574,317
803.39447,321
803.513428,322
803.632263,328
803.751221,326
803.870117,334
803.989014,338
804.107971,319
804.226746,334
804.345642,324
804.4646,339
804.583496,341
804.702393,314
804.821228,335
804.940125,336
805.059021,329
805.177917,309
805.296814,331
805.415649,314
805.534546,333
805.653442,322
805.772278,328
805.891113,322
806.01001,334
806.128906,327
806.247742,343
806.366577,324
806.485413,320
806.604309,334
806.723145,322
806.84198,328
806.960876,322
807.079712,323
807.198486,328
807.317383,331
807.436218,326
807.554993,339
807.673889,316
807.792725,316
807.91156,318
808.030396,336
808.14917,318
808.268005,335
808.386841,314
808.505676,342
808.624451,320
808.743286,340
808.862122,331
808.980896,338
809.099731,314
809.218506,330
809.337341,324
809.456116,328
809.57489,337
809.693726,330
809.8125,327
809.931274,333
810.050049,321
810.168884,333
810.287659,329
810.406372,330
810.525269,328
810.643982,314
810.762756,334
810.881531,340
811.000305,325
811.11908,334
811.237854,328
811.356567,323
811.475403,336
811.594116,327
811.71283,318
811.831604,328
811.950378,338
812.069153,324
812.187927,334
812.30658,314
812.425415,336
812.544128,337
812.662781,324
812.781616,327
812.900269,346
813.019043,326
813.137756,321
813.256531,340
813.375244,329
813.493896,331
813.612671,334
813.731384,330
813.850037,334
813.96875,323
814.087524,345
814.206238,322
814.324951,322
814.443604,343
814.562256,324
814.68103,321
814.799683,318
814.918335,333
815.037109,338
815.155762,327
815.274475,333
815.393188,347
815.511841,333
815.630554,330
815.749146,329
815.867859,315
815.986572,337
816.105164,328
816.223877,336
816.342529,327
816.461182,329
816.579895,341
816.698486,332
816.817139,345
816.935791,309
817.054504,338
817.173096,328
817.291748,334
817.4104,325
817.529053,325
817.647644,325
817.766235,332
817.884949,331
818.00354,326
818.122192,317
818.240845,312
818.359436,331
818.478088,320
818.59668,338
818.715271,316
818.833923,323
818.952515,306
819.071106,320
819.189758,329
819.30835,322
819.426941,311
819.545532,310
819.664124,329
819.782715,332
819.901306,321
820.019897,328
820.138489,308
820.25708,324
820.375671,321
820.494202,316
820.612732,314
820.731384,330
820.849915,324
820.968506,322
821.087097,326
821.205627,318
821.324158,322
821.442749,327
821.561279,315
821.679871,310
821.798401,326
821.916931,334
822.035461,317
822.154053,328
822.272583,312
822.391174,335
822.509583,315
822.628174,320
822.746704,321
822.865234,309
822.983765,311
823.102295,305
823.220825,324
823.339294,324
823.457825,323
823.576355,312
823.694824,325
823.813354,321
823.931885,307
824.050354,330
824.168884,317
824.287354,321
824.405823,330
824.524353,324
824.642822,319
824.761353,324
824.879822,326
824.998291,326
825.116699,321
825.235291,315
825.353699,314
825.472168,318
825.590637,335
825.709106,326
825.827576,308
825.946045,313
826.064453,315
826.182983,320
826.301392,323
826.4198,311
826.53833,325
826.656738,322
826.775208,324
826.893677,312
827.012024,315
827.130493,320
827.248962,313
827.36731,320
827.485779,309
827.604248,309
827.722595,322
827.841064,316
827.959412,311
828.077942,313
828.196289,307
828.314636,323
828.433105,316
828.551514,328
828.669861,310
828.78833,322
828.906677,318
829.025085,322
829.143433,325
829.261841,320
829.38031,317
829.498657,316
829.617004,320
829.735413,323
829.85376,323
829.972107,313
830.090515,302
830.208862,316
830.327209,311
830.445557,322
830.563904,322
830.682312,326
830.800659,323
830.919006,315
831.037354,323
831.155701,321
831.274048,325
831.392395,316
831.51062,318
831.629028,318
831.747314,318
831.865662,328
831.984009,308
832.102356,324
832.220642,323
832.338928,324
832.457275,319
832.575623,340
832.693909,312
832.812134,321
832.930481,330
833.048828,317
833.167114,324
833.2854,305
833.403687,323
833.521973,309
833.640259,333
833.758545,309
833.876831,323
833.995056,309
834.113281,319
834.231628,323
834.349915,326
834.468201,318
834.586426,324
834.704651,323
834.822998,327
834.941162,326
835.059448,322
835.177673,322
835.295959,324
835.414246,317
835.53241,303
835.650635,320
835.768921,318
835.887146,319
836.005371,313
836.123596,312
836.241821,313
836.360046,324
836.478271,318
836.596497,306
836.714722,325
836.832886,302
836.95105,314
837.069336,318
837.1875,308
837.305725,324
837.423889,312
837.542053,330
837.660339,315
837.778503,320
837.896667,312
838.014832,325
838.132996,315
838.25116,337
838.369385,324
838.487488,322
838.605713,321
838.723877,316
838.84198,333
838.960205,311
839.078308,314
839.196472,320
839.314636,325
839.4328,318
839.550964,325
839.669067,328
839.787231,317
839.905396,311
840.023499,320
840.141602,311
840.259766,328
840.377869,315
840.495972,318
840.614136,332
840.732239,319
840.850342,321
840.968445,329
841.086548,331
841.204651,318
841.322754,329
841.440918,327
841.55896,336
841.677002,317
841.795166,326
841.913208,321
842.031311,313
842.149353,323
842.267456,310
842.385498,324
842.503601,329
842.621643,327
842.739746,316
842.857788,320
842.97583,313
843.093933,325
843.211975,322
843.330017,320
843.44812,326
843.566101,327
843.684204,320
843.802246,328
843.920227,314
844.038269,323
844.156311,314
844.274292,320
844.392395,306
844.510376,320
844.628357,310
844.74646,331
844.864441,311
844.982422,318
845.100403,324
845.218384,313
845.336426,316
845.454468,322
845.572449,328
845.69043,319
845.808411,314
845.926453,306
846.044373,324
846.162354,320
846.280396,321
846.398315,307
846.516296,296
846.634216,312
846.752197,323
846.870178,328
846.988098,320
847.106079,343
847.22406,334
847.34198,327
847.4599,320
847.577881,319
847.695801,317
847.813782,337
847.931641,311
848.049561,318
848.167603,324
848.285461,324
848.403381,326
848.521362,319
848.639221,314
848.75708,312
848.875,318
848.99292,309
849.110901,313
849.22876,316
849.34668,319
849.464539,319
849.582458,315
849.700317,318
849.818176,320
849.936096,323
850.053955,324
850.171875,317
850.289673,313
850.407593,321
850.525452,322
850.643311,327
850.761169,324
850.878967,330
850.996887,328
851.114746,309
851.232544,324
851.350403,326
851.468262,318
851.58606,321
851.703979,330
851.821777,309
851.939636,310
852.057434,333
852.175232,315
852.293091,311
852.410889,318
852.528687,315
852.646545,320
852.764343,322
852.88208,321
852.999939,317
853.117676,309
853.235535,316
853.353271,325
853.471069,322
853.588928,315
853.706604,317
853.824402,320
853.9422,326
854.059998,313
854.177734,323
854.295532,323
854.413269,322
854.531006,324
854.648804,337
854.766541,318
854.884277,318
855.002014,317
855.119751,328
855.237549,328
855.355225,323
855.473022,331
855.590698,322
855.708435,321
855.826172,317
855.943848,315
856.061646,327
856.179321,313
856.296997,344
856.414795,322
856.53241,318
856.650085,330
856.767822,319
856.885559,313
857.003174,328
857.120911,320
857.238586,321
857.356201,327
857.473938,327
857.591614,327
857.709351,328
857.826965,314
857.944641,334
858.062317,312
858.179993,324
858.297668,323
858.415283,315
858.532959,318
858.650574,320
858.768188,310
858.885803,319
859.003479,320
859.121094,334
859.23877,314
859.356384,330
859.473999,320
859.591675,312
859.709229,321
859.826843,311
859.944458,318
860.062012,326
860.179626,323
860.297302,325
860.414856,322
860.532471,327
860.650024,321
860.767639,314
860.885193,313
861.002808,325
861.120361,327
861.237976,315
861.35553,322
861.473022,327
861.590698,325
861.708191,318
861.825745,328
861.943298,309
862.060852,312
862.178406,323
862.295959,315
862.413513,330
862.531006,322
862.64856,312
862.766113,309
862.883667,319
863.00116,319
863.118713,314
863.236206,322
863.353699,335
863.471252,327
863.588745,327
863.706177,313
863.82373,314
863.941162,308
864.058716,331
864.176208,315
864.29364,307
864.411194,324
864.528687,321
864.646118,321
864.763611,333
864.881042,316
864.998535,320
865.116028,319
865.233459,311
865.350891,306
865.468384,328
865.585754,318
865.703308,303
865.820679,317
865.938171,316
866.055542,320
866.173035,313
866.290466,325
866.407837,314
866.52533,319
866.6427,312
866.760071,311
866.877563,314
866.994934,309
867.112305,321
867.229736,322
867.347107,310
867.464539,327
867.58197,319
867.699341,308
867.81665,325
867.934082,324
868.051453,326
868.168823,310
868.286194,318
868.403564,313
868.520935,326
868.638306,316
868.755676,312
868.872986,309
868.990295,325
869.107727,328
869.225037,321
869.342346,329
869.459717,325
869.577026,310
869.694336,328
869.811707,324
869.929016,301
870.046326,321
870.163635,323
870.280945,322
870.398254,337
870.515564,307
870.632812,320
870.750183,318
870.867432,313
870.984741,320
871.102051,328
871.219299,319
871.336609,322
871.453918,314
871.571106,325
871.688416,317
871.805664,327
871.922852,325
872.040222,321
872.157471,320
872.274719,338
872.391968,322
872.509155,332
872.626465,317
872.743652,319
872.860962,318
872.978149,313
873.095337,311
873.212646,317
873.329834,310
873.44696,325
873.564209,302
873.681396,340
873.798645,315
873.915894,321
874.03302,318
874.150208,322
874.267456,325
874.384583,317
874.501831,314
874.618958,330
874.736145,323
874.853333,307
874.970459,331
875.087646,331
875.204834,308
875.32196,311
875.439148,328
875.556274,328
875.673401,327
875.790527,330
875.907715,315
876.024841,315
876.141968,332
876.259094,328
876.376282,310
876.493347,317
876.610474,320
876.7276,323
876.844727,312
876.961853,318
877.078918,324
877.195984,319
877.313171,305
877.430237,332
877.547302,315
877.664368,330
877.781433,324
877.898499,321
878.015625,320
878.13269,322
878.249695,320
878.366821,332
878.483887,319
878.600952,331
878.717957,316
878.834961,323
878.952087,323
879.069092,323
879.186157,331
879.303162,318
879.420227,321
879.537231,326
879.654236,319
879.77124,310
879.888306,320
880.005249,304
880.122314,313
880.239319,317
880.356323,305
880.473328,312
880.590271,318
880.707275,335
880.824341,323
880.941284,316
881.058228,319
881.175232,312
881.292236,317
881.40918,331
881.526123,324
881.643066,323
881.760071,303
881.877014,322
881.993958,312
882.11084,323
882.227783,320
882.344727,310
882.46167,320
882.578613,316
882.695618,324
882.812439,329
882.929382,312
883.046326,316
883.163208,320
883.280151,313
883.397034,326
883.513916,322
883.630798,301
883.747742,315
883.864563,322
883.981506,331
884.098389,315
884.21521,316
884.332153,317
884.448975,311
884.565796,321
884.682678,309
884.7995,313
884.916443,328
885.033264,321
885.150085,314
885.266968,322
885.383789,331
885.500671,321
885.617493,327
885.734314,325
885.851196,320
885.967896,322
886.084717,316
886.201599,329
886.318359,315
886.435181,325
886.552002,329
886.668762,326
886.785645,330
886.902344,320
887.019165,317
887.135925,325
887.252747,329
887.369446,334
887.486267,319
887.603027,326
887.719788,311
887.836548,324
887.953247,323
888.070068,314
888.186829,311
888.303528,312
888.420288,320
888.536987,326
888.653687,304
888.770447,329
888.887146,309
889.003967,314
889.120667,319
889.237305,320
889.354065,312
889.470703,307
889.587463,317
889.704163,319
889.820862,306
889.937561,303
890.054199,318
890.170837,319
890.287598,317
890.404236,307
890.520874,309
890.637634,329
890.754211,319
890.87085,320
890.987549,318
891.104187,316
891.220886,319
891.337463,316
891.454102,330
891.57074,319
891.687378,321
891.804077,309
891.920654,312
892.037231,322
892.15387,329
892.270447,313
892.387085,328
892.503723,308
892.6203,327
892.736877,312
892.853516,309
892.970032,325
893.08667,323
893.203186,313
893.319763,323
893.43634,304
893.552917,315
893.669556,317
893.786011,326
893.902588,330
894.019165,322
894.135681,321
894.252197,313
894.368835,315
894.485291,322
894.601868,316
894.718384,322
894.8349,311
894.951355,330
895.067932,304
895.184448,301
895.300964,314
895.417419,315
895.533936,313
895.650452,316
895.766907,321
895.883423,306
895.999878,320
896.116333,322
896.232849,314
896.349304,317
896.465759,324
896.582214,317
896.698669,313
896.815125,320
896.931641,324
897.048035,313
897.164551,311
897.280884,311
897.397339,310
897.513794,328
897.630249,309
897.746582,315
897.863098,307
897.979431,325
898.095886,325
898.212341,316
898.328674,323
898.445129,323
898.561462,310
898.677795,320
898.794312,310
898.910645,316
899.026978,322
899.143433,315
899.259766,314
899.37616,323
899.492493,327
899.608765,334
899.725159,321
899.841553,323
899.957947,318
900.07428,325
900.190552,307
900.306946,327
900.423157,304
900.53949,321
900.655884,309
900.772156,310
900.888489,312
901.004822,308
901.121033,319
901.237366,317
901.353699,315
901.46991,323
901.586304,318
901.702515,318
901.818787,314
901.93512,329
902.051331,329
902.167603,309
902.283875,325
902.400085,315
902.516418,331
902.632629,325
902.74884,327
902.865112,317
902.981384,319
903.097595,325
903.213867,315
903.330017,311
903.446289,319
903.5625,312
903.67865,320
903.794922,322
903.911072,321
904.027344,325
904.143494,300
904.259705,330
904.375916,325
904.492065,327
904.608215,309
904.724426,322
904.840576,322
904.956726,323
905.072876,321
905.189087,318
905.305176,307
905.421387,320
905.537537,315
905.653687,308
905.769775,314
905.885925,306
906.002014,305
906.118164,331
906.234314,309
906.350403,322
906.466492,307
906.582642,321
906.69873,303
906.814758,318
906.930908,325
907.046936,322
907.163086,308
907.279175,311
907.395264,319
907.511353,318
907.62738,320
907.743408,322
907.859497,309
907.975525,311
908.091553,327
908.207703,322
908.32373,321
908.439758,322
908.555786,313
908.671814,312
908.787842,324
908.90387,314
909.019775,326
909.135864,324
909.251892,320
909.367859,319
909.483826,329
909.599854,323
909.715881,307
909.831848,306
909.947815,308
910.063782,327
910.179749,314
910.295776,318
910.411743,319
910.527649,317
910.643616,317
910.759583,314
910.875488,297
910.991455,321
911.107361,314
911.223267,313
911.339294,317
911.4552,319
911.571106,316
911.687073,323
911.802979,306
911.918823,316
912.034729,318
912.150635,327
912.266602,315
912.382446,320
912.498352,308
912.614197,331
912.730103,312
912.846008,318
792.44574,339
792.56488,384
792.68396,422
792.80304,407
792.92218,352
793.041199,333
793.160339,347
793.279419,359
793.398499,354
793.517578,349
793.636658,343
793.755737,358
793.874817,377
793.993896,365
794.112976,357
794.232056,343
794.351074,338
794.470215,354
794.589233,354
794.708313,350
794.827393,341
794.946411,339
795.065552,370
795.18457,343
795.303589,333
795.422668,320
795.541687,342
795.660767,345
795.779846,340
795.898865,335
796.017883,339
796.136963,337
796.255981,344
796.375061,330
796.49408,337
796.613037,336
796.732117,344
796.851135,343
796.970154,336
797.089233,329
797.208191,331
797.327271,327
797.446228,343
797.565186,334
797.684265,351
797.803223,345
797.922241,337
798.04126,343
798.160278,342
798.279297,324
798.398315,339
798.517273,333
798.636292,325
798.75531,343
798.874268,330
798.993286,345
799.112244,328
799.231323,325
799.350281,347
799.469238,324
799.588257,330
799.707153,316
799.826111,345
799.945129,331
800.064087,337
800.183044,342
800.302063,335
800.421021,333
800.539978,340
800.658936,338
800.777893,335
800.896912,328
801.015747,339
801.134705,324
801.253723,335
801.37262,350
801.491638,326
801.610535,338
801.729492,325
801.84845,331
801.967407,341
802.086243,337
802.205261,330
802.324158,334
802.443115,338
802.562073,333
802.680969,319
802.799927,347
802.918762,328
803.037659,343
803.156677,332
803.275574,331
803.39447,323
803.513428,335
803.632263,321
803.751221,323
803.870117,333
803.989014,326
804.107971,321
804.226746,333
804.345642,318
804.4646,324
804.583496,323
804.702393,343
804.821228,323
804.940125,314
805.059021,323
805.177917,326
805.296814,337
805.415649,322
805.534546,327
805.653442,337
805.772278,318
805.891113,330
806.01001,325
806.128906,347
806.247742,340
806.366577,325
806.485413,325
806.604309,326
806.723145,337
806.84198,324
806.960876,341
807.079712,325
807.198486,323
807.317383,331
807.436218,332
807.554993,313
807.673889,338
807.792725,334
807.91156,337
808.030396,319
808.14917,325
808.268005,321
808.386841,334
808.505676,341
808.624451,322
808.743286,330
808.862122,318
808.980896,325
809.099731,341
809.218506,324
809.337341,331
809.456116,334
809.57489,338
809.693726,329
809.8125,328
809.931274,322
810.050049,321
810.168884,333
810.287659,339
810.406372,329
810.525269,324
810.643982,322
810.762756,339
810.881531,322
811.000305,340
811.11908,336
811.237854,320
811.356567,337
811.475403,328
811.594116,336
811.71283,332
811.831604,322
811.950378,339
812.069153,331
812.187927,331
812.30658,340
812.425415,335
812.544128,326
812.662781,335
812.781616,329
812.900269,326
813.019043,326
813.137756,339
813.256531,330
813.375244,345
813.493896,343
813.612671,328
813.731384,332
813.850037,330
813.96875,326
814.087524,327
814.206238,337
814.324951,310
814.443604,336
814.562256,335
814.68103,329
814.799683,332
814.918335,333
815.037109,338
815.155762,339
815.274475,330
815.393188,332
815.511841,329
815.630554,326
815.749146,334
815.867859,328
815.986572,328
816.105164,322
816.223877,335
816.342529,343
816.461182,326
816.579895,327
816.698486,315
816.817139,343
816.935791,328
817.054504,350
817.173096,315
817.291748,322
817.4104,312
817.529053,317
817.647644,317
817.766235,328
817.884949,316
818.00354,328
818.122192,336
818.240845,324
818.359436,324
818.478088,314
818.59668,334
818.715271,334
818.833923,332
818.952515,324
819.071106,313
819.189758,341
819.30835,318
819.426941,323
819.545532,327
819.664124,323
819.782715,323
819.901306,332
820.019897,321
820.138489,322
820.25708,309
820.375671,337
820.494202,321
820.612732,318
820.731384,330
820.849915,322
820.968506,325
821.087097,331
821.205627,316
821.324158,334
821.442749,344
821.561279,324
821.679871,326
821.798401,321
821.916931,329
822.035461,318
822.154053,324
822.272583,334
822.391174,314
822.509583,326
822.628174,320
822.746704,336
822.865234,325
822.983765,321
823.102295,318
823.220825,310
823.339294,323
823.457825,326
823.576355,323
823.694824,313
823.813354,310
823.931885,320
824.050354,310
824.168884,329
824.287354,319
824.405823,319
824.524353,322
824.642822,318
824.761353,322
824.879822,322
824.998291,318
825.116699,322
825.235291,314
825.353699,311
825.472168,326
825.590637,308
825.709106,322
825.827576,310
825.946045,324
826.064453,325
826.182983,316
826.301392,325
826.4198,314
826.53833,325
826.656738,323
826.775208,328
826.893677,324
827.012024,317
827.130493,319
827.248962,325
827.36731,309
827.485779,320
827.604248,315
827.722595,328
827.841064,323
827.959412,336
828.077942,333
828.196289,313
828.314636,326
828.433105,315
828.551514,311
828.669861,331
828.78833,322
828.906677,324
829.025085,325
829.143433,317
829.261841,332
829.38031,324
829.498657,315
829.617004,325
829.735413,312
829.85376,317
829.972107,318
830.090515,325
830.208862,325
830.327209,326
830.445557,313
830.563904,320
830.682312,313
830.800659,318
830.919006,321
831.037354,334
831.155701,327
831.274048,334
831.392395,310
831.51062,322
831.629028,336
831.747314,322
831.865662,322
831.984009,320
832.102356,314
832.220642,315
832.338928,327
832.457275,327
832.575623,329
832.693909,320
832.812134,319
832.930481,332
833.048828,318
833.167114,330
833.2854,321
833.403687,318
833.521973,324
833.640259,325
833.758545,330
833.876831,319
833.995056,316
834.113281,322
834.231628,325
834.349915,314
834.468201,308
834.586426,325
834.704651,340
834.822998,319
834.941162,311
835.059448,326
835.177673,320
835.295959,318
835.414246,321
835.53241,322
835.650635,318
835.768921,310
835.887146,317
836.005371,313
836.123596,325
836.241821,311
836.360046,318
836.478271,317
836.596497,319
836.714722,321
836.832886,322
836.95105,311
837.069336,316
837.1875,316
837.305725,319
837.423889,311
837.542053,319
837.660339,317
837.778503,330
837.896667,326
838.014832,327
838.132996,325
838.25116,322
838.369385,338
838.487488,316
838.605713,329
838.723877,326
838.84198,312
838.960205,322
839.078308,322
839.196472,334
839.314636,317
839.4328,311
839.550964,327
839.669067,323
839.787231,318
839.905396,310
840.023499,313
840.141602,321
840.259766,324
840.377869,315
840.495972,306
840.614136,324
840.732239,324
840.850342,315
840.968445,315
841.086548,333
841.204651,328
841.322754,309
841.440918,335
841.55896,313
841.677002,311
841.795166,318
841.913208,322
842.031311,325
842.149353,332
842.267456,327
842.385498,320
842.503601,336
842.621643,324
842.739746,314
842.857788,316
842.97583,331
843.093933,326
843.211975,304
843.330017,316
843.44812,313
843.566101,334
843.684204,325
843.802246,302
843.920227,324
844.038269,311
844.156311,315
844.274292,319
844.392395,321
844.510376,322
844.628357,326
844.74646,311
844.864441,316
844.982422,336
845.100403,311
845.218384,334
845.336426,326
845.454468,323
845.572449,318
845.69043,316
845.808411,311
845.926453,331
846.044373,325
846.162354,332
846.280396,324
846.398315,322
846.516296,320
846.634216,314
846.752197,323
846.870178,319
846.988098,307
847.106079,321
847.22406,328
847.34198,317
847.4599,326
847.577881,331
847.695801,308
847.813782,319
847.931641,326
848.049561,315
848.167603,311
848.285461,312
848.403381,324
848.521362,323
848.639221,321
848.75708,306
848.875,316
848.99292,322
849.110901,315
849.22876,334
849.34668,332
849.464539,320
849.582458,321
849.700317,326
849.818176,310
849.936096,316
850.053955,311
850.171875,320
850.289673,326
850.407593,329
850.525452,324
850.643311,324
850.761169,320
850.878967,327
850.996887,326
851.114746,323
851.232544,315
851.350403,322
851.468262,320
851.58606,318
851.703979,332
851.821777,313
851.939636,333
852.057434,332
852.175232,325
852.293091,326
852.410889,319
852.528687,317
852.646545,326
852.764343,316
852.88208,316
852.999939,329
853.117676,323
853.235535,325
853.353271,315
853.471069,315
853.588928,315
853.706604,332
853.824402,313
853.9422,319
854.059998,316
854.177734,318
854.295532,326
854.413269,311
854.531006,318
854.648804,329
854.766541,323
854.884277,304
855.002014,318
855.119751,333
855.237549,319
855.355225,305
855.473022,326
855.590698,310
855.708435,327
855.826172,325
855.943848,326
856.061646,332
856.179321,325
856.296997,320
856.414795,319
856.53241,324
856.650085,325
856.767822,330
856.885559,317
857.003174,312
857.120911,317
857.238586,324
857.356201,314
857.473938,327
857.591614,324
857.709351,320
857.826965,323
857.944641,327
858.062317,328
858.179993,325
858.297668,318
858.415283,348
858.532959,318
858.650574,322
858.768188,320
858.885803,321
859.003479,322
859.121094,327
859.23877,321
859.356384,330
859.473999,325
859.591675,327
859.709229,320
859.826843,322
859.944458,318
860.062012,327
860.179626,323
860.297302,309
860.414856,318
860.532471,325
860.650024,321
860.767639,323
860.885193,325
861.002808,327
861.120361,335
861.237976,319
861.35553,324
861.473022,324
861.590698,331
861.708191,321
861.825745,306
861.943298,331
862.060852,313
862.178406,305
862.295959,317
862.413513,325
862.531006,322
862.64856,323
862.766113,316
862.883667,323
863.00116,313
863.118713,318
863.236206,323
863.353699,328
863.471252,324
863.588745,324
863.706177,324
863.82373,321
863.941162,326
864.058716,316
864.176208,317
864.29364,337
864.411194,324
864.528687,326
864.646118,327
864.763611,326
864.881042,320
864.998535,336
865.116028,293
865.233459,331
865.350891,318
865.468384,328
865.585754,314
865.703308,315
865.820679,315
865.938171,324
866.055542,316
866.173035,323
866.290466,320
866.407837,309
866.52533,323
866.6427,310
866.760071,317
866.877563,324
866.994934,332
867.112305,305
867.229736,324
867.347107,321
867.464539,314
867.58197,313
867.699341,313
867.81665,324
867.934082,315
868.051453,319
868.168823,314
868.286194,329
868.403564,323
868.520935,330
868.638306,318
868.755676,317
868.872986,310
868.990295,346
869.107727,324
869.225037,325
869.342346,320
869.459717,318
869.577026,332
869.694336,312
869.811707,311
869.929016,316
870.046326,309
870.163635,327
870.280945,321
870.398254,323
870.515564,325
870.632812,323
870.750183,323
870.867432,333
870.984741,314
871.102051,334
871.219299,312
871.336609,327
871.453918,319
871.571106,320
871.688416,319
871.805664,317
871.922852,324
872.040222,314
872.157471,319
872.274719,316
872.391968,311
872.509155,328
872.626465,311
872.743652,318
872.860962,314
872.978149,318
873.095337,330
873.212646,317
873.329834,325
873.44696,320
873.564209,308
873.681396,333
873.798645,315
873.915894,322
874.03302,319
874.150208,320
874.267456,331
874.384583,315
874.501831,310
874.618958,324
874.736145,311
874.853333,314
874.970459,317
875.087646,329
875.204834,314
875.32196,326
875.439148,318
875.556274,319
875.673401,303
875.790527,319
875.907715,311
876.024841,311
876.141968,312
876.259094,326
876.376282,312
876.493347,318
876.610474,318
876.7276,320
876.844727,335
876.961853,325
877.078918,336
877.195984,322
877.313171,317
877.430237,330
877.547302,327
877.664368,311
877.781433,325
877.898499,317
878.015625,317
878.13269,326
878.249695,306
878.366821,321
878.483887,325
878.600952,321
878.717957,326
878.834961,309
878.952087,309
879.069092,318
879.186157,306
879.303162,327
879.420227,320
879.537231,319
879.654236,327
879.77124,311
879.888306,325
880.005249,317
880.122314,323
880.239319,321
880.356323,309
880.473328,329
880.590271,327
880.707275,332
880.824341,322
880.941284,322
881.058228,300
881.175232,315
881.292236,313
881.40918,317
881.526123,315
881.643066,327
881.760071,323
881.877014,315
881.993958,327
882.11084,318
882.227783,322
882.344727,315
882.46167,327
882.578613,327
882.695618,309
882.812439,320
882.929382,315
883.046326,318
883.163208,331
883.280151,311
883.397034,317
883.513916,314
883.630798,318
883.747742,310
883.864563,326
883.981506,317
884.098389,331
884.21521,316
884.332153,305
884.448975,333
884.565796,327
884.682678,326
884.7995,315
884.916443,323
885.033264,319
885.150085,326
885.266968,311
885.383789,318
885.500671,335
885.617493,317
885.734314,326
885.851196,329
885.967896,320
886.084717,329
886.201599,309
886.318359,329
886.435181,323
886.552002,332
886.668762,320
886.785645,316
886.902344,321
887.019165,315
887.135925,316
887.252747,334
887.369446,319
887.486267,322
887.603027,320
887.719788,327
887.836548,326
887.953247,327
888.070068,326
888.186829,317
888.303528,316
888.420288,339
888.536987,312
888.653687,327
888.770447,324
888.887146,320
889.003967,311
889.120667,316
889.237305,311
889.354065,312
889.470703,309
889.587463,329
889.704163,310
889.820862,317
889.937561,326
890.054199,308
890.170837,305
890.287598,317
890.404236,313
890.520874,315
890.637634,309
890.754211,316
890.87085,316
890.987549,315
891.104187,299
891.220886,310
891.337463,318
891.454102,308
891.57074,315
891.687378,321
891.804077,319
891.920654,299
892.037231,321
892.15387,321
892.270447,315
892.387085,329
892.503723,322
892.6203,312
892.736877,320
892.853516,329
892.970032,308
893.08667,316
893.203186,315
893.319763,328
893.43634,313
893.552917,314
893.669556,310
893.786011,303
893.902588,315
894.019165,313
894.135681,326
894.252197,332
894.368835,315
894.485291,304
894.601868,318
894.718384,331
894.8349,316
894.951355,319
895.067932,310
895.184448,315
895.300964,318
895.417419,323
895.533936,332
895.650452,313
895.766907,323
895.883423,308
895.999878,308
896.116333,313
896.232849,335
896.349304,310
896.465759,311
896.582214,303
896.698669,315
896.815125,313
896.931641,316
897.048035,320
897.164551,308
897.280884,313
897.397339,316
897.513794,317
897.630249,304
897.746582,314
897.863098,312
897.979431,317
898.095886,303
898.212341,325
898.328674,291
898.445129,310
898.561462,324
898.677795,324
898.794312,326
898.910645,318
899.026978,316
899.143433,323
899.259766,306
899.37616,321
899.492493,302
899.608765,312
899.725159,317
899.841553,328
899.957947,320
900.07428,311
900.190552,329
900.306946,330
900.423157,319
900.53949,330
900.655884,313
900.772156,317
900.888489,307
901.004822,317
901.121033,323
901.237366,321
901.353699,314
901.46991,312
901.586304,314
901.702515,310
901.818787,304
901.93512,323
902.051331,315
902.167603,308
902.283875,305
902.400085,322
902.516418,325
902.632629,329
902.74884,318
902.865112,327
902.981384,307
903.097595,332
903.213867,317
903.330017,315
903.446289,331
903.5625,334
903.67865,319
903.794922,323
903.911072,311
904.027344,340
904.143494,320
904.259705,325
904.375916,318
904.492065,311
904.608215,318
904.724426,317
904.840576,315
904.956726,324
905.072876,306
905.189087,324
905.305176,317
905.421387,320
905.537537,313
905.653687,315
905.769775,315
905.885925,330
906.002014,312
906.118164,327
906.234314,311
906.350403,315
906.466492,324
906.582642,314
906.69873,312
906.814758,318
906.930908,314
907.046936,309
907.163086,306
907.279175,313
907.395264,329
907.511353,327
907.62738,328
907.743408,300
907.859497,309
907.975525,328
908.091553,324
908.207703,308
908.32373,310
908.439758,324
908.555786,321
908.671814,322
908.787842,318
908.90387,318
909.019775,306
909.135864,331
909.251892,319
909.367859,321
909.483826,317
909.599854,319
909.715881,320
909.831848,307
909.947815,303
910.063782,336
910.179749,320
910.295776,324
910.411743,304
910.527649,329
910.643616,326
910.759583,326
910.875488,313
910.991455,332
911.107361,308
911.223267,324
911.339294,308
911.4552,323
911.571106,315
911.687073,330
911.802979,312
911.918823,317
912.034729,318
912.150635,321
912.266602,315
912.382446,317
912.498352,317
912.614197,318
912.730103,318
912.846008,331
792.44574,353
792.56488,371
792.68396,423
792.80304,398
792.92218,358
793.041199,344
793.160339,317
793.279419,355
793.398499,351
793.517578,339
793.636658,345
793.755737,357
793.874817,350
793.993896,354
794.112976,358
794.232056,334
794.351074,351
794.470215,345
794.589233,333
794.708313,348
794.827393,339
794.946411,350
795.065552,349
795.18457,361
795.303589,351
795.422668,359
795.541687,332
795.660767,331
795.779846,354
795.898865,339
796.017883,332
796.136963,338
796.255981,348
796.375061,329
796.49408,343
796.613037,342
796.732117,323
796.851135,330
796.970154,356
797.089233,334
797.208191,331
797.327271,338
797.446228,348
797.565186,342
797.684265,340
797.803223,341
797.922241,333
798.04126,342
798.160278,321
798.279297,337
798.398315,323
798.517273,331
798.636292,329
798.75531,346
798.874268,337
798.993286,344
799.112244,329
799.231323,341
799.350281,329
799.469238,341
799.588257,339
799.707153,338
799.826111,332
799.945129,334
800.064087,326
800.183044,330
800.302063,336
800.421021,333
800.539978,329
800.658936,328
800.777893,336
800.896912,346
801.015747,326
801.134705,334
801.253723,327
801.37262,334
801.491638,326
801.610535,326
801.729492,322
801.84845,329
801.967407,335
802.086243,319
802.205261,335
802.324158,334
802.443115,328
802.562073,325
802.680969,324
802.799927,329
802.918762,317
803.037659,334
803.156677,322
803.275574,340
803.39447,322
803.513428,338
803.632263,321
803.751221,341
803.870117,318
803.989014,320
804.107971,330
804.226746,326
804.345642,326
804.4646,333
804.583496,320
804.702393,329
804.821228,320
804.940125,338
805.059021,320
805.177917,347
805.296814,327
805.415649,340
805.534546,332
805.653442,316
805.772278,342
805.891113,336
806.01001,328
806.128906,329
806.247742,327
806.366577,319
806.485413,321
806.604309,325
806.723145,327
806.84198,340
806.960876,320
807.079712,340
807.198486,326
807.317383,319
807.436218,319
807.554993,325
807.673889,310
807.792725,333
807.91156,319
808.030396,339
808.14917,316
808.268005,323
808.386841,333
808.505676,328
808.624451,317
808.743286,330
808.862122,323
808.980896,328
809.099731,321
809.218506,334
809.337341,310
809.456116,326
809.57489,324
809.693726,323
809.8125,316
809.931274,326
810.050049,333
810.168884,332
810.287659,332
810.406372,333
810.525269,329
810.643982,331
810.762756,335
810.881531,320
811.000305,332
811.11908,332
811.237854,332
811.356567,308
811.475403,325
811.594116,327
811.71283,332
811.831604,329
811.950378,320
812.069153,339
812.187927,326
812.30658,332
812.425415,339
812.544128,326
812.662781,319
812.781616,325
812.900269,322
813.019043,328
813.137756,322
813.256531,330
813.375244,333
813.493896,335
813.612671,334
813.731384,316
813.850037,334
813.96875,330
814.087524,326
814.206238,316
814.324951,320
814.443604,332
814.562256,340
814.68103,332
814.799683,328
814.918335,331
815.037109,337
815.155762,320
815.274475,344
815.393188,328
815.511841,322
815.630554,321
815.749146,319
815.867859,338
815.986572,327
816.105164,325
816.223877,333
816.342529,329
816.461182,328
816.579895,318
816.698486,339
816.817139,319
816.935791,342
817.054504,318
817.173096,346
817.291748,333
817.4104,320
817.529053,322
817.647644,310
817.766235,333
817.884949,317
818.00354,333
818.122192,331
818.240845,313
818.359436,316
818.478088,332
818.59668,319
818.715271,329
818.833923,332
818.952515,327
819.071106,315
819.189758,314
819.30835,330
819.426941,326
819.545532,328
819.664124,315
819.782715,316
819.901306,329
820.019897,312
820.138489,322
820.25708,320
820.375671,325
820.494202,326
820.612732,335
820.731384,339
820.849915,322
820.968506,315
821.087097,317
821.205627,310
821.324158,317
821.442749,325
821.561279,325
821.679871,311
821.798401,325
821.916931,309
822.035461,324
822.154053,318
822.272583,322
822.391174,301
822.509583,329
822.628174,327
822.746704,331
822.865234,311
822.983765,314
823.102295,329
823.220825,325
823.339294,311
823.457825,324
823.576355,315
823.694824,318
823.813354,317
823.931885,322
824.050354,316
824.168884,332
824.287354,325
824.405823,332
824.524353,307
824.642822,318
824.761353,324
824.879822,318
824.998291,320
825.116699,320
825.235291,333
825.353699,323
825.472168,329
825.590637,327
825.709106,327
825.827576,333
825.946045,323
826.064453,317
826.182983,328
826.301392,325
826.4198,333
826.53833,305
826.656738,315
826.775208,316
826.893677,321
827.012024,312
827.130493,324
827.248962,331
827.36731,312
827.485779,320
827.604248,306
827.722595,322
827.841064,315
827.959412,313
828.077942,321
828.196289,315
828.314636,310
828.433105,327
828.551514,324
828.669861,303
828.78833,321
828.906677,317
829.025085,327
829.143433,323
829.261841,320
829.38031,312
829.498657,325
829.617004,304
829.735413,310
829.85376,315
829.972107,314
830.090515,324
830.208862,309
830.327209,315
830.445557,307
830.563904,304
830.682312,312
830.800659,321
830.919006,316
831.037354,330
831.155701,328
831.274048,324
831.392395,318
831.51062,334
831.629028,325
831.747314,329
831.865662,315
831.984009,312
832.102356,317
832.220642,323
832.338928,305
832.457275,312
832.575623,307
832.693909,302
832.812134,318
832.930481,320
833.048828,316
833.167114,332
833.2854,324
833.403687,311
833.521973,313
833.640259,316
833.758545,315
833.876831,321
833.995056,320
834.113281,316
834.231628,317
834.349915,330
834.468201,314
834.586426,336
834.704651,304
834.822998,327
834.941162,325
835.059448,326
835.177673,318
835.295959,327
835.414246,302
835.53241,316
835.650635,315
835.768921,329
835.887146,318
836.005371,322
836.123596,329
836.241821,311
836.360046,317
836.478271,327
836.596497,324
836.714722,320
836.832886,323
836.95105,318
837.069336,334
837.1875,330
837.305725,320
837.423889,321
837.542053,318
837.660339,322
837.778503,325
837.896667,329
838.014832,298
838.132996,320
838.25116,323
838.369385,312
838.487488,320
838.605713,322
838.723877,309
838.84198,312
838.960205,318
839.078308,323
839.196472,322
839.314636,315
839.4328,336
839.550964,309
839.669067,323
839.787231,306
839.905396,331
840.023499,322
840.141602,319
840.259766,324
840.377869,314
840.495972,334
840.614136,326
840.732239,311
840.850342,318
840.968445,327
841.086548,311
841.204651,332
841.322754,325
841.440918,315
841.55896,329
841.677002,318
841.795166,327
841.913208,334
842.031311,316
842.149353,311
842.267456,333
842.385498,331
842.503601,314
842.621643,321
842.739746,313
842.857788,325
842.97583,325
843.093933,316
843.211975,319
843.330017,335
843.44812,317
843.566101,327
843.684204,316
843.802246,332
843.920227,305
844.038269,328
844.156311,316
844.274292,322
844.392395,316
844.510376,327
844.628357,324
844.74646,316
844.864441,320
844.982422,325
845.100403,314
845.218384,328
845.336426,316
845.454468,334
845.572449,310
845.69043,314
845.808411,324
845.926453,311
846.044373,308
846.162354,326
846.280396,314
846.398315,316
846.516296,320
846.634216,316
846.752197,322
846.870178,325
846.988098,328
847.106079,313
847.22406,319
847.34198,336
847.4599,313
847.577881,323
847.695801,312
847.813782,321
847.931641,323
848.049561,316
848.167603,320
848.285461,313
848.403381,319
848.521362,323
848.639221,309
848.75708,331
848.875,322
848.99292,320
849.110901,317
849.22876,331
849.34668,325
849.464539,301
849.582458,314
849.700317,322
849.818176,313
849.936096,331
850.053955,317
850.171875,314
850.289673,318
850.407593,317
850.525452,321
850.643311,338
850.761169,316
850.878967,315
850.996887,315
851.114746,324
851.232544,321
851.350403,300
851.468262,314
851.58606,325
851.703979,332
851.821777,315
851.939636,318
852.057434,323
852.175232,312
852.293091,321
852.410889,316
852.528687,314
852.646545,333
852.764343,337
852.88208,323
852.999939,334
853.117676,329
853.235535,320
853.353271,306
853.471069,317
853.588928,319
853.706604,321
853.824402,319
853.9422,330
854.059998,313
854.177734,327
854.295532,317
854.413269,326
854.531006,327
854.648804,321
854.766541,330
854.884277,333
855.002014,325
855.119751,318
855.237549,316
855.355225,325
855.473022,322
855.590698,307
855.708435,311
855.826172,316
855.943848,317
856.061646,306
856.179321,312
856.296997,314
856.414795,317
856.53241,325
856.650085,310
856.767822,328
856.885559,316
857.003174,326
857.120911,324
857.238586,320
857.356201,320
857.473938,325
857.591614,325
857.709351,329
857.826965,322
857.944641,325
858.062317,316
858.179993,324
858.297668,312
858.415283,295
858.532959,331
858.650574,317
858.768188,326
858.885803,332
859.003479,316
859.121094,313
859.23877,332
859.356384,330
859.473999,317
859.591675,331
859.709229,314
859.826843,318
859.944458,323
860.062012,330
860.179626,322
860.297302,318
860.414856,320
860.532471,330
860.650024,314
860.767639,309
860.885193,329
861.002808,315
861.120361,322
861.237976,324
861.35553,325
861.473022,334
861.590698,318
861.708191,326
861.825745,298
861.943298,314
862.060852,323
862.178406,327
862.295959,313
862.413513,316
862.531006,312
862.64856,316
862.766113,318
862.883667,310
863.00116,319
863.118713,314
863.236206,308
863.353699,307
863.471252,327
863.588745,335
863.706177,331
863.82373,320
863.941162,316
864.058716,327
864.176208,320
864.29364,332
864.411194,308
864.528687,331
864.646118,328
864.763611,315
864.881042,317
864.998535,314
865.116028,310
865.233459,325
865.350891,315
865.468384,321
865.585754,308
865.703308,321
865.820679,319
865.938171,330
866.055542,325
866.173035,318
866.290466,313
866.407837,316
866.52533,325
866.6427,325
866.760071,321
866.877563,321
866.994934,316
867.112305,309
867.229736,314
867.347107,314
867.464539,313
867.58197,330
867.699341,320
867.81665,319
867.934082,317
868.051453,309
868.168823,326
868.286194,322
868.403564,302
868.520935,315
868.638306,321
868.755676,311
868.872986,309
868.990295,327
869.107727,325
869.225037,300
869.342346,323
869.459717,312
869.577026,325
869.694336,319
869.811707,321
869.929016,313
870.046326,315
870.163635,315
870.280945,306
870.398254,303
870.515564,323
870.632812,329
870.750183,314
870.867432,316
870.984741,318
871.102051,315
871.219299,312
871.336609,320
871.453918,318
871.571106,318
871.688416,304
871.805664,338
871.922852,312
872.040222,325
872.157471,328
872.274719,308
872.391968,328
872.509155,332
872.626465,324
872.743652,319
872.860962,308
872.978149,332
873.095337,323
873.212646,333
873.329834,322
873.44696,317
873.564209,313
873.681396,319
873.798645,323
873.915894,313
874.03302,320
874.150208,330
874.267456,323
874.384583,316
874.501831,305
874.618958,337
874.736145,313
874.853333,324
874.970459,317
875.087646,323
875.204834,313
875.32196,327
875.439148,308
875.556274,319
875.673401,317
875.790527,311
875.907715,320
876.024841,335
876.141968,321
876.259094,324
876.376282,310
876.493347,306
876.610474,307
876.7276,313
876.844727,323
876.961853,322
877.078918,323
877.195984,314
877.313171,324
877.430237,323
877.547302,317
877.664368,316
877.781433,321
877.898499,330
878.015625,299
878.13269,316
878.249695,320
878.366821,327
878.483887,314
878.600952,314
878.717957,325
878.834961,310
878.952087,316
879.069092,325
879.186157,317
879.303162,325
879.420227,307
879.537231,315
879.654236,323
879.77124,323
879.888306,311
880.005249,327
880.122314,319
880.239319,316
880.356323,318
880.473328,320
880.590271,308
880.707275,307
880.824341,324
880.941284,320
881.058228,316
881.175232,324
881.292236,334
881.40918,318
881.526123,324
881.643066,324
881.760071,311
881.877014,308
881.993958,314
882.11084,315
882.227783,320
882.344727,321
882.46167,311
882.578613,320
882.695618,296
882.812439,313
882.929382,317
883.046326,330
883.163208,316
883.280151,312
883.397034,311
883.513916,325
883.630798,311
883.747742,329
883.864563,318
883.981506,318
884.098389,317
884.21521,321
884.332153,328
884.448975,306
884.565796,328
884.682678,327
884.7995,318
884.916443,316
885.033264,312
885.150085,329
885.266968,320
885.383789,323
885.500671,339
885.617493,329
885.734314,327
885.851196,325
885.967896,324
886.084717,322
886.201599,319
886.318359,319
886.435181,325
886.552002,318
886.668762,323
886.785645,326
886.902344,312
887.019165,317
887.135925,329
887.252747,327
887.369446,317
887.486267,320
887.603027,326
887.719788,315
887.836548,324
887.953247,316
888.070068,325
888.186829,314
888.303528,325
888.420288,318
888.536987,315
888.653687,311
888.770447,324
888.887146,309
889.003967,302
889.120667,323
889.237305,322
889.354065,312
889.470703,321
889.587463,313
889.704163,317
889.820862,311
889.937561,318
890.054199,302
890.170837,312
890.287598,314
890.404236,314
890.520874,314
890.637634,324
890.754211,313
890.87085,311
890.987549,324
891.104187,309
891.220886,317
891.337463,317
891.454102,317
891.57074,327
891.687378,302
891.804077,316
891.920654,315
892.037231,305
892.15387,329
892.270447,310
892.387085,322
892.503723,322
892.6203,312
892.736877,319
892.853516,320
892.970032,312
893.08667,313
893.203186,325
893.319763,310
893.43634,312
893.552917,324
893.669556,326
893.786011,326
893.902588,323
894.019165,315
894.135681,312
894.252197,319
894.368835,316
894.485291,305
894.601868,327
894.718384,326
894.8349,307
894.951355,315
895.067932,306
895.184448,316
895.300964,308
895.417419,310
895.533936,311
895.650452,306
895.766907,310
895.883423,327
895.999878,315
896.116333,298
896.232849,315
896.349304,332
896.465759,318
896.582214,326
896.698669,313
896.815125,323
896.931641,325
897.048035,305
897.164551,310
897.280884,315
897.397339,321
897.513794,325
897.630249,320
897.746582,326
897.863098,294
897.979431,314
898.095886,329
898.212341,312
898.328674,317
898.445129,329
898.561462,319
898.677795,322
898.794312,317
898.910645,316
899.026978,317
899.143433,321
899.259766,310
899.37616,311
899.492493,314
899.608765,333
899.725159,317
899.841553,319
899.957947,316
900.07428,326
900.190552,307
900.306946,317
900.423157,321
900.53949,321
900.655884,331
900.772156,313
900.888489,310
901.004822,326
901.121033,310
901.237366,322
901.353699,314
901.46991,319
901.586304,310
901.702515,322
901.818787,318
901.93512,316
902.051331,313
902.167603,328
902.283875,308
902.400085,321
902.516418,322
902.632629,327
902.74884,314
902.865112,312
902.981384,324
903.097595,321
903.213867,334
903.330017,315
903.446289,323
903.5625,329
903.67865,319
903.794922,326
903.911072,321
904.027344,311
904.143494,308
904.259705,312
904.375916,323
904.492065,322
904.608215,311
904.724426,317
904.840576,314
904.956726,315
905.072876,319
905.189087,333
905.305176,325
905.421387,309
905.537537,310
905.653687,320
905.769775,310
905.885925,317
906.002014,312
906.118164,330
906.234314,315
906.350403,310
906.466492,318
906.582642,318
906.69873,316
906.814758,315
906.930908,309
907.046936,308
907.163086,331
907.279175,322
907.395264,317
907.511353,312
907.62738,305
907.743408,304
907.859497,323
907.975525,327
908.091553,306
908.207703,319
908.32373,312
908.439758,309
908.555786,318
908.671814,304
908.787842,312
908.90387,310
909.019775,321
909.135864,307
909.251892,318
909.367859,321
909.483826,306
909.599854,325
909.715881,311
909.831848,309
909.947815,319
910.063782,308
910.179749,327
910.295776,322
910.411743,308
910.527649,326
910.643616,312
910.759583,309
910.875488,310
910.991455,312
911.107361,327
911.223267,323
911.339294,317
911.4552,323
911.571106,319
911.687073,317
911.802979,307
911.918823,309
912.034729,317
912.150635,309
912.266602,304
912.382446,314
912.498352,311
912.614197,311
912.730103,308
912.846008,311
