792.44574,320
792.56488,376
792.68396,404
792.80304,374
792.92218,338
793.041199,321
793.160339,341
793.279419,342
793.398499,338
793.517578,322
793.636658,329
793.755737,340
793.874817,346
793.993896,350
794.112976,338
794.232056,332
794.351074,326
794.470215,341
794.589233,345
794.708313,335
794.827393,337
794.946411,341
795.065552,336
795.18457,341
795.303589,333
795.422668,335
795.541687,334
795.660767,342
795.779846,335
795.898865,326
796.017883,325
796.136963,346
796.255981,328
796.375061,333
796.49408,317
796.613037,346
796.732117,347
796.851135,328
796.970154,339
797.089233,327
797.208191,342
797.327271,333
797.446228,341
797.565186,340
797.684265,353
797.803223,323
797.922241,332
798.04126,327
798.160278,322
798.279297,323
798.398315,325
798.517273,343
798.636292,328
798.75531,332
798.874268,339
798.993286,335
799.112244,342
799.231323,344
799.350281,330
799.469238,323
799.588257,327
799.707153,329
799.826111,328
799.945129,326
800.064087,342
800.183044,324
800.302063,337
800.421021,330
800.539978,327
800.658936,334
800.777893,323
800.896912,327
801.015747,327
801.134705,326
801.253723,335
801.37262,336
801.491638,329
801.610535,343
801.729492,333
801.84845,320
801.967407,324
802.086243,334
802.205261,326
802.324158,330
802.443115,332
802.562073,331
802.680969,321
802.799927,328
802.918762,326
803.037659,332
803.156677,330
803.275574,329
803.39447,335
803.513428,333
803.632263,341
803.751221,321
803.870117,346
803.989014,333
804.107971,331
804.226746,341
804.345642,330
804.4646,342
804.583496,317
804.702393,331
804.821228,328
804.940125,333
805.059021,327
805.177917,330
805.296814,312
805.415649,335
805.534546,328
805.653442,321
805.772278,341
805.891113,319
806.01001,337
806.128906,320
806.247742,321
806.366577,326
806.485413,332
806.604309,332
806.723145,327
806.84198,327
806.960876,335
807.079712,337
807.198486,326
807.317383,333
807.436218,324
807.554993,330
807.673889,330
807.792725,348
807.91156,336
808.030396,331
808.14917,327
808.268005,327
808.386841,340
808.505676,329
808.624451,321
808.743286,327
808.862122,329
808.980896,328
809.099731,328
809.218506,322
809.337341,339
809.456116,329
809.57489,339
809.693726,338
809.8125,326
809.931274,337
810.050049,316
810.168884,336
810.287659,329
810.406372,330
810.525269,330
810.643982,327
810.762756,335
810.881531,342
811.000305,348
811.11908,345
811.237854,311
811.356567,348
811.475403,330
811.594116,357
811.71283,324
811.831604,328
811.950378,344
812.069153,326
812.187927,328
812.30658,336
812.425415,335
812.544128,346
812.662781,318
812.781616,342
812.900269,339
813.019043,345
813.137756,341
813.256531,339
813.375244,326
813.493896,337
813.612671,313
813.731384,336
813.850037,323
813.96875,345
814.087524,328
814.206238,334
814.324951,335
814.443604,319
814.562256,338
814.68103,329
814.799683,315
814.918335,334
815.037109,340
815.155762,330
815.274475,324
815.393188,336
815.511841,321
815.630554,331
815.749146,327
815.867859,322
815.986572,320
816.105164,351
816.223877,322
816.342529,335
816.461182,330
816.579895,327
816.698486,334
816.817139,334
816.935791,351
817.054504,331
817.173096,315
817.291748,337
817.4104,323
817.529053,325
817.647644,325
817.766235,330
817.884949,334
818.00354,322
818.122192,322
818.240845,325
818.359436,312
818.478088,322
818.59668,331
818.715271,342
818.833923,331
818.952515,313
819.071106,325
819.189758,326
819.30835,327
819.426941,311
819.545532,319
819.664124,310
819.782715,318
819.901306,322
820.019897,318
820.138489,335
820.25708,322
820.375671,316
820.494202,314
820.612732,319
820.731384,322
820.849915,316
820.968506,322
821.087097,317
821.205627,316
821.324158,320
821.442749,318
821.561279,323
821.679871,324
821.798401,315
821.916931,314
822.035461,328
822.154053,312
822.272583,322
822.391174,315
822.509583,310
822.628174,327
822.746704,314
822.865234,312
822.983765,335
823.102295,326
823.220825,321
823.339294,317
823.457825,326
823.576355,323
823.694824,327
823.813354,322
823.931885,322
824.050354,321
824.168884,331
824.287354,318
824.405823,322
824.524353,316
824.642822,307
824.761353,328
824.879822,320
824.998291,329
825.116699,316
825.235291,314
825.353699,333
825.472168,317
825.590637,333
825.709106,313
825.827576,318
825.946045,311
826.064453,314
826.182983,303
826.301392,323
826.4198,314
826.53833,321
826.656738,317
826.775208,318
826.893677,314
827.012024,332
827.130493,308
827.248962,316
827.36731,314
827.485779,315
827.604248,328
827.722595,324
827.841064,309
827.959412,313
828.077942,331
828.196289,327
828.314636,328
828.433105,325
828.551514,305
828.669861,336
828.78833,313
828.906677,320
829.025085,331
829.143433,329
829.261841,316
829.38031,326
829.498657,319
829.617004,324
829.735413,312
829.85376,329
829.972107,306
830.090515,310
830.208862,316
830.327209,311
830.445557,307
830.563904,320
830.682312,321
830.800659,336
830.919006,329
831.037354,313
831.155701,308
831.274048,318
831.392395,317
831.51062,320
831.629028,308
831.747314,313
831.865662,313
831.984009,315
832.102356,311
832.220642,324
832.338928,310
832.457275,322
832.575623,322
832.693909,330
832.812134,321
832.930481,326
833.048828,309
833.167114,319
833.2854,328
833.403687,326
833.521973,328
833.640259,334
833.758545,308
833.876831,321
833.995056,311
834.113281,318
834.231628,318
834.349915,329
834.468201,323
834.586426,328
834.704651,317
834.822998,320
834.941162,315
835.059448,310
835.177673,326
835.295959,317
835.414246,312
835.53241,314
835.650635,318
835.768921,314
835.887146,316
836.005371,311
836.123596,335
836.241821,318
836.360046,310
836.478271,314
836.596497,317
836.714722,329
836.832886,318
836.95105,310
837.069336,323
837.1875,312
837.305725,308
837.423889,318
837.542053,303
837.660339,315
837.778503,314
837.896667,326
838.014832,332
838.132996,321
838.25116,312
838.369385,321
838.487488,328
838.605713,321
838.723877,319
838.84198,309
838.960205,322
839.078308,319
839.196472,314
839.314636,320
839.4328,314
839.550964,329
839.669067,316
839.787231,314
839.905396,329
840.023499,331
840.141602,316
840.259766,319
840.377869,316
840.495972,326
840.614136,319
840.732239,307
840.850342,315
840.968445,311
841.086548,312
841.204651,322
841.322754,316
841.440918,323
841.55896,328
841.677002,324
841.795166,314
841.913208,320
842.031311,325
842.149353,319
842.267456,304
842.385498,320
842.503601,312
842.621643,315
842.739746,314
842.857788,326
842.97583,319
843.093933,313
843.211975,318
843.330017,320
843.44812,319
843.566101,327
843.684204,322
843.802246,330
843.920227,312
844.038269,310
844.156311,302
844.274292,315
844.392395,314
844.510376,305
844.628357,321
844.74646,331
844.864441,319
844.982422,317
845.100403,328
845.218384,321
845.336426,316
845.454468,319
845.572449,314
845.69043,309
845.808411,326
845.926453,314
846.044373,302
846.162354,312
846.280396,312
846.398315,316
846.516296,326
846.634216,323
846.752197,321
846.870178,317
846.988098,295
847.106079,323
847.22406,329
847.34198,319
847.4599,313
847.577881,310
847.695801,325
847.813782,307
847.931641,322
848.049561,314
848.167603,323
848.285461,317
848.403381,305
848.521362,308
848.639221,318
848.75708,304
848.875,325
848.99292,319
849.110901,303
849.22876,328
849.34668,316
849.464539,317
849.582458,331
849.700317,312
849.818176,323
849.936096,309
850.053955,322
850.171875,314
850.289673,305
850.407593,330
850.525452,305
850.643311,327
850.761169,320
850.878967,315
850.996887,314
851.114746,314
851.232544,330
851.350403,323
851.468262,314
851.58606,314
851.703979,310
851.821777,321
851.939636,322
852.057434,323
852.175232,324
852.293091,313
852.410889,319
852.528687,331
852.646545,309
852.764343,332
852.88208,315
852.999939,317
853.117676,317
853.235535,314
853.353271,324
853.471069,324
853.588928,322
853.706604,332
853.824402,319
853.9422,311
854.059998,319
854.177734,310
854.295532,315
854.413269,330
854.531006,310
854.648804,318
854.766541,323
854.884277,310
855.002014,329
855.119751,306
855.237549,315
855.355225,313
855.473022,326
855.590698,329
855.708435,318
855.826172,306
855.943848,317
856.061646,313
856.179321,319
856.296997,324
856.414795,312
856.53241,335
856.650085,324
856.767822,305
856.885559,309
857.003174,321
857.120911,318
857.238586,316
857.356201,311
857.473938,329
857.591614,322
857.709351,307
857.826965,317
857.944641,327
858.062317,320
858.179993,324
858.297668,310
858.415283,307
858.532959,304
858.650574,304
858.768188,308
858.885803,310
859.003479,321
859.121094,317
859.23877,309
859.356384,311
859.473999,321
859.591675,318
859.709229,307
859.826843,313
859.944458,320
860.062012,320
860.179626,317
860.297302,318
860.414856,318
860.532471,314
860.650024,322
860.767639,315
860.885193,315
861.002808,322
861.120361,314
861.237976,327
861.35553,305
861.473022,315
861.590698,315
861.708191,335
861.825745,314
861.943298,313
862.060852,314
862.178406,309
862.295959,318
862.413513,324
862.531006,313
862.64856,315
862.766113,303
862.883667,312
863.00116,320
863.118713,316
863.236206,325
863.353699,323
863.471252,329
863.588745,322
863.706177,308
863.82373,312
863.941162,313
864.058716,317
864.176208,308
864.29364,315
864.411194,318
864.528687,308
864.646118,319
864.763611,313
864.881042,308
864.998535,312
865.116028,331
865.233459,318
865.350891,315
865.468384,319
865.585754,308
865.703308,312
865.820679,307
865.938171,321
866.055542,311
866.173035,324
866.290466,312
866.407837,309
866.52533,324
866.6427,321
866.760071,322
866.877563,314
866.994934,316
867.112305,333
867.229736,321
867.347107,313
867.464539,320
867.58197,320
867.699341,303
867.81665,320
867.934082,319
868.051453,309
868.168823,318
868.286194,323
868.403564,325
868.520935,312
868.638306,313
868.755676,318
868.872986,328
868.990295,306
869.107727,313
869.225037,318
869.342346,329
869.459717,335
869.577026,310
869.694336,316
869.811707,305
869.929016,310
870.046326,312
870.163635,319
870.280945,319
870.398254,339
870.515564,310
870.632812,316
870.750183,313
870.867432,311
870.984741,312
871.102051,313
871.219299,330
871.336609,326
871.453918,320
871.571106,315
871.688416,320
871.805664,315
871.922852,323
872.040222,314
872.157471,317
872.274719,305
872.391968,325
872.509155,312
872.626465,317
872.743652,320
872.860962,304
872.978149,320
873.095337,320
873.212646,326
873.329834,318
873.44696,309
873.564209,304
873.681396,322
873.798645,322
873.915894,320
874.03302,318
874.150208,320
874.267456,310
874.384583,320
874.501831,318
874.618958,320
874.736145,324
874.853333,310
874.970459,310
875.087646,319
875.204834,317
875.32196,330
875.439148,315
875.556274,318
875.673401,318
875.790527,310
875.907715,327
876.024841,328
876.141968,308
876.259094,315
876.376282,306
876.493347,316
876.610474,317
876.7276,309
876.844727,332
876.961853,328
877.078918,333
877.195984,321
877.313171,327
877.430237,315
877.547302,313
877.664368,329
877.781433,307
877.898499,315
878.015625,318
878.13269,325
878.249695,326
878.366821,322
878.483887,317
878.600952,323
878.717957,317
878.834961,321
878.952087,307
879.069092,317
879.186157,306
879.303162,319
879.420227,315
879.537231,313
879.654236,307
879.77124,322
879.888306,315
880.005249,328
880.122314,309
880.239319,308
880.356323,317
880.473328,319
880.590271,325
880.707275,326
880.824341,313
880.941284,327
881.058228,312
881.175232,325
881.292236,327
881.40918,319
881.526123,328
881.643066,309
881.760071,317
881.877014,331
881.993958,319
882.11084,312
882.227783,315
882.344727,313
882.46167,316
882.578613,310
882.695618,320
882.812439,321
882.929382,314
883.046326,319
883.163208,301
883.280151,297
883.397034,302
883.513916,314
883.630798,314
883.747742,313
883.864563,307
883.981506,320
884.098389,309
884.21521,321
884.332153,315
884.448975,321
884.565796,301
884.682678,317
884.7995,305
884.916443,324
885.033264,328
885.150085,325
885.266968,331
885.383789,319
885.500671,324
885.617493,329
885.734314,325
885.851196,330
885.967896,311
886.084717,327
886.201599,320
886.318359,319
886.435181,325
886.552002,329
886.668762,310
886.785645,338
886.902344,311
887.019165,320
887.135925,314
887.252747,318
887.369446,325
887.486267,322
887.603027,313
887.719788,323
887.836548,321
887.953247,336
888.070068,319
888.186829,318
888.303528,306
888.420288,320
888.536987,316
888.653687,318
888.770447,311
888.887146,307
889.003967,309
889.120667,311
889.237305,313
889.354065,313
889.470703,316
889.587463,319
889.704163,332
889.820862,315
889.937561,308
890.054199,319
890.170837,318
890.287598,315
890.404236,319
890.520874,313
890.637634,306
890.754211,311
890.87085,321
890.987549,329
891.104187,302
891.220886,315
891.337463,322
891.454102,309
891.57074,306
891.687378,321
891.804077,305
891.920654,322
892.037231,315
892.15387,316
892.270447,324
892.387085,318
892.503723,297
892.6203,321
892.736877,300
892.853516,321
892.970032,325
893.08667,313
893.203186,317
893.319763,314
893.43634,319
893.552917,325
893.669556,313
893.786011,317
893.902588,305
894.019165,309
894.135681,326
894.252197,322
894.368835,319
894.485291,313
894.601868,326
894.718384,305
894.8349,311
894.951355,326
895.067932,319
895.184448,322
895.300964,321
895.417419,313
895.533936,333
895.650452,324
895.766907,321
895.883423,323
895.999878,315
896.116333,309
896.232849,306
896.349304,321
896.465759,325
896.582214,323
896.698669,326
896.815125,312
896.931641,313
897.048035,321
897.164551,315
897.280884,322
897.397339,299
897.513794,326
897.630249,316
897.746582,313
897.863098,313
897.979431,317
898.095886,326
898.212341,310
898.328674,304
898.445129,324
898.561462,307
898.677795,307
898.794312,317
898.910645,319
899.026978,322
899.143433,320
899.259766,316
899.37616,331
899.492493,317
899.608765,319
899.725159,320
899.841553,317
899.957947,323
900.07428,310
900.190552,326
900.306946,325
900.423157,306
900.53949,318
900.655884,317
900.772156,314
900.888489,318
901.004822,326
901.121033,313
901.237366,328
901.353699,324
901.46991,314
901.586304,316
901.702515,321
901.818787,320
901.93512,333
902.051331,309
902.167603,324
902.283875,317
902.400085,317
902.516418,324
902.632629,314
902.74884,310
902.865112,325
902.981384,326
903.097595,321
903.213867,303
903.330017,333
903.446289,316
903.5625,330
903.67865,315
903.794922,321
903.911072,323
904.027344,332
904.143494,310
904.259705,320
904.375916,311
904.492065,325
904.608215,312
904.724426,321
904.840576,326
904.956726,320
905.072876,321
905.189087,323
905.305176,319
905.421387,321
905.537537,325
905.653687,325
905.769775,324
905.885925,330
906.002014,305
906.118164,317
906.234314,322
906.350403,321
906.466492,314
906.582642,318
906.69873,320
906.814758,312
906.930908,313
907.046936,317
907.163086,312
907.279175,310
907.395264,327
907.511353,315
907.62738,308
907.743408,311
907.859497,315
907.975525,324
908.091553,323
908.207703,324
908.32373,318
908.439758,321
908.555786,311
908.671814,328
908.787842,306
908.90387,312
909.019775,312
909.135864,299
909.251892,319
909.367859,312
909.483826,318
909.599854,320
909.715881,311
909.831848,308
909.947815,300
910.063782,315
910.179749,314
910.295776,321
910.411743,315
910.527649,322
910.643616,326
910.759583,308
910.875488,323
910.991455,318
911.107361,306
911.223267,329
911.339294,299
911.4552,328
911.571106,318
911.687073,317
911.802979,334
911.918823,324
912.034729,315
912.150635,311
912.266602,315
912.382446,310
912.498352,308
912.614197,315
912.730103,317
912.846008,319
792.44574,331
792.56488,371
792.68396,396
792.80304,376
792.92218,350
793.041199,313
793.160339,327
793.279419,349
793.398499,356
793.517578,336
793.636658,338
793.755737,359
793.874817,362
793.993896,353
794.112976,349
794.232056,348
794.351074,330
794.470215,334
794.589233,331
794.708313,327
794.827393,330
794.946411,341
795.065552,340
795.18457,338
795.303589,335
795.422668,340
795.541687,341
795.660767,337
795.779846,326
795.898865,329
796.017883,321
796.136963,326
796.255981,328
796.375061,337
796.49408,332
796.613037,331
796.732117,330
796.851135,332
796.970154,325
797.089233,329
797.208191,337
797.327271,311
797.446228,341
797.565186,332
797.684265,331
797.803223,320
797.922241,329
798.04126,339
798.160278,336
798.279297,328
798.398315,315
798.517273,331
798.636292,337
798.75531,318
798.874268,334
798.993286,329
799.112244,326
799.231323,341
799.350281,321
799.469238,314
799.588257,343
799.707153,305
799.826111,349
799.945129,317
800.064087,339
800.183044,323
800.302063,324
800.421021,340
800.539978,335
800.658936,331
800.777893,339
800.896912,327
801.015747,331
801.134705,331
801.253723,319
801.37262,337
801.491638,332
801.610535,340
801.729492,339
801.84845,322
801.967407,329
802.086243,343
802.205261,322
802.324158,339
802.443115,327
802.562073,333
802.680969,330
802.799927,349
802.918762,333
803.037659,333
803.156677,337
803.275574,328
803.39447,340
803.513428,318
803.632263,334
803.751221,334
803.870117,313
803.989014,335
804.107971,328
804.226746,327
804.345642,328
804.4646,342
804.583496,330
804.702393,347
804.821228,316
804.940125,330
805.059021,334
805.177917,332
805.296814,331
805.415649,330
805.534546,330
805.653442,331
805.772278,336
805.891113,325
806.01001,327
806.128906,336
806.247742,326
806.366577,337
806.485413,345
806.604309,340
806.723145,331
806.84198,334
806.960876,334
807.079712,336
807.198486,326
807.317383,343
807.436218,330
807.554993,334
807.673889,336
807.792725,324
807.91156,336
808.030396,351
808.14917,349
808.268005,331
808.386841,328
808.505676,319
808.624451,332
808.743286,322
808.862122,323
808.980896,336
809.099731,331
809.218506,335
809.337341,330
809.456116,343
809.57489,329
809.693726,328
809.8125,334
809.931274,322
810.050049,336
810.168884,332
810.287659,338
810.406372,338
810.525269,344
810.643982,335
810.762756,328
810.881531,343
811.000305,333
811.11908,321
811.237854,333
811.356567,326
811.475403,327
811.594116,322
811.71283,323
811.831604,333
811.950378,337
812.069153,325
812.187927,325
812.30658,334
812.425415,349
812.544128,334
812.662781,348
812.781616,336
812.900269,331
813.019043,341
813.137756,327
813.256531,332
813.375244,335
813.493896,329
813.612671,335
813.731384,331
813.850037,335
813.96875,327
814.087524,340
814.206238,341
814.324951,337
814.443604,345
814.562256,327
814.68103,344
814.799683,330
814.918335,321
815.037109,354
815.155762,329
815.274475,345
815.393188,330
815.511841,336
815.630554,340
815.749146,321
815.867859,343
815.986572,325
816.105164,338
816.223877,331
816.342529,320
816.461182,326
816.579895,346
816.698486,341
816.817139,346
816.935791,333
817.054504,319
817.173096,330
817.291748,329
817.4104,339
817.529053,331
817.647644,336
817.766235,326
817.884949,335
818.00354,346
818.122192,328
818.240845,332
818.359436,319
818.478088,314
818.59668,324
818.715271,328
818.833923,321
818.952515,325
819.071106,328
819.189758,331
819.30835,320
819.426941,321
819.545532,306
819.664124,327
819.782715,322
819.901306,311
820.019897,334
820.138489,314
820.25708,323
820.375671,333
820.494202,318
820.612732,317
820.731384,320
820.849915,309
820.968506,323
821.087097,322
821.205627,320
821.324158,328
821.442749,327
821.561279,315
821.679871,318
821.798401,337
821.916931,319
822.035461,324
822.154053,301
822.272583,333
822.391174,318
822.509583,316
822.628174,316
822.746704,324
822.865234,333
822.983765,320
823.102295,336
823.220825,324
823.339294,325
823.457825,328
823.576355,327
823.694824,308
823.813354,324
823.931885,322
824.050354,312
824.168884,322
824.287354,325
824.405823,319
824.524353,327
824.642822,321
824.761353,319
824.879822,324
824.998291,318
825.116699,327
825.235291,311
825.353699,306
825.472168,313
825.590637,321
825.709106,316
825.827576,308
825.946045,326
826.064453,321
826.182983,328
826.301392,331
826.4198,318
826.53833,320
826.656738,321
826.775208,333
826.893677,327
827.012024,324
827.130493,321
827.248962,313
827.36731,323
827.485779,319
827.604248,320
827.722595,313
827.841064,327
827.959412,327
828.077942,308
828.196289,329
828.314636,323
828.433105,321
828.551514,320
828.669861,314
828.78833,330
828.906677,329
829.025085,311
829.143433,314
829.261841,324
829.38031,322
829.498657,314
829.617004,328
829.735413,318
829.85376,325
829.972107,326
830.090515,328
830.208862,319
830.327209,317
830.445557,319
830.563904,318
830.682312,332
830.800659,318
830.919006,319
831.037354,307
831.155701,322
831.274048,329
831.392395,314
831.51062,316
831.629028,332
831.747314,325
831.865662,318
831.984009,318
832.102356,306
832.220642,321
832.338928,324
832.457275,308
832.575623,322
832.693909,316
832.812134,333
832.930481,300
833.048828,313
833.167114,327
833.2854,303
833.403687,321
833.521973,314
833.640259,317
833.758545,317
833.876831,322
833.995056,327
834.113281,310
834.231628,316
834.349915,330
834.468201,325
834.586426,308
834.704651,320
834.822998,322
834.941162,321
835.059448,306
835.177673,326
835.295959,313
835.414246,307
835.53241,319
835.650635,324
835.768921,319
835.887146,309
836.005371,325
836.123596,314
836.241821,314
836.360046,309
836.478271,310
836.596497,309
836.714722,318
836.832886,321
836.95105,315
837.069336,330
837.1875,334
837.305725,328
837.423889,320
837.542053,327
837.660339,321
837.778503,306
837.896667,321
838.014832,307
838.132996,315
838.25116,312
838.369385,316
838.487488,324
838.605713,314
838.723877,325
838.84198,335
838.960205,311
839.078308,313
839.196472,309
839.314636,325
839.4328,317
839.550964,318
839.669067,313
839.787231,320
839.905396,323
840.023499,317
840.141602,311
840.259766,313
840.377869,315
840.495972,329
840.614136,315
840.732239,324
840.850342,323
840.968445,324
841.086548,317
841.204651,326
841.322754,319
841.440918,304
841.55896,325
841.677002,328
841.795166,325
841.913208,317
842.031311,328
842.149353,330
842.267456,314
842.385498,313
842.503601,322
842.621643,327
842.739746,309
842.857788,319
842.97583,327
843.093933,327
843.211975,313
843.330017,327
843.44812,321
843.566101,321
843.684204,304
843.802246,317
843.920227,314
844.038269,315
844.156311,304
844.274292,323
844.392395,308
844.510376,315
844.628357,315
844.74646,322
844.864441,329
844.982422,337
845.100403,319
845.218384,312
845.336426,319
845.454468,324
845.572449,318
845.69043,329
845.808411,305
845.926453,332
846.044373,312
846.162354,324
846.280396,307
846.398315,326
846.516296,330
846.634216,321
846.752197,329
846.870178,307
846.988098,322
847.106079,313
847.22406,308
847.34198,322
847.4599,330
847.577881,327
847.695801,319
847.813782,323
847.931641,322
848.049561,311
848.167603,309
848.285461,315
848.403381,318
848.521362,327
848.639221,306
848.75708,315
848.875,303
848.99292,316
849.110901,326
849.22876,311
849.34668,321
849.464539,308
849.582458,330
849.700317,323
849.818176,313
849.936096,316
850.053955,308
850.171875,318
850.289673,316
850.407593,311
850.525452,314
850.643311,327
850.761169,320
850.878967,320
850.996887,318
851.114746,325
851.232544,314
851.350403,325
851.468262,323
851.58606,310
851.703979,316
851.821777,334
851.939636,327
852.057434,310
852.175232,313
852.293091,316
852.410889,313
852.528687,326
852.646545,302
852.764343,313
852.88208,324
852.999939,317
853.117676,317
853.235535,316
853.353271,309
853.471069,321
853.588928,325
853.706604,325
853.824402,327
853.9422,327
854.059998,325
854.177734,336
854.295532,328
854.413269,321
854.531006,305
854.648804,335
854.766541,323
854.884277,317
855.002014,312
855.119751,314
855.237549,311
855.355225,314
855.473022,315
855.590698,318
855.708435,307
855.826172,320
855.943848,307
856.061646,323
856.179321,321
856.296997,328
856.414795,319
856.53241,320
856.650085,322
856.767822,307
856.885559,311
857.003174,319
857.120911,333
857.238586,333
857.356201,313
857.473938,322
857.591614,324
857.709351,330
857.826965,329
857.944641,335
858.062317,308
858.179993,318
858.297668,318
858.415283,314
858.532959,314
858.650574,325
858.768188,330
858.885803,320
859.003479,316
859.121094,309
859.23877,328
859.356384,316
859.473999,317
859.591675,312
859.709229,313
859.826843,327
859.944458,310
860.062012,323
860.179626,310
860.297302,323
860.414856,320
860.532471,315
860.650024,313
860.767639,333
860.885193,323
861.002808,311
861.120361,315
861.237976,325
861.35553,318
861.473022,318
861.590698,318
861.708191,320
861.825745,329
861.943298,324
862.060852,323
862.178406,313
862.295959,323
862.413513,315
862.531006,320
862.64856,310
862.766113,317
862.883667,315
863.00116,319
863.118713,317
863.236206,322
863.353699,315
863.471252,310
863.588745,306
863.706177,317
863.82373,334
863.941162,304
864.058716,327
864.176208,297
864.29364,331
864.411194,313
864.528687,326
864.646118,321
864.763611,317
864.881042,309
864.998535,325
865.116028,316
865.233459,321
865.350891,315
865.468384,330
865.585754,307
865.703308,309
865.820679,307
865.938171,317
866.055542,318
866.173035,319
866.290466,306
866.407837,321
866.52533,321
866.6427,316
866.760071,316
866.877563,311
866.994934,323
867.112305,313
867.229736,303
867.347107,323
867.464539,322
867.58197,318
867.699341,314
867.81665,318
867.934082,316
868.051453,313
868.168823,317
868.286194,325
868.403564,328
868.520935,315
868.638306,324
868.755676,319
868.872986,317
868.990295,317
869.107727,317
869.225037,324
869.342346,324
869.459717,317
869.577026,338
869.694336,330
869.811707,317
869.929016,329
870.046326,314
870.163635,312
870.280945,307
870.398254,309
870.515564,314
870.632812,322
870.750183,327
870.867432,315
870.984741,314
871.102051,329
871.219299,311
871.336609,315
871.453918,313
871.571106,325
871.688416,304
871.805664,328
871.922852,329
872.040222,316
872.157471,316
872.274719,309
872.391968,309
872.509155,321
872.626465,334
872.743652,327
872.860962,323
872.978149,325
873.095337,308
873.212646,325
873.329834,311
873.44696,320
873.564209,316
873.681396,317
873.798645,305
873.915894,314
874.03302,326
874.150208,312
874.267456,325
874.384583,316
874.501831,306
874.618958,327
874.736145,315
874.853333,326
874.970459,314
875.087646,317
875.204834,309
875.32196,313
875.439148,315
875.556274,316
875.673401,312
875.790527,325
875.907715,328
876.024841,323
876.141968,316
876.259094,307
876.376282,306
876.493347,324
876.610474,316
876.7276,327
876.844727,311
876.961853,319
877.078918,329
877.195984,325
877.313171,321
877.430237,320
877.547302,318
877.664368,302
877.781433,319
877.898499,305
878.015625,322
878.13269,317
878.249695,309
878.366821,314
878.483887,318
878.600952,321
878.717957,316
878.834961,311
878.952087,322
879.069092,311
879.186157,308
879.303162,315
879.420227,318
879.537231,317
879.654236,323
879.77124,314
879.888306,311
880.005249,315
880.122314,329
880.239319,315
880.356323,315
880.473328,331
880.590271,324
880.707275,337
880.824341,311
880.941284,317
881.058228,310
881.175232,309
881.292236,318
881.40918,316
881.526123,317
881.643066,318
881.760071,314
881.877014,329
881.993958,331
882.11084,317
882.227783,319
882.344727,310
882.46167,318
882.578613,327
882.695618,315
882.812439,332
882.929382,307
883.046326,323
883.163208,322
883.280151,316
883.397034,319
883.513916,319
883.630798,324
883.747742,308
883.864563,315
883.981506,321
884.098389,314
884.21521,321
884.332153,311
884.448975,319
884.565796,312
884.682678,316
884.7995,315
884.916443,324
885.033264,293
885.150085,329
885.266968,304
885.383789,333
885.500671,328
885.617493,312
885.734314,331
885.851196,317
885.967896,319
886.084717,316
886.201599,314
886.318359,322
886.435181,307
886.552002,317
886.668762,328
886.785645,315
886.902344,318
887.019165,309
887.135925,332
887.252747,319
887.369446,322
887.486267,328
887.603027,329
887.719788,316
887.836548,318
887.953247,318
888.070068,315
888.186829,320
888.303528,332
888.420288,307
888.536987,312
888.653687,319
888.770447,307
888.887146,315
889.003967,312
889.120667,312
889.237305,314
889.354065,313
889.470703,323
889.587463,307
889.704163,314
889.820862,323
889.937561,320
890.054199,327
890.170837,319
890.287598,307
890.404236,310
890.520874,308
890.637634,310
890.754211,319
890.87085,309
890.987549,310
891.104187,313
891.220886,318
891.337463,305
891.454102,314
891.57074,328
891.687378,317
891.804077,315
891.920654,310
892.037231,301
892.15387,322
892.270447,306
892.387085,324
892.503723,324
892.6203,319
892.736877,327
892.853516,301
892.970032,308
893.08667,330
893.203186,318
893.319763,323
893.43634,296
893.552917,323
893.669556,319
893.786011,301
893.902588,318
894.019165,320
894.135681,311
894.252197,334
894.368835,312
894.485291,323
894.601868,319
894.718384,316
894.8349,314
894.951355,309
895.067932,324
895.184448,318
895.300964,320
895.417419,316
895.533936,325
895.650452,326
895.766907,318
895.883423,321
895.999878,309
896.116333,327
896.232849,320
896.349304,315
896.465759,318
896.582214,322
896.698669,312
896.815125,320
896.931641,315
897.048035,321
897.164551,308
897.280884,318
897.397339,325
897.513794,316
897.630249,318
897.746582,310
897.863098,296
897.979431,328
898.095886,308
898.212341,316
898.328674,315
898.445129,319
898.561462,311
898.677795,306
898.794312,323
898.910645,307
899.026978,319
899.143433,322
899.259766,316
899.37616,319
899.492493,321
899.608765,314
899.725159,321
899.841553,325
899.957947,306
900.07428,335
900.190552,312
900.306946,318
900.423157,325
900.53949,314
900.655884,309
900.772156,330
900.888489,322
901.004822,309
901.121033,326
901.237366,327
901.353699,312
901.46991,314
901.586304,313
901.702515,332
901.818787,309
901.93512,327
902.051331,322
902.167603,323
902.283875,325
902.400085,309
902.516418,315
902.632629,317
902.74884,311
902.865112,324
902.981384,337
903.097595,326
903.213867,322
903.330017,309
903.446289,310
903.5625,319
903.67865,321
903.794922,339
903.911072,326
904.027344,330
904.143494,321
904.259705,317
904.375916,307
904.492065,329
904.608215,324
904.724426,327
904.840576,318
904.956726,325
905.072876,318
905.189087,331
905.305176,306
905.421387,311
905.537537,312
905.653687,318
905.769775,317
905.885925,319
906.002014,317
906.118164,319
906.234314,321
906.350403,312
906.466492,315
906.582642,315
906.69873,314
906.814758,315
906.930908,313
907.046936,322
907.163086,308
907.279175,324
907.395264,312
907.511353,333
907.62738,317
907.743408,317
907.859497,316
907.975525,311
908.091553,317
908.207703,322
908.32373,315
908.439758,323
908.555786,316
908.671814,327
908.787842,313
908.90387,335
909.019775,326
909.135864,310
909.251892,315
909.367859,314
909.483826,321
909.599854,314
909.715881,323
909.831848,314
909.947815,308
910.063782,322
910.179749,332
910.295776,325
910.411743,320
910.527649,313
910.643616,317
910.759583,316
910.875488,301
910.991455,298
911.107361,304
911.223267,313
911.339294,325
911.4552,319
911.571106,308
911.687073,313
911.802979,309
911.918823,314
912.034729,306
912.150635,328
912.266602,322
912.382446,329
912.498352,325
912.614197,326
912.730103,326
912.846008,325
792.44574,326
792.56488,358
792.68396,413
792.80304,379
792.92218,343
793.041199,339
793.160339,320
793.279419,343
793.398499,335
793.517578,312
793.636658,323
793.755737,340
793.874817,352
793.993896,350
794.112976,347
794.232056,323
794.351074,342
794.470215,336
794.589233,336
794.708313,314
794.827393,329
794.946411,329
795.065552,334
795.18457,340
795.303589,330
795.422668,340
795.541687,334
795.660767,342
795.779846,331
795.898865,334
796.017883,330
796.136963,338
796.255981,330
796.375061,333
796.49408,333
796.613037,351
796.732117,339
796.851135,336
796.970154,332
797.089233,327
797.208191,341
797.327271,327
797.446228,339
797.565186,337
797.684265,337
797.803223,331
797.922241,323
798.04126,347
798.160278,336
798.279297,313
798.398315,337
798.517273,330
798.636292,343
798.75531,331
798.874268,334
798.993286,340
799.112244,329
799.231323,325
799.350281,332
799.469238,328
799.588257,328
799.707153,327
799.826111,333
799.945129,320
800.064087,333
800.183044,334
800.302063,316
800.421021,322
800.539978,324
800.658936,328
800.777893,329
800.896912,328
801.015747,327
801.134705,337
801.253723,330
801.37262,328
801.491638,341
801.610535,328
801.729492,333
801.84845,335
801.967407,339
802.086243,336
802.205261,332
802.324158,333
802.443115,328
802.562073,317
802.680969,334
802.799927,314
802.918762,341
803.037659,319
803.156677,344
803.275574,335
803.39447,337
803.513428,327
803.632263,343
803.751221,329
803.870117,332
803.989014,329
804.107971,331
804.226746,327
804.345642,330
804.4646,322
804.583496,331
804.702393,330
804.821228,347
804.940125,333
805.059021,337
805.177917,344
805.296814,326
805.415649,345
805.534546,328
805.653442,330
805.772278,338
805.891113,333
806.01001,326
806.128906,334
806.247742,317
806.366577,333
806.485413,327
806.604309,318
806.723145,326
806.84198,323
806.960876,332
807.079712,339
807.198486,314
807.317383,323
807.436218,337
807.554993,332
807.673889,320
807.792725,323
807.91156,330
808.030396,331
808.14917,342
808.268005,333
808.386841,335
808.505676,339
808.624451,325
808.743286,326
808.862122,335
808.980896,327
809.099731,323
809.218506,310
809.337341,343
809.456116,332
809.57489,325
809.693726,328
809.8125,335
809.931274,337
810.050049,330
810.168884,329
810.287659,354
810.406372,325
810.525269,340
810.643982,325
810.762756,325
810.881531,324
811.000305,339
811.11908,329
811.237854,319
811.356567,335
811.475403,342
811.594116,333
811.71283,337
811.831604,348
811.950378,330
812.069153,342
812.187927,329
812.30658,340
812.425415,328
812.544128,326
812.662781,338
812.781616,322
812.900269,328
813.019043,336
813.137756,341
813.256531,334
813.375244,332
813.493896,329
813.612671,339
813.731384,318
813.850037,339
813.96875,329
814.087524,322
814.206238,332
814.324951,332
814.443604,321
814.562256,323
814.68103,346
814.799683,338
814.918335,348
815.037109,332
815.155762,334
815.274475,335
815.393188,342
815.511841,330
815.630554,332
815.749146,332
815.867859,323
815.986572,314
816.105164,328
816.223877,329
816.342529,325
816.461182,340
816.579895,325
816.698486,336
816.817139,315
816.935791,333
817.054504,322
817.173096,342
817.291748,340
817.4104,328
817.529053,335
817.647644,323
817.766235,331
817.884949,338
818.00354,331
818.122192,322
818.240845,323
818.359436,309
818.478088,327
818.59668,325
818.715271,316
818.833923,334
818.952515,334
819.071106,320
819.189758,336
819.30835,338
819.426941,316
819.545532,307
819.664124,330
819.782715,316
819.901306,315
820.019897,340
820.138489,323
820.25708,326
820.375671,328
820.494202,317
820.612732,312
820.731384,322
820.849915,324
820.968506,320
821.087097,303
821.205627,320
821.324158,326
821.442749,315
821.561279,316
821.679871,315
821.798401,309
821.916931,318
822.035461,322
822.154053,322
822.272583,312
822.391174,322
822.509583,317
822.628174,317
822.746704,315
822.865234,315
822.983765,311
823.102295,325
823.220825,318
823.339294,319
823.457825,319
823.576355,329
823.694824,320
823.813354,327
823.931885,319
824.050354,325
824.168884,322
824.287354,308
824.405823,324
824.524353,317
824.642822,311
824.761353,324
824.879822,323
824.998291,311
825.116699,316
825.235291,321
825.353699,336
825.472168,329
825.590637,314
825.709106,319
825.827576,331
825.946045,329
826.064453,318
826.182983,316
826.301392,312
826.4198,327
826.53833,320
826.656738,324
826.775208,326
826.893677,320
827.012024,310
827.130493,310
827.248962,322
827.36731,313
827.485779,317
827.604248,310
827.722595,325
827.841064,316
827.959412,303
828.077942,317
828.196289,318
828.314636,324
828.433105,324
828.551514,317
828.669861,300
828.78833,310
828.906677,314
829.025085,319
829.143433,301
829.261841,312
829.38031,331
829.498657,318
829.617004,314
829.735413,338
829.85376,312
829.972107,318
830.090515,305
830.208862,317
830.327209,301
830.445557,317
830.563904,315
830.682312,307
830.800659,308
830.919006,303
831.037354,322
831.155701,318
831.274048,316
831.392395,314
831.51062,313
831.629028,314
831.747314,299
831.865662,315
831.984009,326
832.102356,310
832.220642,325
832.338928,325
832.457275,324
832.575623,316
832.693909,307
832.812134,311
832.930481,329
833.048828,317
833.167114,322
833.2854,322
833.403687,318
833.521973,330
833.640259,307
833.758545,331
833.876831,311
833.995056,316
834.113281,309
834.231628,337
834.349915,304
834.468201,322
834.586426,308
834.704651,317
834.822998,317
834.941162,315
835.059448,313
835.177673,313
835.295959,317
835.414246,314
835.53241,316
835.650635,313
835.768921,326
835.887146,327
836.005371,312
836.123596,318
836.241821,319
836.360046,314
836.478271,323
836.596497,332
836.714722,316
836.832886,328
836.95105,317
837.069336,315
837.1875,310
837.305725,322
837.423889,315
837.542053,321
837.660339,321
837.778503,308
837.896667,317
838.014832,316
838.132996,302
838.25116,328
838.369385,317
838.487488,331
838.605713,309
838.723877,320
838.84198,322
838.960205,334
839.078308,316
839.196472,308
839.314636,327
839.4328,323
839.550964,319
839.669067,329
839.787231,319
839.905396,306
840.023499,318
840.141602,330
840.259766,305
840.377869,317
840.495972,319
840.614136,326
840.732239,305
840.850342,320
840.968445,323
841.086548,314
841.204651,310
841.322754,316
841.440918,315
841.55896,317
841.677002,324
841.795166,319
841.913208,333
842.031311,319
842.149353,310
842.267456,321
842.385498,308
842.503601,313
842.621643,312
842.739746,315
842.857788,325
842.97583,310
843.093933,315
843.211975,319
843.330017,309
843.44812,320
843.566101,311
843.684204,324
843.802246,309
843.920227,319
844.038269,298
844.156311,303
844.274292,299
844.392395,316
844.510376,309
844.628357,329
844.74646,326
844.864441,332
844.982422,328
845.100403,323
845.218384,315
845.336426,324
845.454468,320
845.572449,318
845.69043,306
845.808411,308
845.926453,320
846.044373,308
846.162354,320
846.280396,331
846.398315,312
846.516296,334
846.634216,314
846.752197,324
846.870178,306
846.988098,326
847.106079,319
847.22406,317
847.34198,320
847.4599,314
847.577881,313
847.695801,323
847.813782,325
847.931641,321
848.049561,303
848.167603,322
848.285461,310
848.403381,327
848.521362,307
848.639221,310
848.75708,314
848.875,316
848.99292,311
849.110901,314
849.22876,314
849.34668,325
849.464539,322
849.582458,332
849.700317,314
849.818176,306
849.936096,318
850.053955,315
850.171875,317
850.289673,330
850.407593,307
850.525452,335
850.643311,328
850.761169,308
850.878967,317
850.996887,327
851.114746,298
851.232544,313
851.350403,312
851.468262,308
851.58606,313
851.703979,315
851.821777,326
851.939636,316
852.057434,326
852.175232,306
852.293091,325
852.410889,320
852.528687,322
852.646545,326
852.764343,314
852.88208,318
852.999939,316
853.117676,327
853.235535,323
853.353271,313
853.471069,321
853.588928,296
853.706604,325
853.824402,321
853.9422,313
854.059998,301
854.177734,315
854.295532,328
854.413269,316
854.531006,319
854.648804,299
854.766541,318
854.884277,322
855.002014,310
855.119751,321
855.237549,328
855.355225,308
855.473022,322
855.590698,312
855.708435,314
855.826172,303
855.943848,319
856.061646,308
856.179321,322
856.296997,317
856.414795,312
856.53241,318
856.650085,318
856.767822,316
856.885559,306
857.003174,318
857.120911,325
857.238586,317
857.356201,310
857.473938,314
857.591614,314
857.709351,317
857.826965,313
857.944641,310
858.062317,315
858.179993,321
858.297668,322
858.415283,314
858.532959,322
858.650574,326
858.768188,311
858.885803,321
859.003479,317
859.121094,311
859.23877,314
859.356384,306
859.473999,316
859.591675,322
859.709229,330
859.826843,312
859.944458,317
860.062012,310
860.179626,324
860.297302,324
860.414856,324
860.532471,329
860.650024,320
860.767639,315
860.885193,316
861.002808,306
861.120361,317
861.237976,315
861.35553,334
861.473022,310
861.590698,317
861.708191,305
861.825745,310
861.943298,311
862.060852,319
862.178406,311
862.295959,321
862.413513,313
862.531006,326
862.64856,313
862.766113,318
862.883667,306
863.00116,330
863.118713,323
863.236206,319
863.353699,310
863.471252,330
863.588745,315
863.706177,314
863.82373,310
863.941162,320
864.058716,307
864.176208,315
864.29364,313
864.411194,318
864.528687,320
864.646118,323
864.763611,305
864.881042,314
864.998535,305
865.116028,312
865.233459,312
865.350891,313
865.468384,315
865.585754,331
865.703308,312
865.820679,318
865.938171,314
866.055542,333
866.173035,308
866.290466,312
866.407837,314
866.52533,318
866.6427,315
866.760071,324
866.877563,304
866.994934,332
867.112305,306
867.229736,317
867.347107,315
867.464539,330
867.58197,320
867.699341,317
867.81665,317
867.934082,318
868.051453,317
868.168823,331
868.286194,305
868.403564,326
868.520935,316
868.638306,311
868.755676,316
868.872986,323
868.990295,314
869.107727,300
869.225037,316
869.342346,319
869.459717,317
869.577026,325
869.694336,316
869.811707,319
869.929016,321
870.046326,311
870.163635,316
870.280945,329
870.398254,298
870.515564,330
870.632812,320
870.750183,328
870.867432,313
870.984741,325
871.102051,305
871.219299,312
871.336609,311
871.453918,328
871.571106,304
871.688416,330
871.805664,299
871.922852,317
872.040222,319
872.157471,325
872.274719,310
872.391968,324
872.509155,326
872.626465,316
872.743652,307
872.860962,320
872.978149,310
873.095337,319
873.212646,318
873.329834,319
873.44696,315
873.564209,334
873.681396,309
873.798645,323
873.915894,306
874.03302,319
874.150208,321
874.267456,322
874.384583,318
874.501831,321
874.618958,324
874.736145,307
874.853333,336
874.970459,319
875.087646,315
875.204834,315
875.32196,314
875.439148,336
875.556274,312
875.673401,317
875.790527,315
875.907715,320
876.024841,320
876.141968,324
876.259094,334
876.376282,313
876.493347,306
876.610474,310
876.7276,306
876.844727,314
876.961853,303
877.078918,317
877.195984,317
877.313171,322
877.430237,320
877.547302,320
877.664368,314
877.781433,323
877.898499,306
878.015625,320
878.13269,302
878.249695,316
878.366821,308
878.483887,326
878.600952,326
878.717957,330
878.834961,304
878.952087,321
879.069092,326
879.186157,303
879.303162,317
879.420227,324
879.537231,318
879.654236,318
879.77124,304
879.888306,314
880.005249,322
880.122314,314
880.239319,311
880.356323,317
880.473328,322
880.590271,331
880.707275,310
880.824341,323
880.941284,315
881.058228,318
881.175232,309
881.292236,290
881.40918,315
881.526123,318
881.643066,321
881.760071,309
881.877014,312
881.993958,330
882.11084,316
882.227783,325
882.344727,320
882.46167,323
882.578613,306
882.695618,312
882.812439,315
882.929382,317
883.046326,329
883.163208,324
883.280151,314
883.397034,335
883.513916,308
883.630798,324
883.747742,328
883.864563,326
883.981506,308
884.098389,310
884.21521,327
884.332153,316
884.448975,307
884.565796,317
884.682678,324
884.7995,326
884.916443,309
885.033264,319
885.150085,321
885.266968,309
885.383789,321
885.500671,322
885.617493,315
885.734314,318
885.851196,318
885.967896,326
886.084717,328
886.201599,323
886.318359,316
886.435181,321
886.552002,319
886.668762,315
886.785645,317
886.902344,330
887.019165,318
887.135925,323
887.252747,304
887.369446,330
887.486267,311
887.603027,317
887.719788,314
887.836548,317
887.953247,313
888.070068,331
888.186829,316
888.303528,320
888.420288,322
888.536987,321
888.653687,320
888.770447,318
888.887146,314
889.003967,303
889.120667,324
889.237305,311
889.354065,302
889.470703,315
889.587463,315
889.704163,310
889.820862,316
889.937561,312
890.054199,317
890.170837,314
890.287598,308
890.404236,312
890.520874,318
890.637634,315
890.754211,310
890.87085,312
890.987549,307
891.104187,333
891.220886,314
891.337463,314
891.454102,318
891.57074,320
891.687378,309
891.804077,319
891.920654,313
892.037231,319
892.15387,316
892.270447,319
892.387085,324
892.503723,317
892.6203,314
892.736877,322
892.853516,298
892.970032,317
893.08667,291
893.203186,325
893.319763,310
893.43634,317
893.552917,315
893.669556,311
893.786011,313
893.902588,325
894.019165,311
894.135681,320
894.252197,311
894.368835,322
894.485291,313
894.601868,327
894.718384,318
894.8349,314
894.951355,319
895.067932,319
895.184448,301
895.300964,313
895.417419,311
895.533936,313
895.650452,303
895.766907,308
895.883423,321
895.999878,321
896.116333,319
896.232849,318
896.349304,296
896.465759,317
896.582214,303
896.698669,319
896.815125,320
896.931641,307
897.048035,318
897.164551,320
897.280884,305
897.397339,322
897.513794,296
897.630249,332
897.746582,318
897.863098,319
897.979431,311
898.095886,321
898.212341,316
898.328674,320
898.445129,323
898.561462,307
898.677795,316
898.794312,325
898.910645,308
899.026978,325
899.143433,313
899.259766,327
899.37616,316
899.492493,317
899.608765,316
899.725159,327
899.841553,308
899.957947,317
900.07428,318
900.190552,313
900.306946,316
900.423157,313
900.53949,324
900.655884,316
900.772156,311
900.888489,317
901.004822,315
901.121033,323
901.237366,317
901.353699,320
901.46991,316
901.586304,308
901.702515,308
901.818787,327
901.93512,304
902.051331,323
902.167603,308
902.283875,327
902.400085,313
902.516418,316
902.632629,311
902.74884,329
902.865112,315
902.981384,321
903.097595,329
903.213867,316
903.330017,315
903.446289,323
903.5625,318
903.67865,319
903.794922,312
903.911072,318
904.027344,313
904.143494,314
904.259705,314
904.375916,320
904.492065,315
904.608215,313
904.724426,319
904.840576,316
904.956726,307
905.072876,305
905.189087,312
905.305176,325
905.421387,314
905.537537,329
905.653687,324
905.769775,318
905.885925,313
906.002014,321
906.118164,315
906.234314,320
906.350403,321
906.466492,317
906.582642,307
906.69873,321
906.814758,317
906.930908,329
907.046936,320
907.163086,312
907.279175,301
907.395264,317
907.511353,311
907.62738,309
907.743408,327
907.859497,322
907.975525,312
908.091553,310
908.207703,314
908.32373,325
908.439758,319
908.555786,333
908.671814,316
908.787842,330
908.90387,327
909.019775,309
909.135864,309
909.251892,316
909.367859,309
909.483826,321
909.599854,313
909.715881,321
909.831848,319
909.947815,308
910.063782,314
910.179749,323
910.295776,324
910.411743,309
910.527649,319
910.643616,322
910.759583,320
910.875488,335
910.991455,315
911.107361,323
911.223267,304
911.339294,313
911.4552,315
911.571106,327
911.687073,327
911.802979,317
911.918823,305
912.034729,315
912.150635,310
912.266602,316
912.382446,306
912.498352,323
912.614197,314
912.730103,322
912.846008,299
