792.44574,367
792.56488,397
792.68396,447
792.80304,422
792.92218,381
793.041199,365
793.160339,360
793.279419,364
793.398499,367
793.517578,357
793.636658,356
793.755737,370
793.874817,367
793.993896,376
794.112976,360
794.232056,357
794.351074,346
794.470215,359
794.589233,361
794.708313,350
794.827393,348
794.946411,362
795.065552,353
795.18457,352
795.303589,364
795.422668,349
795.541687,363
795.660767,343
795.779846,351
795.898865,350
796.017883,345
796.136963,343
796.255981,361
796.375061,334
796.49408,349
796.613037,351
796.732117,346
796.851135,338
796.970154,356
797.089233,337
797.208191,335
797.327271,347
797.446228,340
797.565186,348
797.684265,338
797.803223,337
797.922241,340
798.04126,338
798.160278,335
798.279297,330
798.398315,342
798.517273,325
798.636292,345
798.75531,334
798.874268,335
798.993286,338
799.112244,339
799.231323,351
799.350281,331
799.469238,332
799.588257,327
799.707153,343
799.826111,337
799.945129,342
800.064087,329
800.183044,334
800.302063,332
800.421021,339
800.539978,323
800.658936,339
800.777893,325
800.896912,333
801.015747,324
801.134705,344
801.253723,331
801.37262,338
801.491638,342
801.610535,337
801.729492,335
801.84845,333
801.967407,336
802.086243,331
802.205261,320
802.324158,322
802.443115,335
802.562073,334
802.680969,327
802.799927,321
802.918762,326
803.037659,327
803.156677,329
803.275574,332
803.39447,326
803.513428,330
803.632263,323
803.751221,329
803.870117,333
803.989014,338
804.107971,326
804.226746,329
804.345642,337
804.4646,325
804.583496,328
804.702393,334
804.821228,345
804.940125,332
805.059021,322
805.177917,328
805.296814,341
805.415649,328
805.534546,344
805.653442,335
805.772278,342
805.891113,327
806.01001,333
806.128906,322
806.247742,326
806.366577,326
806.485413,316
806.604309,321
806.723145,333
806.84198,326
806.960876,331
807.079712,326
807.198486,320
807.317383,345
807.436218,333
807.554993,329
807.673889,315
807.792725,333
807.91156,315
808.030396,322
808.14917,323
808.268005,320
808.386841,328
808.505676,332
808.624451,336
808.743286,322
808.862122,333
808.980896,319
809.099731,337
809.218506,332
809.337341,334
809.456116,327
809.57489,353
809.693726,330
809.8125,341
809.931274,331
810.050049,325
810.168884,318
810.287659,330
810.406372,323
810.525269,320
810.643982,331
810.762756,307
810.881531,332
811.000305,327
811.11908,327
811.237854,327
811.356567,332
811.475403,327
811.594116,327
811.71283,322
811.831604,322
811.950378,320
812.069153,328
812.187927,331
812.30658,316
812.425415,326
812.544128,332
812.662781,327
812.781616,334
812.900269,323
813.019043,331
813.137756,323
813.256531,331
813.375244,334
813.493896,320
813.612671,335
813.731384,329
813.850037,324
813.96875,327
814.087524,331
814.206238,310
814.324951,330
814.443604,343
814.562256,330
814.68103,315
814.799683,325
814.918335,330
815.037109,342
815.155762,315
815.274475,321
815.393188,328
815.511841,314
815.630554,324
815.749146,313
815.867859,342
815.986572,323
816.105164,319
816.223877,341
816.342529,307
816.461182,320
816.579895,330
816.698486,310
816.817139,313
816.935791,334
817.054504,320
817.173096,326
817.291748,316
817.4104,322
817.529053,318
817.647644,330
817.766235,324
817.884949,317
818.00354,317
818.122192,326
818.240845,317
818.359436,332
818.478088,324
818.59668,343
818.715271,322
818.833923,321
818.952515,324
819.071106,317
819.189758,323
819.30835,326
819.426941,333
819.545532,320
819.664124,327
819.782715,321
819.901306,317
820.019897,327
820.138489,319
820.25708,326
820.375671,321
820.494202,320
820.612732,330
820.731384,324
820.849915,315
820.968506,326
821.087097,327
821.205627,331
821.324158,319
821.442749,315
821.561279,311
821.679871,327
821.798401,324
821.916931,315
822.035461,322
822.154053,340
822.272583,323
822.391174,322
822.509583,334
822.628174,315
822.746704,332
822.865234,319
822.983765,294
823.102295,329
823.220825,319
823.339294,321
823.457825,315
823.576355,307
823.694824,309
823.813354,334
823.931885,337
824.050354,334
824.168884,316
824.287354,320
824.405823,328
824.524353,317
824.642822,329
824.761353,323
824.879822,323
824.998291,320
825.116699,316
825.235291,332
825.353699,325
825.472168,332
825.590637,331
825.709106,327
825.827576,324
825.946045,326
826.064453,318
826.182983,322
826.301392,325
826.4198,312
826.53833,331
826.656738,325
826.775208,321
826.893677,335
827.012024,316
827.130493,318
827.248962,328
827.36731,313
827.485779,305
827.604248,307
827.722595,317
827.841064,316
827.959412,323
828.077942,321
828.196289,317
828.314636,320
828.433105,320
828.551514,325
828.669861,316
828.78833,329
828.906677,333
829.025085,298
829.143433,323
829.261841,317
829.38031,328
829.498657,311
829.617004,329
829.735413,327
829.85376,310
829.972107,319
830.090515,328
830.208862,315
830.327209,330
830.445557,318
830.563904,330
830.682312,322
830.800659,320
830.919006,314
831.037354,323
831.155701,313
831.274048,320
831.392395,319
831.51062,330
831.629028,327
831.747314,332
831.865662,317
831.984009,311
832.102356,325
832.220642,327
832.338928,325
832.457275,313
832.575623,323
832.693909,322
832.812134,323
832.930481,318
833.048828,313
833.167114,334
833.2854,315
833.403687,316
833.521973,316
833.640259,320
833.758545,323
833.876831,321
833.995056,321
834.113281,328
834.231628,323
834.349915,345
834.468201,322
834.586426,311
834.704651,319
834.822998,318
834.941162,335
835.059448,315
835.177673,320
835.295959,321
835.414246,313
835.53241,337
835.650635,317
835.768921,327
835.887146,320
836.005371,325
836.123596,324
836.241821,329
836.360046,319
836.478271,314
836.596497,308
836.714722,331
836.832886,319
836.95105,327
837.069336,322
837.1875,313
837.305725,316
837.423889,334
837.542053,297
837.660339,324
837.778503,328
837.896667,321
838.014832,320
838.132996,339
838.25116,315
838.369385,329
838.487488,310
838.605713,330
838.723877,315
838.84198,322
838.960205,322
839.078308,327
839.196472,320
839.314636,316
839.4328,317
839.550964,322
839.669067,318
839.787231,327
839.905396,324
840.023499,320
840.141602,311
840.259766,339
840.377869,338
840.495972,318
840.614136,330
840.732239,326
840.850342,333
840.968445,324
841.086548,332
841.204651,332
841.322754,312
841.440918,323
841.55896,319
841.677002,325
841.795166,324
841.913208,317
842.031311,331
842.149353,320
842.267456,333
842.385498,338
842.503601,324
842.621643,339
842.739746,320
842.857788,318
842.97583,334
843.093933,311
843.211975,320
843.330017,320
843.44812,319
843.566101,325
843.684204,330
843.802246,318
843.920227,324
844.038269,329
844.156311,321
844.274292,314
844.392395,317
844.510376,330
844.628357,320
844.74646,339
844.864441,319
844.982422,325
845.100403,311
845.218384,309
845.336426,304
845.454468,325
845.572449,337
845.69043,319
845.808411,326
845.926453,321
846.044373,328
846.162354,328
846.280396,320
846.398315,329
846.516296,323
846.634216,333
846.752197,309
846.870178,325
846.988098,316
847.106079,316
847.22406,323
847.34198,320
847.4599,315
847.577881,326
847.695801,331
847.813782,316
847.931641,318
848.049561,341
848.167603,315
848.285461,313
848.403381,327
848.521362,312
848.639221,319
848.75708,333
848.875,328
848.99292,321
849.110901,342
849.22876,327
849.34668,328
849.464539,322
849.582458,321
849.700317,321
849.818176,327
849.936096,339
850.053955,310
850.171875,324
850.289673,317
850.407593,329
850.525452,314
850.643311,314
850.761169,324
850.878967,328
850.996887,319
851.114746,330
851.232544,325
851.350403,318
851.468262,318
851.58606,326
851.703979,318
851.821777,333
851.939636,319
852.057434,323
852.175232,315
852.293091,323
852.410889,335
852.528687,338
852.646545,328
852.764343,330
852.88208,316
852.999939,329
853.117676,324
853.235535,317
853.353271,311
853.471069,328
853.588928,330
853.706604,308
853.824402,318
853.9422,321
854.059998,312
854.177734,321
854.295532,322
854.413269,324
854.531006,327
854.648804,327
854.766541,322
854.884277,328
855.002014,328
855.119751,324
855.237549,314
855.355225,338
855.473022,324
855.590698,326
855.708435,314
855.826172,327
855.943848,317
856.061646,309
856.179321,317
856.296997,321
856.414795,327
856.53241,316
856.650085,331
856.767822,326
856.885559,306
857.003174,335
857.120911,331
857.238586,317
857.356201,320
857.473938,321
857.591614,321
857.709351,329
857.826965,309
857.944641,323
858.062317,333
858.179993,325
858.297668,313
858.415283,339
858.532959,336
858.650574,337
858.768188,318
858.885803,321
859.003479,317
859.121094,308
859.23877,332
859.356384,325
859.473999,325
859.591675,337
859.709229,327
859.826843,317
859.944458,323
860.062012,321
860.179626,323
860.297302,323
860.414856,331
860.532471,327
860.650024,331
860.767639,322
860.885193,309
861.002808,306
861.120361,329
861.237976,326
861.35553,312
861.473022,327
861.590698,312
861.708191,317
861.825745,333
861.943298,315
862.060852,343
862.178406,332
862.295959,311
862.413513,321
862.531006,311
862.64856,321
862.766113,312
862.883667,334
863.00116,311
863.118713,318
863.236206,324
863.353699,310
863.471252,306
863.588745,315
863.706177,315
863.82373,323
863.941162,325
864.058716,329
864.176208,322
864.29364,341
864.411194,332
864.528687,326
864.646118,323
864.763611,317
864.881042,318
864.998535,329
865.116028,316
865.233459,331
865.350891,312
865.468384,312
865.585754,310
865.703308,321
865.820679,315
865.938171,326
866.055542,325
866.173035,307
866.290466,318
866.407837,321
866.52533,322
866.6427,313
866.760071,314
866.877563,310
866.994934,322
867.112305,330
867.229736,316
867.347107,321
867.464539,320
867.58197,314
867.699341,311
867.81665,326
867.934082,323
868.051453,322
868.168823,334
868.286194,311
868.403564,302
868.520935,356
868.638306,318
868.755676,321
868.872986,311
868.990295,327
869.107727,325
869.225037,327
869.342346,326
869.459717,315
869.577026,311
869.694336,318
869.811707,313
869.929016,331
870.046326,330
870.163635,328
870.280945,322
870.398254,317
870.515564,330
870.632812,332
870.750183,327
870.867432,332
870.984741,322
871.102051,341
871.219299,317
871.336609,326
871.453918,336
871.571106,335
871.688416,317
871.805664,333
871.922852,321
872.040222,321
872.157471,342
872.274719,326
872.391968,312
872.509155,318
872.626465,318
872.743652,328
872.860962,319
872.978149,326
873.095337,315
873.212646,338
873.329834,335
873.44696,324
873.564209,320
873.681396,319
873.798645,315
873.915894,319
874.03302,313
874.150208,342
874.267456,342
874.384583,326
874.501831,323
874.618958,335
874.736145,338
874.853333,325
874.970459,337
875.087646,321
875.204834,325
875.32196,340
875.439148,314
875.556274,319
875.673401,322
875.790527,327
875.907715,324
876.024841,331
876.141968,325
876.259094,325
876.376282,321
876.493347,329
876.610474,330
876.7276,326
876.844727,310
876.961853,334
877.078918,323
877.195984,317
877.313171,329
877.430237,332
877.547302,327
877.664368,316
877.781433,310
877.898499,323
878.015625,321
878.13269,328
878.249695,324
878.366821,325
878.483887,318
878.600952,335
878.717957,319
878.834961,322
878.952087,310
879.069092,325
879.186157,321
879.303162,326
879.420227,323
879.537231,316
879.654236,308
879.77124,333
879.888306,320
880.005249,325
880.122314,315
880.239319,320
880.356323,311
880.473328,332
880.590271,315
880.707275,324
880.824341,316
880.941284,323
881.058228,319
881.175232,317
881.292236,313
881.40918,308
881.526123,310
881.643066,326
881.760071,316
881.877014,320
881.993958,316
882.11084,322
882.227783,314
882.344727,316
882.46167,317
882.578613,326
882.695618,314
882.812439,315
882.929382,319
883.046326,322
883.163208,319
883.280151,325
883.397034,332
883.513916,312
883.630798,329
883.747742,327
883.864563,320
883.981506,332
884.098389,323
884.21521,322
884.332153,343
884.448975,335
884.565796,327
884.682678,318
884.7995,326
884.916443,335
885.033264,317
885.150085,327
885.266968,323
885.383789,327
885.500671,324
885.617493,323
885.734314,323
885.851196,339
885.967896,330
886.084717,327
886.201599,331
886.318359,339
886.435181,327
886.552002,329
886.668762,314
886.785645,324
886.902344,346
887.019165,326
887.135925,319
887.252747,330
887.369446,320
887.486267,323
887.603027,327
887.719788,324
887.836548,330
887.953247,320
888.070068,329
888.186829,321
888.303528,317
888.420288,323
888.536987,318
888.653687,319
888.770447,316
888.887146,320
889.003967,332
889.120667,304
889.237305,327
889.354065,320
889.470703,312
889.587463,331
889.704163,315
889.820862,323
889.937561,323
890.054199,311
890.170837,306
890.287598,311
890.404236,326
890.520874,326
890.637634,324
890.754211,324
890.87085,305
890.987549,313
891.104187,321
891.220886,322
891.337463,316
891.454102,321
891.57074,316
891.687378,314
891.804077,322
891.920654,323
892.037231,307
892.15387,323
892.270447,321
892.387085,324
892.503723,328
892.6203,315
892.736877,318
892.853516,324
892.970032,313
893.08667,324
893.203186,323
893.319763,319
893.43634,324
893.552917,323
893.669556,319
893.786011,318
893.902588,329
894.019165,312
894.135681,310
894.252197,318
894.368835,317
894.485291,324
894.601868,319
894.718384,309
894.8349,315
894.951355,328
895.067932,319
895.184448,327
895.300964,306
895.417419,326
895.533936,321
895.650452,323
895.766907,318
895.883423,313
895.999878,309
896.116333,319
896.232849,312
896.349304,318
896.465759,321
896.582214,323
896.698669,313
896.815125,307
896.931641,319
897.048035,313
897.164551,327
897.280884,339
897.397339,321
897.513794,319
897.630249,321
897.746582,329
897.863098,313
897.979431,332
898.095886,313
898.212341,313
898.328674,325
898.445129,325
898.561462,308
898.677795,318
898.794312,308
898.910645,316
899.026978,298
899.143433,337
899.259766,310
899.37616,311
899.492493,320
899.608765,317
899.725159,314
899.841553,335
899.957947,311
900.07428,327
900.190552,323
900.306946,324
900.423157,318
900.53949,329
900.655884,311
900.772156,302
900.888489,312
901.004822,328
901.121033,314
901.237366,317
901.353699,315
901.46991,334
901.586304,329
901.702515,331
901.818787,323
901.93512,323
902.051331,327
902.167603,332
902.283875,315
902.400085,324
902.516418,321
902.632629,344
902.74884,322
902.865112,324
902.981384,328
903.097595,318
903.213867,315
903.330017,332
903.446289,317
903.5625,327
903.67865,308
903.794922,324
903.911072,326
904.027344,331
904.143494,322
904.259705,330
904.375916,323
904.492065,334
904.608215,318
904.724426,314
904.840576,309
904.956726,329
905.072876,320
905.189087,323
905.305176,307
905.421387,314
905.537537,324
905.653687,320
905.769775,310
905.885925,310
906.002014,326
906.118164,323
906.234314,299
906.350403,315
906.466492,321
906.582642,313
906.69873,322
906.814758,327
906.930908,323
907.046936,306
907.163086,312
907.279175,317
907.395264,302
907.511353,319
907.62738,307
907.743408,328
907.859497,323
907.975525,320
908.091553,308
908.207703,318
908.32373,317
908.439758,327
908.555786,327
908.671814,307
908.787842,323
908.90387,316
909.019775,309
909.135864,321
909.251892,316
909.367859,321
909.483826,324
909.599854,317
909.715881,308
909.831848,310
909.947815,309
910.063782,320
910.179749,318
910.295776,332
910.411743,313
910.527649,318
910.643616,317
910.759583,321
910.875488,308
910.991455,334
911.107361,320
911.223267,310
911.339294,326
911.4552,321
911.571106,318
911.687073,327
911.802979,328
911.918823,314
912.034729,318
912.150635,301
912.266602,315
912.382446,309
912.498352,326
912.614197,333
912.730103,317
912.846008,311
792.44574,370
792.56488,402
792.68396,449
792.80304,432
792.92218,361
793.041199,360
793.160339,369
793.279419,381
793.398499,357
793.517578,360
793.636658,351
793.755737,365
793.874817,375
793.993896,368
794.112976,357
794.232056,349
794.351074,347
794.470215,347
794.589233,355
794.708313,348
794.827393,371
794.946411,354
795.065552,352
795.18457,349
795.303589,348
795.422668,337
795.541687,349
795.660767,344
795.779846,344
795.898865,355
796.017883,362
796.136963,335
796.255981,348
796.375061,347
796.49408,345
796.613037,335
796.732117,353
796.851135,334
796.970154,335
797.089233,330
797.208191,333
797.327271,346
797.446228,339
797.565186,341
797.684265,334
797.803223,336
797.922241,327
798.04126,342
798.160278,319
798.279297,347
798.398315,334
798.517273,334
798.636292,333
798.75531,345
798.874268,331
798.993286,337
799.112244,330
799.231323,333
799.350281,320
799.469238,348
799.588257,334
799.707153,343
799.826111,337
799.945129,330
800.064087,338
800.183044,318
800.302063,340
800.421021,336
800.539978,340
800.658936,336
800.777893,337
800.896912,329
801.015747,314
801.134705,337
801.253723,322
801.37262,337
801.491638,331
801.610535,333
801.729492,330
801.84845,339
801.967407,341
802.086243,322
802.205261,337
802.324158,334
802.443115,330
802.562073,335
802.680969,329
802.799927,334
802.918762,312
803.037659,335
803.156677,340
803.275574,324
803.39447,332
803.513428,333
803.632263,317
803.751221,340
803.870117,322
803.989014,340
804.107971,335
804.226746,330
804.345642,320
804.4646,319
804.583496,319
804.702393,332
804.821228,328
804.940125,314
805.059021,323
805.177917,314
805.296814,326
805.415649,311
805.534546,335
805.653442,323
805.772278,331
805.891113,309
806.01001,335
806.128906,331
806.247742,333
806.366577,333
806.485413,321
806.604309,333
806.723145,326
806.84198,325
806.960876,338
807.079712,333
807.198486,327
807.317383,320
807.436218,318
807.554993,337
807.673889,329
807.792725,324
807.91156,334
808.030396,330
808.14917,335
808.268005,318
808.386841,333
808.505676,313
808.624451,316
808.743286,340
808.862122,324
808.980896,319
809.099731,331
809.218506,323
809.337341,331
809.456116,316
809.57489,319
809.693726,328
809.8125,327
809.931274,321
810.050049,324
810.168884,339
810.287659,326
810.406372,328
810.525269,331
810.643982,328
810.762756,318
810.881531,335
811.000305,338
811.11908,338
811.237854,323
811.356567,325
811.475403,321
811.594116,316
811.71283,336
811.831604,333
811.950378,324
812.069153,346
812.187927,324
812.30658,329
812.425415,326
812.544128,323
812.662781,329
812.781616,327
812.900269,326
813.019043,327
813.137756,327
813.256531,311
813.375244,326
813.493896,323
813.612671,321
813.731384,324
813.850037,323
813.96875,327
814.087524,319
814.206238,332
814.324951,322
814.443604,334
814.562256,325
814.68103,314
814.799683,329
814.918335,325
815.037109,321
815.155762,328
815.274475,322
815.393188,327
815.511841,319
815.630554,320
815.749146,313
815.867859,324
815.986572,316
816.105164,331
816.223877,308
816.342529,326
816.461182,326
816.579895,333
816.698486,326
816.817139,330
816.935791,317
817.054504,344
817.173096,322
817.291748,330
817.4104,319
817.529053,329
817.647644,324
817.766235,326
817.884949,333
818.00354,331
818.122192,324
818.240845,323
818.359436,316
818.478088,322
818.59668,325
818.715271,327
818.833923,321
818.952515,325
819.071106,309
819.189758,319
819.30835,311
819.426941,321
819.545532,312
819.664124,334
819.782715,319
819.901306,327
820.019897,330
820.138489,315
820.25708,314
820.375671,327
820.494202,331
820.612732,319
820.731384,332
820.849915,329
820.968506,325
821.087097,320
821.205627,321
821.324158,324
821.442749,339
821.561279,327
821.679871,319
821.798401,320
821.916931,331
822.035461,322
822.154053,318
822.272583,328
822.391174,303
822.509583,323
822.628174,333
822.746704,325
822.865234,331
822.983765,312
823.102295,323
823.220825,322
823.339294,316
823.457825,309
823.576355,326
823.694824,322
823.813354,314
823.931885,319
824.050354,331
824.168884,319
824.287354,317
824.405823,324
824.524353,325
824.642822,308
824.761353,319
824.879822,323
824.998291,327
825.116699,335
825.235291,306
825.353699,321
825.472168,316
825.590637,316
825.709106,328
825.827576,309
825.946045,318
826.064453,327
826.182983,313
826.301392,314
826.4198,324
826.53833,311
826.656738,309
826.775208,313
826.893677,319
827.012024,315
827.130493,321
827.248962,332
827.36731,317
827.485779,336
827.604248,319
827.722595,330
827.841064,323
827.959412,312
828.077942,314
828.196289,320
828.314636,334
828.433105,320
828.551514,323
828.669861,329
828.78833,326
828.906677,334
829.025085,315
829.143433,335
829.261841,304
829.38031,330
829.498657,329
829.617004,319
829.735413,320
829.85376,329
829.972107,312
830.090515,323
830.208862,324
830.327209,318
830.445557,325
830.563904,318
830.682312,316
830.800659,328
830.919006,327
831.037354,308
831.155701,316
831.274048,332
831.392395,321
831.51062,321
831.629028,324
831.747314,316
831.865662,321
831.984009,314
832.102356,311
832.220642,326
832.338928,317
832.457275,316
832.575623,311
832.693909,313
832.812134,322
832.930481,306
833.048828,328
833.167114,309
833.2854,322
833.403687,321
833.521973,314
833.640259,323
833.758545,319
833.876831,312
833.995056,327
834.113281,318
834.231628,321
834.349915,324
834.468201,313
834.586426,311
834.704651,315
834.822998,335
834.941162,318
835.059448,315
835.177673,321
835.295959,311
835.414246,317
835.53241,343
835.650635,319
835.768921,329
835.887146,315
836.005371,314
836.123596,313
836.241821,325
836.360046,314
836.478271,323
836.596497,322
836.714722,319
836.832886,319
836.95105,317
837.069336,321
837.1875,335
837.305725,305
837.423889,339
837.542053,320
837.660339,323
837.778503,326
837.896667,314
838.014832,323
838.132996,321
838.25116,331
838.369385,323
838.487488,315
838.605713,326
838.723877,320
838.84198,322
838.960205,308
839.078308,317
839.196472,330
839.314636,326
839.4328,312
839.550964,323
839.669067,307
839.787231,320
839.905396,329
840.023499,313
840.141602,313
840.259766,307
840.377869,336
840.495972,322
840.614136,310
840.732239,328
840.850342,314
840.968445,323
841.086548,326
841.204651,315
841.322754,336
841.440918,317
841.55896,318
841.677002,328
841.795166,315
841.913208,328
842.031311,328
842.149353,309
842.267456,323
842.385498,327
842.503601,323
842.621643,329
842.739746,325
842.857788,334
842.97583,323
843.093933,323
843.211975,339
843.330017,338
843.44812,321
843.566101,313
843.684204,327
843.802246,308
843.920227,329
844.038269,329
844.156311,320
844.274292,317
844.392395,322
844.510376,321
844.628357,327
844.74646,330
844.864441,328
844.982422,339
845.100403,319
845.218384,327
845.336426,321
845.454468,328
845.572449,322
845.69043,322
845.808411,320
845.926453,315
846.044373,326
846.162354,326
846.280396,316
846.398315,326
846.516296,318
846.634216,337
846.752197,327
846.870178,325
846.988098,329
847.106079,322
847.22406,322
847.34198,319
847.4599,327
847.577881,332
847.695801,326
847.813782,322
847.931641,306
848.049561,316
848.167603,328
848.285461,316
848.403381,320
848.521362,321
848.639221,327
848.75708,319
848.875,304
848.99292,296
849.110901,313
849.22876,325
849.34668,322
849.464539,323
849.582458,331
849.700317,340
849.818176,332
849.936096,321
850.053955,312
850.171875,327
850.289673,314
850.407593,330
850.525452,315
850.643311,331
850.761169,329
850.878967,320
850.996887,332
851.114746,329
851.232544,324
851.350403,323
851.468262,308
851.58606,324
851.703979,329
851.821777,321
851.939636,323
852.057434,329
852.175232,324
852.293091,334
852.410889,326
852.528687,315
852.646545,315
852.764343,340
852.88208,329
852.999939,329
853.117676,332
853.235535,328
853.353271,324
853.471069,328
853.588928,314
853.706604,320
853.824402,320
853.9422,327
854.059998,321
854.177734,319
854.295532,316
854.413269,322
854.531006,324
854.648804,322
854.766541,319
854.884277,342
855.002014,326
855.119751,328
855.237549,320
855.355225,316
855.473022,324
855.590698,334
855.708435,335
855.826172,324
855.943848,308
856.061646,316
856.179321,321
856.296997,338
856.414795,327
856.53241,323
856.650085,325
856.767822,336
856.885559,332
857.003174,327
857.120911,322
857.238586,326
857.356201,331
857.473938,334
857.591614,331
857.709351,341
857.826965,334
857.944641,319
858.062317,343
858.179993,324
858.297668,319
858.415283,337
858.532959,318
858.650574,320
858.768188,328
858.885803,327
859.003479,339
859.121094,326
859.23877,325
859.356384,332
859.473999,325
859.591675,321
859.709229,312
859.826843,319
859.944458,312
860.062012,323
860.179626,317
860.297302,322
860.414856,328
860.532471,312
860.650024,312
860.767639,310
860.885193,331
861.002808,331
861.120361,320
861.237976,314
861.35553,325
861.473022,327
861.590698,314
861.708191,332
861.825745,320
861.943298,320
862.060852,326
862.178406,308
862.295959,327
862.413513,320
862.531006,311
862.64856,319
862.766113,326
862.883667,326
863.00116,326
863.118713,319
863.236206,318
863.353699,326
863.471252,314
863.588745,326
863.706177,322
863.82373,316
863.941162,319
864.058716,313
864.176208,314
864.29364,330
864.411194,316
864.528687,322
864.646118,314
864.763611,310
864.881042,321
864.998535,339
865.116028,320
865.233459,309
865.350891,317
865.468384,311
865.585754,319
865.703308,322
865.820679,325
865.938171,307
866.055542,325
866.173035,319
866.290466,326
866.407837,335
866.52533,333
866.6427,312
866.760071,311
866.877563,320
866.994934,321
867.112305,321
867.229736,321
867.347107,322
867.464539,324
867.58197,323
867.699341,322
867.81665,327
867.934082,323
868.051453,332
868.168823,320
868.286194,320
868.403564,312
868.520935,318
868.638306,316
868.755676,321
868.872986,312
868.990295,326
869.107727,334
869.225037,322
869.342346,326
869.459717,328
869.577026,328
869.694336,327
869.811707,333
869.929016,310
870.046326,312
870.163635,319
870.280945,332
870.398254,335
870.515564,335
870.632812,328
870.750183,324
870.867432,320
870.984741,312
871.102051,332
871.219299,320
871.336609,318
871.453918,317
871.571106,327
871.688416,338
871.805664,331
871.922852,327
872.040222,329
872.157471,321
872.274719,323
872.391968,314
872.509155,345
872.626465,334
872.743652,327
872.860962,332
872.978149,326
873.095337,324
873.212646,313
873.329834,330
873.44696,339
873.564209,331
873.681396,326
873.798645,322
873.915894,326
874.03302,324
874.150208,313
874.267456,319
874.384583,331
874.501831,341
874.618958,326
874.736145,321
874.853333,335
874.970459,315
875.087646,340
875.204834,336
875.32196,336
875.439148,329
875.556274,313
875.673401,335
875.790527,343
875.907715,318
876.024841,327
876.141968,320
876.259094,334
876.376282,316
876.493347,329
876.610474,322
876.7276,333
876.844727,311
876.961853,330
877.078918,316
877.195984,325
877.313171,337
877.430237,337
877.547302,329
877.664368,326
877.781433,323
877.898499,322
878.015625,332
878.13269,322
878.249695,313
878.366821,334
878.483887,321
878.600952,323
878.717957,322
878.834961,320
878.952087,315
879.069092,314
879.186157,318
879.303162,318
879.420227,324
879.537231,338
879.654236,313
879.77124,325
879.888306,318
880.005249,327
880.122314,322
880.239319,334
880.356323,320
880.473328,328
880.590271,314
880.707275,303
880.824341,304
880.941284,311
881.058228,316
881.175232,316
881.292236,323
881.40918,327
881.526123,327
881.643066,327
881.760071,305
881.877014,327
881.993958,328
882.11084,325
882.227783,321
882.344727,323
882.46167,324
882.578613,320
882.695618,318
882.812439,317
882.929382,330
883.046326,334
883.163208,321
883.280151,336
883.397034,314
883.513916,326
883.630798,329
883.747742,315
883.864563,322
883.981506,330
884.098389,308
884.21521,317
884.332153,327
884.448975,315
884.565796,327
884.682678,328
884.7995,315
884.916443,322
885.033264,325
885.150085,331
885.266968,324
885.383789,338
885.500671,341
885.617493,336
885.734314,337
885.851196,336
885.967896,347
886.084717,316
886.201599,341
886.318359,323
886.435181,326
886.552002,334
886.668762,328
886.785645,333
886.902344,333
887.019165,331
887.135925,327
887.252747,318
887.369446,326
887.486267,341
887.603027,318
887.719788,319
887.836548,330
887.953247,331
888.070068,318
888.186829,329
888.303528,320
888.420288,330
888.536987,321
888.653687,312
888.770447,323
888.887146,326
889.003967,305
889.120667,310
889.237305,315
889.354065,312
889.470703,316
889.587463,324
889.704163,317
889.820862,316
889.937561,309
890.054199,323
890.170837,317
890.287598,312
890.404236,309
890.520874,323
890.637634,309
890.754211,315
890.87085,315
890.987549,323
891.104187,321
891.220886,312
891.337463,311
891.454102,315
891.57074,305
891.687378,325
891.804077,321
891.920654,327
892.037231,323
892.15387,323
892.270447,316
892.387085,322
892.503723,310
892.6203,314
892.736877,311
892.853516,315
892.970032,323
893.08667,310
893.203186,311
893.319763,333
893.43634,311
893.552917,323
893.669556,310
893.786011,324
893.902588,325
894.019165,322
894.135681,319
894.252197,322
894.368835,314
894.485291,325
894.601868,310
894.718384,328
894.8349,315
894.951355,317
895.067932,304
895.184448,328
895.300964,316
895.417419,319
895.533936,318
895.650452,312
895.766907,312
895.883423,332
895.999878,329
896.116333,324
896.232849,315
896.349304,311
896.465759,328
896.582214,313
896.698669,318
896.815125,318
896.931641,335
897.048035,329
897.164551,324
897.280884,311
897.397339,304
897.513794,312
897.630249,317
897.746582,315
897.863098,326
897.979431,314
898.095886,315
898.212341,328
898.328674,314
898.445129,323
898.561462,328
898.677795,320
898.794312,314
898.910645,335
899.026978,310
899.143433,320
899.259766,295
899.37616,335
899.492493,303
899.608765,330
899.725159,316
899.841553,319
899.957947,312
900.07428,322
900.190552,307
900.306946,338
900.423157,311
900.53949,330
900.655884,315
900.772156,330
900.888489,312
901.004822,316
901.121033,312
901.237366,314
901.353699,311
901.46991,332
901.586304,312
901.702515,320
901.818787,322
901.93512,327
902.051331,314
902.167603,323
902.283875,321
902.400085,331
902.516418,326
902.632629,312
902.74884,316
902.865112,310
902.981384,325
903.097595,326
903.213867,315
903.330017,335
903.446289,316
903.5625,325
903.67865,325
903.794922,320
903.911072,328
904.027344,322
904.143494,320
904.259705,334
904.375916,323
904.492065,323
904.608215,312
904.724426,322
904.840576,311
904.956726,315
905.072876,317
905.189087,324
905.305176,308
905.421387,329
905.537537,314
905.653687,314
905.769775,333
905.885925,320
906.002014,311
906.118164,339
906.234314,325
906.350403,317
906.466492,318
906.582642,346
906.69873,313
906.814758,324
906.930908,306
907.046936,310
907.163086,324
907.279175,324
907.395264,314
907.511353,328
907.62738,308
907.743408,316
907.859497,309
907.975525,315
908.091553,322
908.207703,324
908.32373,319
908.439758,319
908.555786,312
908.671814,313
908.787842,326
908.90387,322
909.019775,321
909.135864,308
909.251892,308
909.367859,316
909.483826,314
909.599854,330
909.715881,314
909.831848,323
909.947815,320
910.063782,313
910.179749,315
910.295776,321
910.411743,310
910.527649,328
910.643616,321
910.759583,317
910.875488,322
910.991455,326
911.107361,322
911.223267,320
911.339294,313
911.4552,328
911.571106,311
911.687073,313
911.802979,320
911.918823,310
912.034729,314
912.150635,323
912.266602,317
912.382446,320
912.498352,313
912.614197,329
912.730103,311
912.846008,328
792.44574,367
792.56488,398
792.68396,469
792.80304,437
792.92218,379
793.041199,371
793.160339,358
793.279419,371
793.398499,363
793.517578,336
793.636658,350
793.755737,363
793.874817,377
793.993896,383
794.112976,362
794.232056,353
794.351074,347
794.470215,349
794.589233,349
794.708313,355
794.827393,364
794.946411,341
795.065552,353
795.18457,357
795.303589,367
795.422668,349
795.541687,356
795.660767,341
795.779846,349
795.898865,346
796.017883,347
796.136963,336
796.255981,340
796.375061,357
796.49408,348
796.613037,352
796.732117,349
796.851135,350
796.970154,346
797.089233,342
797.208191,357
797.327271,342
797.446228,325
797.565186,332
797.684265,338
797.803223,337
797.922241,337
798.04126,334
798.160278,347
798.279297,334
798.398315,341
798.517273,348
798.636292,327
798.75531,340
798.874268,334
798.993286,329
799.112244,344
799.231323,322
799.350281,341
799.469238,338
799.588257,355
799.707153,331
799.826111,326
799.945129,336
800.064087,339
800.183044,339
800.302063,364
800.421021,324
800.539978,342
800.658936,337
800.777893,337
800.896912,341
801.015747,321
801.134705,323
801.253723,332
801.37262,336
801.491638,344
801.610535,324
801.729492,335
801.84845,330
801.967407,322
802.086243,328
802.205261,327
802.324158,331
802.443115,333
802.562073,337
802.680969,345
802.799927,323
802.918762,344
803.037659,330
803.156677,329
803.275574,322
803.39447,326
803.513428,330
803.632263,338
803.751221,343
803.870117,332
803.989014,326
804.107971,338
804.226746,333
804.345642,328
804.4646,329
804.583496,325
804.702393,339
804.821228,338
804.940125,321
805.059021,345
805.177917,314
805.296814,329
805.415649,335
805.534546,342
805.653442,327
805.772278,322
805.891113,339
806.01001,329
806.128906,333
806.247742,320
806.366577,329
806.485413,324
806.604309,337
806.723145,324
806.84198,323
806.960876,323
807.079712,327
807.198486,322
807.317383,327
807.436218,323
807.554993,322
807.673889,315
807.792725,318
807.91156,341
808.030396,323
808.14917,342
808.268005,320
808.386841,315
808.505676,317
808.624451,334
808.743286,317
808.862122,336
808.980896,317
809.099731,322
809.218506,332
809.337341,327
809.456116,332
809.57489,337
809.693726,323
809.8125,332
809.931274,334
810.050049,331
810.168884,319
810.287659,331
810.406372,324
810.525269,327
810.643982,319
810.762756,339
810.881531,316
811.000305,325
811.11908,322
811.237854,325
811.356567,322
811.475403,315
811.594116,334
811.71283,329
811.831604,320
811.950378,333
812.069153,321
812.187927,335
812.30658,318
812.425415,327
812.544128,335
812.662781,326
812.781616,322
812.900269,331
813.019043,347
813.137756,329
813.256531,326
813.375244,343
813.493896,328
813.612671,331
813.731384,311
813.850037,337
813.96875,311
814.087524,334
814.206238,318
814.324951,337
814.443604,314
814.562256,328
814.68103,319
814.799683,344
814.918335,319
815.037109,325
815.155762,323
815.274475,328
815.393188,338
815.511841,316
815.630554,322
815.749146,327
815.867859,330
815.986572,325
816.105164,331
816.223877,320
816.342529,333
816.461182,334
816.579895,330
816.698486,328
816.817139,298
816.935791,325
817.054504,329
817.173096,332
817.291748,318
817.4104,325
817.529053,332
817.647644,316
817.766235,326
817.884949,321
818.00354,306
818.122192,327
818.240845,328
818.359436,327
818.478088,321
818.59668,315
818.715271,321
818.833923,321
818.952515,332
819.071106,336
819.189758,315
819.30835,329
819.426941,324
819.545532,311
819.664124,300
819.782715,313
819.901306,328
820.019897,328
820.138489,330
820.25708,331
820.375671,335
820.494202,328
820.612732,320
820.731384,323
820.849915,327
820.968506,328
821.087097,313
821.205627,311
821.324158,332
821.442749,333
821.561279,317
821.679871,340
821.798401,318
821.916931,327
822.035461,321
822.154053,323
822.272583,316
822.391174,328
822.509583,314
822.628174,335
822.746704,324
822.865234,329
822.983765,321
823.102295,324
823.220825,314
823.339294,316
823.457825,315
823.576355,312
823.694824,315
823.813354,314
823.931885,325
824.050354,323
824.168884,319
824.287354,323
824.405823,324
824.524353,307
824.642822,340
824.761353,298
824.879822,336
824.998291,314
825.116699,316
825.235291,321
825.353699,319
825.472168,325
825.590637,322
825.709106,309
825.827576,318
825.946045,312
826.064453,311
826.182983,326
826.301392,321
826.4198,324
826.53833,318
826.656738,329
826.775208,317
826.893677,336
827.012024,305
827.130493,323
827.248962,326
827.36731,315
827.485779,312
827.604248,316
827.722595,307
827.841064,328
827.959412,316
828.077942,318
828.196289,317
828.314636,326
828.433105,315
828.551514,311
828.669861,312
828.78833,321
828.906677,324
829.025085,338
829.143433,319
829.261841,339
829.38031,322
829.498657,310
829.617004,308
829.735413,310
829.85376,322
829.972107,304
830.090515,326
830.208862,330
830.327209,314
830.445557,308
830.563904,314
830.682312,317
830.800659,317
830.919006,320
831.037354,328
831.155701,326
831.274048,314
831.392395,317
831.51062,320
831.629028,331
831.747314,321
831.865662,318
831.984009,319
832.102356,337
832.220642,323
832.338928,327
832.457275,323
832.575623,319
832.693909,320
832.812134,319
832.930481,329
833.048828,337
833.167114,307
833.2854,317
833.403687,305
833.521973,335
833.640259,324
833.758545,317
833.876831,321
833.995056,325
834.113281,321
834.231628,331
834.349915,317
834.468201,318
834.586426,317
834.704651,326
834.822998,325
834.941162,327
835.059448,314
835.177673,311
835.295959,325
835.414246,322
835.53241,313
835.650635,330
835.768921,314
835.887146,333
836.005371,303
836.123596,333
836.241821,317
836.360046,330
836.478271,318
836.596497,330
836.714722,312
836.832886,311
836.95105,315
837.069336,330
837.1875,310
837.305725,329
837.423889,317
837.542053,329
837.660339,311
837.778503,328
837.896667,322
838.014832,321
838.132996,328
838.25116,318
838.369385,311
838.487488,326
838.605713,314
838.723877,311
838.84198,321
838.960205,320
839.078308,330
839.196472,320
839.314636,315
839.4328,323
839.550964,320
839.669067,322
839.787231,330
839.905396,326
840.023499,333
840.141602,317
840.259766,316
840.377869,334
840.495972,315
840.614136,318
840.732239,319
840.850342,337
840.968445,319
841.086548,328
841.204651,329
841.322754,332
841.440918,309
841.55896,340
841.677002,327
841.795166,331
841.913208,307
842.031311,326
842.149353,323
842.267456,322
842.385498,331
842.503601,315
842.621643,327
842.739746,318
842.857788,306
842.97583,327
843.093933,324
843.211975,329
843.330017,333
843.44812,331
843.566101,335
843.684204,318
843.802246,329
843.920227,326
844.038269,324
844.156311,317
844.274292,318
844.392395,336
844.510376,321
844.628357,326
844.74646,320
844.864441,329
844.982422,312
845.100403,329
845.218384,317
845.336426,313
845.454468,322
845.572449,324
845.69043,325
845.808411,331
845.926453,318
846.044373,319
846.162354,319
846.280396,317
846.398315,330
846.516296,318
846.634216,318
846.752197,322
846.870178,318
846.988098,337
847.106079,315
847.22406,334
847.34198,318
847.4599,319
847.577881,310
847.695801,332
847.813782,312
847.931641,316
848.049561,329
848.167603,323
848.285461,326
848.403381,324
848.521362,324
848.639221,333
848.75708,329
848.875,330
848.99292,319
849.110901,336
849.22876,312
849.34668,324
849.464539,324
849.582458,327
849.700317,318
849.818176,344
849.936096,324
850.053955,323
850.171875,322
850.289673,327
850.407593,307
850.525452,322
850.643311,329
850.761169,332
850.878967,328
850.996887,333
851.114746,320
851.232544,325
851.350403,324
851.468262,329
851.58606,322
851.703979,331
851.821777,319
851.939636,330
852.057434,334
852.175232,327
852.293091,332
852.410889,318
852.528687,313
852.646545,322
852.764343,320
852.88208,317
852.999939,310
853.117676,318
853.235535,315
853.353271,319
853.471069,341
853.588928,329
853.706604,313
853.824402,321
853.9422,318
854.059998,332
854.177734,339
854.295532,333
854.413269,321
854.531006,324
854.648804,332
854.766541,339
854.884277,324
855.002014,321
855.119751,322
855.237549,341
855.355225,331
855.473022,329
855.590698,329
855.708435,326
855.826172,324
855.943848,330
856.061646,320
856.179321,333
856.296997,317
856.414795,330
856.53241,317
856.650085,338
856.767822,340
856.885559,318
857.003174,333
857.120911,328
857.238586,322
857.356201,341
857.473938,325
857.591614,316
857.709351,331
857.826965,330
857.944641,325
858.062317,320
858.179993,323
858.297668,324
858.415283,315
858.532959,320
858.650574,328
858.768188,330
858.885803,316
859.003479,337
859.121094,315
859.23877,331
859.356384,336
859.473999,334
859.591675,314
859.709229,330
859.826843,323
859.944458,324
860.062012,325
860.179626,327
860.297302,322
860.414856,327
860.532471,334
860.650024,328
860.767639,301
860.885193,320
861.002808,327
861.120361,332
861.237976,310
861.35553,317
861.473022,331
861.590698,327
861.708191,315
861.825745,323
861.943298,315
862.060852,320
862.178406,321
862.295959,321
862.413513,316
862.531006,329
862.64856,327
862.766113,312
862.883667,318
863.00116,329
863.118713,325
863.236206,330
863.353699,313
863.471252,309
863.588745,327
863.706177,321
863.82373,336
863.941162,321
864.058716,327
864.176208,327
864.29364,325
864.411194,326
864.528687,317
864.646118,318
864.763611,323
864.881042,322
864.998535,324
865.116028,328
865.233459,332
865.350891,333
865.468384,315
865.585754,321
865.703308,314
865.820679,332
865.938171,308
866.055542,314
866.173035,321
866.290466,324
866.407837,321
866.52533,315
866.6427,320
866.760071,338
866.877563,314
866.994934,332
867.112305,316
867.229736,314
867.347107,309
867.464539,328
867.58197,320
867.699341,339
867.81665,319
867.934082,313
868.051453,320
868.168823,326
868.286194,316
868.403564,324
868.520935,328
868.638306,334
868.755676,314
868.872986,311
868.990295,338
869.107727,337
869.225037,314
869.342346,327
869.459717,328
869.577026,312
869.694336,333
869.811707,318
869.929016,325
870.046326,322
870.163635,326
870.280945,317
870.398254,333
870.515564,327
870.632812,336
870.750183,316
870.867432,325
870.984741,334
871.102051,327
871.219299,325
871.336609,317
871.453918,341
871.571106,316
871.688416,342
871.805664,350
871.922852,331
872.040222,326
872.157471,321
872.274719,333
872.391968,329
872.509155,331
872.626465,321
872.743652,327
872.860962,330
872.978149,320
873.095337,332
873.212646,330
873.329834,333
873.44696,320
873.564209,337
873.681396,323
873.798645,329
873.915894,321
874.03302,326
874.150208,317
874.267456,335
874.384583,323
874.501831,327
874.618958,324
874.736145,332
874.853333,318
874.970459,326
875.087646,332
875.204834,338
875.32196,315
875.439148,335
875.556274,329
875.673401,338
875.790527,327
875.907715,322
876.024841,324
876.141968,315
876.259094,315
876.376282,320
876.493347,305
876.610474,317
876.7276,317
876.844727,338
876.961853,323
877.078918,315
877.195984,327
877.313171,326
877.430237,312
877.547302,342
877.664368,318
877.781433,331
877.898499,326
878.015625,331
878.13269,325
878.249695,338
878.366821,314
878.483887,319
878.600952,327
878.717957,331
878.834961,327
878.952087,325
879.069092,320
879.186157,317
879.303162,310
879.420227,334
879.537231,323
879.654236,314
879.77124,308
879.888306,327
880.005249,322
880.122314,319
880.239319,320
880.356323,333
880.473328,329
880.590271,307
880.707275,312
880.824341,328
880.941284,322
881.058228,323
881.175232,314
881.292236,323
881.40918,325
881.526123,320
881.643066,326
881.760071,328
881.877014,319
881.993958,329
882.11084,314
882.227783,328
882.344727,321
882.46167,327
882.578613,320
882.695618,333
882.812439,327
882.929382,338
883.046326,314
883.163208,329
883.280151,325
883.397034,339
883.513916,308
883.630798,337
883.747742,317
883.864563,315
883.981506,325
884.098389,328
884.21521,313
884.332153,328
884.448975,328
884.565796,327
884.682678,328
884.7995,330
884.916443,318
885.033264,337
885.150085,326
885.266968,323
885.383789,324
885.500671,327
885.617493,337
885.734314,324
885.851196,334
885.967896,336
886.084717,324
886.201599,332
886.318359,325
886.435181,340
886.552002,330
886.668762,337
886.785645,330
886.902344,331
887.019165,313
887.135925,330
887.252747,334
887.369446,337
887.486267,326
887.603027,315
887.719788,323
887.836548,337
887.953247,316
888.070068,322
888.186829,314
888.303528,322
888.420288,316
888.536987,314
888.653687,315
888.770447,322
888.887146,310
889.003967,321
889.120667,317
889.237305,325
889.354065,302
889.470703,328
889.587463,321
889.704163,320
889.820862,315
889.937561,325
890.054199,326
890.170837,311
890.287598,309
890.404236,321
890.520874,322
890.637634,330
890.754211,316
890.87085,325
890.987549,316
891.104187,336
891.220886,317
891.337463,314
891.454102,306
891.57074,317
891.687378,314
891.804077,317
891.920654,311
892.037231,335
892.15387,329
892.270447,323
892.387085,298
892.503723,325
892.6203,320
892.736877,318
892.853516,309
892.970032,310
893.08667,320
893.203186,321
893.319763,313
893.43634,323
893.552917,311
893.669556,321
893.786011,333
893.902588,321
894.019165,330
894.135681,325
894.252197,318
894.368835,319
894.485291,324
894.601868,339
894.718384,321
894.8349,318
894.951355,316
895.067932,313
895.184448,318
895.300964,312
895.417419,328
895.533936,319
895.650452,310
895.766907,314
895.883423,314
895.999878,314
896.116333,309
896.232849,335
896.349304,311
896.465759,305
896.582214,318
896.698669,317
896.815125,321
896.931641,333
897.048035,319
897.164551,322
897.280884,321
897.397339,334
897.513794,326
897.630249,308
897.746582,338
897.863098,324
897.979431,319
898.095886,333
898.212341,322
898.328674,321
898.445129,307
898.561462,319
898.677795,318
898.794312,314
898.910645,309
899.026978,306
899.143433,316
899.259766,328
899.37616,311
899.492493,317
899.608765,316
899.725159,332
899.841553,324
899.957947,330
900.07428,323
900.190552,320
900.306946,320
900.423157,310
900.53949,323
900.655884,332
900.772156,305
900.888489,322
901.004822,320
901.121033,326
901.237366,315
901.353699,311
901.46991,314
901.586304,327
901.702515,319
901.818787,322
901.93512,311
902.051331,332
902.167603,315
902.283875,341
902.400085,312
902.516418,318
902.632629,311
902.74884,328
902.865112,306
902.981384,327
903.097595,319
903.213867,320
903.330017,334
903.446289,328
903.5625,328
903.67865,320
903.794922,318
903.911072,319
904.027344,315
904.143494,332
904.259705,329
904.375916,327
904.492065,316
904.608215,327
904.724426,317
904.840576,313
904.956726,325
905.072876,318
905.189087,309
905.305176,323
905.421387,317
905.537537,334
905.653687,317
905.769775,320
905.885925,318
906.002014,328
906.118164,310
906.234314,330
906.350403,315
906.466492,331
906.582642,319
906.69873,318
906.814758,315
906.930908,330
907.046936,329
907.163086,321
907.279175,313
907.395264,308
907.511353,317
907.62738,316
907.743408,313
907.859497,325
907.975525,301
908.091553,327
908.207703,313
908.32373,321
908.439758,319
908.555786,331
908.671814,328
908.787842,318
908.90387,318
909.019775,324
909.135864,311
909.251892,315
909.367859,316
909.483826,320
909.599854,316
909.715881,317
909.831848,312
909.947815,311
910.063782,313
910.179749,327
910.295776,331
910.411743,320
910.527649,316
910.643616,327
910.759583,311
910.875488,321
910.991455,313
911.107361,328
911.223267,311
911.339294,311
911.4552,316
911.571106,320
911.687073,321
911.802979,326
911.918823,316
912.034729,323
912.150635,331
912.266602,329
912.382446,323
912.498352,328
912.614197,308
912.730103,309
912.846008,314
