792.44574,371
792.56488,408
792.68396,453
792.80304,440
792.92218,390
793.041199,379
793.160339,364
793.279419,377
793.398499,364
793.517578,367
793.636658,346
793.755737,369
793.874817,385
793.993896,373
794.112976,364
794.232056,362
794.351074,350
794.470215,370
794.589233,328
794.708313,351
794.827393,360
794.946411,354
795.065552,366
795.18457,356
795.303589,350
795.422668,353
795.541687,372
795.660767,343
795.779846,352
795.898865,351
796.017883,355
796.136963,340
796.255981,356
796.375061,358
796.49408,342
796.613037,338
796.732117,338
796.851135,345
796.970154,358
797.089233,338
797.208191,337
797.327271,330
797.446228,344
797.565186,346
797.684265,341
797.803223,343
797.922241,343
798.04126,330
798.160278,339
798.279297,329
798.398315,329
798.517273,342
798.636292,336
798.75531,335
798.874268,329
798.993286,340
799.112244,346
799.231323,318
799.350281,335
799.469238,338
799.588257,324
799.707153,340
799.826111,342
799.945129,328
800.064087,330
800.183044,331
800.302063,347
800.421021,327
800.539978,344
800.658936,348
800.777893,341
800.896912,330
801.015747,345
801.134705,318
801.253723,323
801.37262,336
801.491638,340
801.610535,329
801.729492,340
801.84845,319
801.967407,332
802.086243,326
802.205261,338
802.324158,321
802.443115,340
802.562073,324
802.680969,343
802.799927,334
802.918762,336
803.037659,329
803.156677,315
803.275574,325
803.39447,338
803.513428,312
803.632263,335
803.751221,331
803.870117,339
803.989014,315
804.107971,328
804.226746,342
804.345642,337
804.4646,336
804.583496,317
804.702393,330
804.821228,328
804.940125,331
805.059021,323
805.177917,317
805.296814,330
805.415649,339
805.534546,338
805.653442,342
805.772278,325
805.891113,332
806.01001,330
806.128906,322
806.247742,324
806.366577,332
806.485413,318
806.604309,348
806.723145,322
806.84198,336
806.960876,318
807.079712,329
807.198486,342
807.317383,330
807.436218,313
807.554993,315
807.673889,323
807.792725,339
807.91156,311
808.030396,330
808.14917,308
808.268005,314
808.386841,331
808.505676,320
808.624451,335
808.743286,337
808.862122,331
808.980896,319
809.099731,326
809.218506,327
809.337341,326
809.456116,329
809.57489,314
809.693726,337
809.8125,322
809.931274,330
810.050049,333
810.168884,307
810.287659,336
810.406372,323
810.525269,325
810.643982,323
810.762756,341
810.881531,321
811.000305,326
811.11908,336
811.237854,338
811.356567,333
811.475403,341
811.594116,327
811.71283,345
811.831604,330
811.950378,338
812.069153,319
812.187927,313
812.30658,329
812.425415,314
812.544128,341
812.662781,342
812.781616,331
812.900269,333
813.019043,336
813.137756,334
813.256531,318
813.375244,322
813.493896,313
813.612671,328
813.731384,325
813.850037,323
813.96875,314
814.087524,337
814.206238,311
814.324951,319
814.443604,342
814.562256,329
814.68103,325
814.799683,334
814.918335,304
815.037109,324
815.155762,326
815.274475,328
815.393188,321
815.511841,324
815.630554,321
815.749146,321
815.867859,330
815.986572,330
816.105164,321
816.223877,336
816.342529,322
816.461182,325
816.579895,324
816.698486,330
816.817139,325
816.935791,326
817.054504,318
817.173096,333
817.291748,326
817.4104,329
817.529053,323
817.647644,337
817.766235,329
817.884949,326
818.00354,338
818.122192,313
818.240845,323
818.359436,322
818.478088,334
818.59668,315
818.715271,333
818.833923,320
818.952515,321
819.071106,318
819.189758,330
819.30835,315
819.426941,325
819.545532,319
819.664124,329
819.782715,317
819.901306,317
820.019897,325
820.138489,333
820.25708,316
820.375671,324
820.494202,321
820.612732,325
820.731384,325
820.849915,322
820.968506,330
821.087097,330
821.205627,313
821.324158,319
821.442749,327
821.561279,318
821.679871,316
821.798401,325
821.916931,321
822.035461,326
822.154053,321
822.272583,329
822.391174,323
822.509583,316
822.628174,329
822.746704,306
822.865234,316
822.983765,309
823.102295,314
823.220825,319
823.339294,333
823.457825,321
823.576355,316
823.694824,315
823.813354,324
823.931885,310
824.050354,318
824.168884,320
824.287354,326
824.405823,314
824.524353,310
824.642822,307
824.761353,327
824.879822,315
824.998291,324
825.116699,322
825.235291,335
825.353699,323
825.472168,320
825.590637,317
825.709106,324
825.827576,325
825.946045,315
826.064453,311
826.182983,320
826.301392,325
826.4198,333
826.53833,314
826.656738,319
826.775208,309
826.893677,322
827.012024,319
827.130493,317
827.248962,322
827.36731,319
827.485779,321
827.604248,327
827.722595,304
827.841064,341
827.959412,324
828.077942,310
828.196289,320
828.314636,316
828.433105,326
828.551514,311
828.669861,309
828.78833,308
828.906677,323
829.025085,313
829.143433,311
829.261841,323
829.38031,317
829.498657,319
829.617004,326
829.735413,327
829.85376,299
829.972107,315
830.090515,329
830.208862,317
830.327209,319
830.445557,307
830.563904,308
830.682312,325
830.800659,319
830.919006,333
831.037354,322
831.155701,318
831.274048,315
831.392395,309
831.51062,315
831.629028,320
831.747314,311
831.865662,319
831.984009,323
832.102356,323
832.220642,314
832.338928,335
832.457275,310
832.575623,318
832.693909,325
832.812134,329
832.930481,320
833.048828,320
833.167114,332
833.2854,310
833.403687,318
833.521973,307
833.640259,312
833.758545,312
833.876831,329
833.995056,317
834.113281,320
834.231628,309
834.349915,318
834.468201,318
834.586426,319
834.704651,328
834.822998,322
834.941162,322
835.059448,322
835.177673,322
835.295959,306
835.414246,331
835.53241,333
835.650635,327
835.768921,320
835.887146,313
836.005371,326
836.123596,332
836.241821,321
836.360046,313
836.478271,328
836.596497,330
836.714722,318
836.832886,329
836.95105,326
837.069336,315
837.1875,320
837.305725,316
837.423889,322
837.542053,319
837.660339,327
837.778503,317
837.896667,317
838.014832,330
838.132996,318
838.25116,321
838.369385,323
838.487488,328
838.605713,313
838.723877,323
838.84198,317
838.960205,322
839.078308,328
839.196472,326
839.314636,312
839.4328,309
839.550964,309
839.669067,326
839.787231,329
839.905396,322
840.023499,316
840.141602,322
840.259766,326
840.377869,320
840.495972,330
840.614136,312
840.732239,319
840.850342,311
840.968445,336
841.086548,311
841.204651,328
841.322754,329
841.440918,328
841.55896,321
841.677002,330
841.795166,334
841.913208,327
842.031311,319
842.149353,326
842.267456,317
842.385498,321
842.503601,324
842.621643,326
842.739746,315
842.857788,322
842.97583,321
843.093933,322
843.211975,315
843.330017,319
843.44812,335
843.566101,332
843.684204,336
843.802246,328
843.920227,327
844.038269,317
844.156311,321
844.274292,310
844.392395,307
844.510376,332
844.628357,315
844.74646,316
844.864441,326
844.982422,317
845.100403,326
845.218384,334
845.336426,321
845.454468,325
845.572449,314
845.69043,325
845.808411,328
845.926453,321
846.044373,321
846.162354,305
846.280396,339
846.398315,327
846.516296,306
846.634216,330
846.752197,320
846.870178,322
846.988098,316
847.106079,326
847.22406,321
847.34198,323
847.4599,329
847.577881,330
847.695801,329
847.813782,323
847.931641,315
848.049561,331
848.167603,315
848.285461,329
848.403381,323
848.521362,321
848.639221,324
848.75708,323
848.875,326
848.99292,315
849.110901,322
849.22876,325
849.34668,335
849.464539,327
849.582458,336
849.700317,310
849.818176,322
849.936096,313
850.053955,327
850.171875,322
850.289673,320
850.407593,327
850.525452,323
850.643311,324
850.761169,325
850.878967,331
850.996887,331
851.114746,330
851.232544,315
851.350403,318
851.468262,324
851.58606,321
851.703979,329
851.821777,328
851.939636,318
852.057434,340
852.175232,321
852.293091,324
852.410889,330
852.528687,323
852.646545,299
852.764343,320
852.88208,330
852.999939,322
853.117676,333
853.235535,324
853.353271,329
853.471069,320
853.588928,325
853.706604,319
853.824402,324
853.9422,329
854.059998,330
854.177734,312
854.295532,334
854.413269,314
854.531006,330
854.648804,332
854.766541,320
854.884277,327
855.002014,325
855.119751,330
855.237549,318
855.355225,319
855.473022,324
855.590698,317
855.708435,330
855.826172,318
855.943848,320
856.061646,326
856.179321,314
856.296997,335
856.414795,326
856.53241,320
856.650085,339
856.767822,319
856.885559,341
857.003174,330
857.120911,324
857.238586,340
857.356201,320
857.473938,337
857.591614,333
857.709351,325
857.826965,330
857.944641,321
858.062317,323
858.179993,330
858.297668,327
858.415283,338
858.532959,315
858.650574,329
858.768188,318
858.885803,315
859.003479,314
859.121094,319
859.23877,318
859.356384,332
859.473999,303
859.591675,332
859.709229,321
859.826843,340
859.944458,315
860.062012,308
860.179626,313
860.297302,329
860.414856,329
860.532471,325
860.650024,322
860.767639,309
860.885193,330
861.002808,320
861.120361,329
861.237976,329
861.35553,315
861.473022,306
861.590698,314
861.708191,316
861.825745,310
861.943298,315
862.060852,332
862.178406,316
862.295959,320
862.413513,327
862.531006,323
862.64856,325
862.766113,324
862.883667,324
863.00116,319
863.118713,308
863.236206,322
863.353699,318
863.471252,328
863.588745,308
863.706177,322
863.82373,313
863.941162,328
864.058716,341
864.176208,321
864.29364,330
864.411194,317
864.528687,319
864.646118,328
864.763611,336
864.881042,316
864.998535,320
865.116028,315
865.233459,328
865.350891,314
865.468384,314
865.585754,315
865.703308,318
865.820679,313
865.938171,332
866.055542,326
866.173035,324
866.290466,315
866.407837,328
866.52533,321
866.6427,328
866.760071,324
866.877563,314
866.994934,322
867.112305,329
867.229736,322
867.347107,327
867.464539,319
867.58197,322
867.699341,329
867.81665,325
867.934082,332
868.051453,321
868.168823,319
868.286194,316
868.403564,325
868.520935,316
868.638306,334
868.755676,328
868.872986,328
868.990295,323
869.107727,317
869.225037,314
869.342346,313
869.459717,317
869.577026,325
869.694336,320
869.811707,324
869.929016,322
870.046326,314
870.163635,325
870.280945,314
870.398254,329
870.515564,326
870.632812,318
870.750183,334
870.867432,326
870.984741,313
871.102051,318
871.219299,319
871.336609,329
871.453918,324
871.571106,322
871.688416,318
871.805664,310
871.922852,331
872.040222,331
872.157471,325
872.274719,335
872.391968,329
872.509155,330
872.626465,307
872.743652,312
872.860962,330
872.978149,325
873.095337,327
873.212646,319
873.329834,325
873.44696,330
873.564209,319
873.681396,342
873.798645,321
873.915894,320
874.03302,325
874.150208,314
874.267456,321
874.384583,319
874.501831,324
874.618958,333
874.736145,326
874.853333,329
874.970459,319
875.087646,321
875.204834,315
875.32196,326
875.439148,324
875.556274,314
875.673401,325
875.790527,323
875.907715,308
876.024841,333
876.141968,316
876.259094,320
876.376282,317
876.493347,335
876.610474,309
876.7276,328
876.844727,331
876.961853,309
877.078918,316
877.195984,323
877.313171,335
877.430237,331
877.547302,313
877.664368,323
877.781433,302
877.898499,332
878.015625,317
878.13269,336
878.249695,319
878.366821,316
878.483887,317
878.600952,329
878.717957,311
878.834961,318
878.952087,319
879.069092,334
879.186157,317
879.303162,316
879.420227,322
879.537231,311
879.654236,329
879.77124,334
879.888306,314
880.005249,313
880.122314,325
880.239319,316
880.356323,307
880.473328,324
880.590271,313
880.707275,322
880.824341,319
880.941284,323
881.058228,339
881.175232,311
881.292236,334
881.40918,323
881.526123,317
881.643066,322
881.760071,311
881.877014,327
881.993958,313
882.11084,322
882.227783,325
882.344727,319
882.46167,315
882.578613,313
882.695618,316
882.812439,311
882.929382,319
883.046326,336
883.163208,301
883.280151,330
883.397034,309
883.513916,331
883.630798,314
883.747742,316
883.864563,315
883.981506,314
884.098389,318
884.21521,317
884.332153,327
884.448975,335
884.565796,327
884.682678,318
884.7995,336
884.916443,315
885.033264,314
885.150085,332
885.266968,330
885.383789,333
885.500671,332
885.617493,334
885.734314,331
885.851196,338
885.967896,325
886.084717,341
886.201599,329
886.318359,334
886.435181,320
886.552002,350
886.668762,320
886.785645,336
886.902344,322
887.019165,335
887.135925,318
887.252747,328
887.369446,334
887.486267,308
887.603027,325
887.719788,323
887.836548,327
887.953247,316
888.070068,324
888.186829,317
888.303528,318
888.420288,318
888.536987,316
888.653687,329
888.770447,313
888.887146,317
889.003967,327
889.120667,325
889.237305,324
889.354065,328
889.470703,331
889.587463,311
889.704163,330
889.820862,297
889.937561,318
890.054199,318
890.170837,318
890.287598,313
890.404236,321
890.520874,323
890.637634,320
890.754211,312
890.87085,329
890.987549,334
891.104187,309
891.220886,310
891.337463,313
891.454102,316
891.57074,329
891.687378,326
891.804077,328
891.920654,326
892.037231,323
892.15387,310
892.270447,303
892.387085,318
892.503723,314
892.6203,316
892.736877,312
892.853516,315
892.970032,309
893.08667,323
893.203186,310
893.319763,322
893.43634,315
893.552917,332
893.669556,311
893.786011,322
893.902588,307
894.019165,317
894.135681,301
894.252197,312
894.368835,313
894.485291,328
894.601868,312
894.718384,328
894.8349,314
894.951355,337
895.067932,310
895.184448,320
895.300964,316
895.417419,313
895.533936,328
895.650452,315
895.766907,309
895.883423,315
895.999878,306
896.116333,329
896.232849,312
896.349304,312
896.465759,317
896.582214,327
896.698669,310
896.815125,320
896.931641,313
897.048035,320
897.164551,315
897.280884,317
897.397339,315
897.513794,316
897.630249,313
897.746582,310
897.863098,324
897.979431,319
898.095886,323
898.212341,316
898.328674,318
898.445129,324
898.561462,322
898.677795,329
898.794312,322
898.910645,310
899.026978,316
899.143433,311
899.259766,310
899.37616,316
899.492493,327
899.608765,324
899.725159,314
899.841553,317
899.957947,316
900.07428,323
900.190552,322
900.306946,317
900.423157,316
900.53949,323
900.655884,312
900.772156,316
900.888489,319
901.004822,318
901.121033,320
901.237366,318
901.353699,312
901.46991,327
901.586304,324
901.702515,334
901.818787,311
901.93512,320
902.051331,321
902.167603,311
902.283875,325
902.400085,323
902.516418,327
902.632629,311
902.74884,338
902.865112,336
902.981384,309
903.097595,330
903.213867,317
903.330017,331
903.446289,318
903.5625,303
903.67865,312
903.794922,329
903.911072,316
904.027344,333
904.143494,318
904.259705,322
904.375916,325
904.492065,322
904.608215,318
904.724426,322
904.840576,316
904.956726,324
905.072876,323
905.189087,327
905.305176,312
905.421387,338
905.537537,316
905.653687,310
905.769775,315
905.885925,315
906.002014,312
906.118164,310
906.234314,313
906.350403,316
906.466492,311
906.582642,318
906.69873,319
906.814758,319
906.930908,313
907.046936,318
907.163086,310
907.279175,312
907.395264,307
907.511353,312
907.62738,316
907.743408,316
907.859497,313
907.975525,323
908.091553,315
908.207703,310
908.32373,324
908.439758,325
908.555786,319
908.671814,328
908.787842,314
908.90387,328
909.019775,324
909.135864,316
909.251892,317
909.367859,309
909.483826,314
909.599854,322
909.715881,334
909.831848,325
909.947815,311
910.063782,318
910.179749,317
910.295776,322
910.411743,320
910.527649,311
910.643616,321
910.759583,302
910.875488,315
910.991455,318
911.107361,324
911.223267,324
911.339294,305
911.4552,319
911.571106,321
911.687073,322
911.802979,314
911.918823,312
912.034729,323
912.150635,311
912.266602,300
912.382446,325
912.498352,311
912.614197,310
912.730103,302
912.846008,321
792.44574,369
792.56488,407
792.68396,444
792.80304,423
792.92218,371
793.041199,366
793.160339,362
793.279419,381
793.398499,380
793.517578,349
793.636658,368
793.755737,381
793.874817,382
793.993896,378
794.112976,353
794.232056,336
794.351074,353
794.470215,361
794.589233,357
794.708313,359
794.827393,366
794.946411,356
795.065552,345
795.18457,359
795.303589,364
795.422668,343
795.541687,351
795.660767,361
795.779846,342
795.898865,343
796.017883,354
796.136963,334
796.255981,360
796.375061,338
796.49408,350
796.613037,357
796.732117,343
796.851135,323
796.970154,361
797.089233,349
797.208191,346
797.327271,329
797.446228,347
797.565186,359
797.684265,348
797.803223,342
797.922241,335
798.04126,344
798.160278,341
798.279297,347
798.398315,343
798.517273,328
798.636292,337
798.75531,331
798.874268,343
798.993286,332
799.112244,342
799.231323,348
799.350281,334
799.469238,331
799.588257,336
799.707153,341
799.826111,343
799.945129,324
800.064087,345
800.183044,321
800.302063,330
800.421021,338
800.539978,334
800.658936,324
800.777893,330
800.896912,324
801.015747,327
801.134705,330
801.253723,331
801.37262,328
801.491638,333
801.610535,324
801.729492,323
801.84845,325
801.967407,350
802.086243,326
802.205261,333
802.324158,345
802.443115,327
802.562073,333
802.680969,334
802.799927,327
802.918762,340
803.037659,325
803.156677,341
803.275574,324
803.39447,339
803.513428,332
803.632263,335
803.751221,319
803.870117,313
803.989014,337
804.107971,327
804.226746,330
804.345642,338
804.4646,330
804.583496,334
804.702393,340
804.821228,330
804.940125,330
805.059021,332
805.177917,328
805.296814,338
805.415649,317
805.534546,336
805.653442,328
805.772278,322
805.891113,322
806.01001,331
806.128906,320
806.247742,324
806.366577,333
806.485413,333
806.604309,322
806.723145,329
806.84198,341
806.960876,321
807.079712,308
807.198486,332
807.317383,332
807.436218,319
807.554993,322
807.673889,336
807.792725,339
807.91156,333
808.030396,325
808.14917,329
808.268005,333
808.386841,324
808.505676,326
808.624451,331
808.743286,330
808.862122,336
808.980896,323
809.099731,333
809.218506,323
809.337341,324
809.456116,328
809.57489,335
809.693726,336
809.8125,332
809.931274,326
810.050049,322
810.168884,333
810.287659,323
810.406372,330
810.525269,329
810.643982,320
810.762756,328
810.881531,319
811.000305,322
811.11908,330
811.237854,335
811.356567,330
811.475403,330
811.594116,337
811.71283,325
811.831604,332
811.950378,323
812.069153,348
812.187927,330
812.30658,333
812.425415,328
812.544128,326
812.662781,334
812.781616,334
812.900269,327
813.019043,328
813.137756,329
813.256531,339
813.375244,313
813.493896,331
813.612671,336
813.731384,326
813.850037,340
813.96875,329
814.087524,320
814.206238,332
814.324951,323
814.443604,337
814.562256,330
814.68103,328
814.799683,324
814.918335,330
815.037109,329
815.155762,322
815.274475,317
815.393188,318
815.511841,337
815.630554,325
815.749146,330
815.867859,315
815.986572,327
816.105164,338
816.223877,325
816.342529,337
816.461182,330
816.579895,329
816.698486,337
816.817139,329
816.935791,322
817.054504,322
817.173096,327
817.291748,329
817.4104,325
817.529053,317
817.647644,330
817.766235,335
817.884949,316
818.00354,330
818.122192,317
818.240845,326
818.359436,332
818.478088,325
818.59668,328
818.715271,324
818.833923,325
818.952515,323
819.071106,322
819.189758,321
819.30835,321
819.426941,319
819.545532,321
819.664124,323
819.782715,319
819.901306,317
820.019897,320
820.138489,322
820.25708,321
820.375671,321
820.494202,321
820.612732,324
820.731384,331
820.849915,317
820.968506,342
821.087097,330
821.205627,318
821.324158,332
821.442749,324
821.561279,321
821.679871,327
821.798401,324
821.916931,321
822.035461,341
822.154053,324
822.272583,318
822.391174,325
822.509583,320
822.628174,344
822.746704,315
822.865234,321
822.983765,315
823.102295,329
823.220825,319
823.339294,328
823.457825,325
823.576355,336
823.694824,319
823.813354,320
823.931885,337
824.050354,316
824.168884,315
824.287354,301
824.405823,317
824.524353,332
824.642822,313
824.761353,321
824.879822,325
824.998291,336
825.116699,324
825.235291,318
825.353699,305
825.472168,321
825.590637,335
825.709106,311
825.827576,328
825.946045,324
826.064453,324
826.182983,329
826.301392,318
826.4198,313
826.53833,319
826.656738,318
826.775208,333
826.893677,324
827.012024,322
827.130493,326
827.248962,326
827.36731,310
827.485779,317
827.604248,317
827.722595,320
827.841064,309
827.959412,313
828.077942,328
828.196289,312
828.314636,330
828.433105,311
828.551514,306
828.669861,325
828.78833,326
828.906677,314
829.025085,305
829.143433,320
829.261841,320
829.38031,313
829.498657,319
829.617004,320
829.735413,322
829.85376,315
829.972107,318
830.090515,325
830.208862,322
830.327209,322
830.445557,328
830.563904,327
830.682312,325
830.800659,328
830.919006,331
831.037354,316
831.155701,327
831.274048,324
831.392395,313
831.51062,336
831.629028,323
831.747314,321
831.865662,318
831.984009,342
832.102356,329
832.220642,314
832.338928,318
832.457275,324
832.575623,324
832.693909,326
832.812134,319
832.930481,317
833.048828,330
833.167114,312
833.2854,317
833.403687,328
833.521973,311
833.640259,321
833.758545,323
833.876831,326
833.995056,320
834.113281,319
834.231628,320
834.349915,310
834.468201,336
834.586426,333
834.704651,323
834.822998,329
834.941162,336
835.059448,326
835.177673,322
835.295959,315
835.414246,315
835.53241,319
835.650635,316
835.768921,331
835.887146,324
836.005371,319
836.123596,316
836.241821,318
836.360046,325
836.478271,323
836.596497,314
836.714722,317
836.832886,332
836.95105,331
837.069336,315
837.1875,310
837.305725,315
837.423889,322
837.542053,321
837.660339,329
837.778503,322
837.896667,317
838.014832,312
838.132996,312
838.25116,310
838.369385,327
838.487488,319
838.605713,333
838.723877,323
838.84198,323
838.960205,330
839.078308,336
839.196472,316
839.314636,328
839.4328,331
839.550964,318
839.669067,329
839.787231,329
839.905396,305
840.023499,328
840.141602,313
840.259766,335
840.377869,331
840.495972,335
840.614136,315
840.732239,325
840.850342,315
840.968445,313
841.086548,323
841.204651,321
841.322754,321
841.440918,326
841.55896,333
841.677002,325
841.795166,324
841.913208,320
842.031311,316
842.149353,332
842.267456,334
842.385498,313
842.503601,326
842.621643,326
842.739746,330
842.857788,315
842.97583,319
843.093933,323
843.211975,329
843.330017,327
843.44812,337
843.566101,320
843.684204,333
843.802246,319
843.920227,321
844.038269,330
844.156311,322
844.274292,317
844.392395,330
844.510376,323
844.628357,320
844.74646,319
844.864441,324
844.982422,316
845.100403,313
845.218384,311
845.336426,330
845.454468,321
845.572449,312
845.69043,317
845.808411,331
845.926453,329
846.044373,310
846.162354,321
846.280396,319
846.398315,346
846.516296,308
846.634216,309
846.752197,334
846.870178,320
846.988098,328
847.106079,323
847.22406,318
847.34198,305
847.4599,328
847.577881,327
847.695801,319
847.813782,312
847.931641,322
848.049561,331
848.167603,318
848.285461,326
848.403381,332
848.521362,326
848.639221,341
848.75708,308
848.875,310
848.99292,329
849.110901,311
849.22876,327
849.34668,322
849.464539,304
849.582458,313
849.700317,323
849.818176,322
849.936096,315
850.053955,314
850.171875,320
850.289673,316
850.407593,324
850.525452,324
850.643311,319
850.761169,323
850.878967,345
850.996887,312
851.114746,321
851.232544,321
851.350403,329
851.468262,311
851.58606,325
851.703979,321
851.821777,316
851.939636,328
852.057434,313
852.175232,321
852.293091,304
852.410889,318
852.528687,330
852.646545,324
852.764343,323
852.88208,335
852.999939,325
853.117676,333
853.235535,311
853.353271,324
853.471069,335
853.588928,317
853.706604,314
853.824402,321
853.9422,326
854.059998,315
854.177734,314
854.295532,316
854.413269,325
854.531006,322
854.648804,330
854.766541,328
854.884277,321
855.002014,337
855.119751,318
855.237549,324
855.355225,329
855.473022,327
855.590698,339
855.708435,318
855.826172,330
855.943848,319
856.061646,317
856.179321,312
856.296997,318
856.414795,316
856.53241,323
856.650085,323
856.767822,332
856.885559,334
857.003174,322
857.120911,325
857.238586,338
857.356201,323
857.473938,323
857.591614,312
857.709351,328
857.826965,335
857.944641,337
858.062317,321
858.179993,326
858.297668,317
858.415283,321
858.532959,314
858.650574,316
858.768188,323
858.885803,314
859.003479,323
859.121094,321
859.23877,327
859.356384,328
859.473999,322
859.591675,323
859.709229,326
859.826843,325
859.944458,318
860.062012,319
860.179626,316
860.297302,327
860.414856,317
860.532471,332
860.650024,334
860.767639,322
860.885193,324
861.002808,329
861.120361,316
861.237976,319
861.35553,322
861.473022,321
861.590698,314
861.708191,321
861.825745,311
861.943298,325
862.060852,324
862.178406,338
862.295959,315
862.413513,321
862.531006,321
862.64856,310
862.766113,325
862.883667,328
863.00116,326
863.118713,319
863.236206,327
863.353699,331
863.471252,319
863.588745,320
863.706177,307
863.82373,315
863.941162,337
864.058716,315
864.176208,316
864.29364,331
864.411194,317
864.528687,320
864.646118,322
864.763611,325
864.881042,319
864.998535,325
865.116028,330
865.233459,314
865.350891,301
865.468384,317
865.585754,329
865.703308,323
865.820679,315
865.938171,314
866.055542,317
866.173035,315
866.290466,331
866.407837,315
866.52533,314
866.6427,331
866.760071,331
866.877563,322
866.994934,331
867.112305,320
867.229736,311
867.347107,323
867.464539,317
867.58197,315
867.699341,316
867.81665,320
867.934082,316
868.051453,320
868.168823,314
868.286194,314
868.403564,314
868.520935,323
868.638306,316
868.755676,325
868.872986,319
868.990295,330
869.107727,329
869.225037,335
869.342346,325
869.459717,314
869.577026,319
869.694336,330
869.811707,332
869.929016,318
870.046326,323
870.163635,326
870.280945,326
870.398254,333
870.515564,338
870.632812,328
870.750183,327
870.867432,319
870.984741,322
871.102051,308
871.219299,323
871.336609,324
871.453918,331
871.571106,337
871.688416,329
871.805664,333
871.922852,316
872.040222,320
872.157471,317
872.274719,334
872.391968,313
872.509155,315
872.626465,330
872.743652,331
872.860962,318
872.978149,323
873.095337,331
873.212646,320
873.329834,331
873.44696,314
873.564209,317
873.681396,327
873.798645,319
873.915894,319
874.03302,323
874.150208,340
874.267456,325
874.384583,330
874.501831,324
874.618958,331
874.736145,330
874.853333,348
874.970459,322
875.087646,324
875.204834,320
875.32196,326
875.439148,331
875.556274,329
875.673401,335
875.790527,321
875.907715,328
876.024841,319
876.141968,339
876.259094,314
876.376282,323
876.493347,314
876.610474,326
876.7276,307
876.844727,320
876.961853,325
877.078918,335
877.195984,322
877.313171,320
877.430237,326
877.547302,340
877.664368,330
877.781433,320
877.898499,319
878.015625,331
878.13269,329
878.249695,322
878.366821,330
878.483887,325
878.600952,312
878.717957,315
878.834961,315
878.952087,310
879.069092,324
879.186157,327
879.303162,324
879.420227,331
879.537231,317
879.654236,323
879.77124,324
879.888306,320
880.005249,321
880.122314,318
880.239319,320
880.356323,311
880.473328,329
880.590271,318
880.707275,337
880.824341,325
880.941284,314
881.058228,322
881.175232,318
881.292236,323
881.40918,337
881.526123,326
881.643066,324
881.760071,327
881.877014,334
881.993958,320
882.11084,315
882.227783,326
882.344727,323
882.46167,316
882.578613,319
882.695618,316
882.812439,320
882.929382,317
883.046326,318
883.163208,317
883.280151,321
883.397034,316
883.513916,318
883.630798,324
883.747742,317
883.864563,331
883.981506,319
884.098389,304
884.21521,309
884.332153,320
884.448975,330
884.565796,318
884.682678,329
884.7995,330
884.916443,321
885.033264,322
885.150085,321
885.266968,319
885.383789,340
885.500671,315
885.617493,338
885.734314,342
885.851196,330
885.967896,349
886.084717,329
886.201599,332
886.318359,337
886.435181,326
886.552002,338
886.668762,319
886.785645,332
886.902344,316
887.019165,319
887.135925,323
887.252747,333
887.369446,337
887.486267,327
887.603027,333
887.719788,326
887.836548,331
887.953247,333
888.070068,309
888.186829,321
888.303528,323
888.420288,330
888.536987,316
888.653687,324
888.770447,308
888.887146,321
889.003967,313
889.120667,326
889.237305,310
889.354065,311
889.470703,328
889.587463,318
889.704163,329
889.820862,331
889.937561,321
890.054199,330
890.170837,315
890.287598,326
890.404236,319
890.520874,327
890.637634,318
890.754211,309
890.87085,310
890.987549,314
891.104187,322
891.220886,321
891.337463,335
891.454102,335
891.57074,319
891.687378,322
891.804077,320
891.920654,322
892.037231,320
892.15387,334
892.270447,312
892.387085,323
892.503723,302
892.6203,330
892.736877,326
892.853516,320
892.970032,314
893.08667,326
893.203186,308
893.319763,318
893.43634,330
893.552917,317
893.669556,332
893.786011,332
893.902588,315
894.019165,315
894.135681,325
894.252197,321
894.368835,310
894.485291,320
894.601868,311
894.718384,310
894.8349,306
894.951355,327
895.067932,309
895.184448,328
895.300964,312
895.417419,312
895.533936,331
895.650452,319
895.766907,326
895.883423,318
895.999878,318
896.116333,319
896.232849,317
896.349304,331
896.465759,315
896.582214,325
896.698669,317
896.815125,326
896.931641,313
897.048035,312
897.164551,309
897.280884,322
897.397339,306
897.513794,325
897.630249,310
897.746582,323
897.863098,318
897.979431,321
898.095886,313
898.212341,330
898.328674,325
898.445129,320
898.561462,327
898.677795,327
898.794312,322
898.910645,320
899.026978,318
899.143433,322
899.259766,327
899.37616,313
899.492493,308
899.608765,321
899.725159,328
899.841553,327
899.957947,315
900.07428,326
900.190552,300
900.306946,311
900.423157,324
900.53949,334
900.655884,321
900.772156,324
900.888489,317
901.004822,321
901.121033,324
901.237366,312
901.353699,332
901.46991,315
901.586304,317
901.702515,319
901.818787,318
901.93512,323
902.051331,307
902.167603,334
902.283875,342
902.400085,338
902.516418,318
902.632629,324
902.74884,320
902.865112,321
902.981384,321
903.097595,327
903.213867,321
903.330017,335
903.446289,332
903.5625,331
903.67865,322
903.794922,329
903.911072,320
904.027344,322
904.143494,331
904.259705,326
904.375916,315
904.492065,321
904.608215,329
904.724426,312
904.840576,331
904.956726,311
905.072876,314
905.189087,319
905.305176,323
905.421387,315
905.537537,338
905.653687,331
905.769775,327
905.885925,335
906.002014,327
906.118164,309
906.234314,314
906.350403,316
906.466492,312
906.582642,337
906.69873,318
906.814758,306
906.930908,309
907.046936,310
907.163086,318
907.279175,308
907.395264,320
907.511353,317
907.62738,309
907.743408,324
907.859497,302
907.975525,323
908.091553,308
908.207703,300
908.32373,311
908.439758,322
908.555786,317
908.671814,323
908.787842,321
908.90387,322
909.019775,327
909.135864,307
909.251892,306
909.367859,321
909.483826,319
909.599854,324
909.715881,308
909.831848,326
909.947815,313
910.063782,333
910.179749,320
910.295776,317
910.411743,305
910.527649,312
910.643616,319
910.759583,329
910.875488,297
910.991455,322
911.107361,301
911.223267,330
911.339294,316
911.4552,316
911.571106,326
911.687073,308
911.802979,331
911.918823,323
912.034729,306
912.150635,319
912.266602,311
912.382446,323
912.498352,303
912.614197,313
912.730103,329
912.846008,318
792.44574,390
792.56488,414
792.68396,437
792.80304,416
792.92218,383
793.041199,369
793.160339,343
793.279419,378
793.398499,380
793.517578,346
793.636658,356
793.755737,384
793.874817,370
793.993896,374
794.112976,351
794.232056,360
794.351074,351
794.470215,353
794.589233,349
794.708313,352
794.827393,352
794.946411,356
795.065552,359
795.18457,366
795.303589,343
795.422668,354
795.541687,347
795.660767,345
795.779846,353
795.898865,346
796.017883,351
796.136963,341
796.255981,344
796.375061,342
796.49408,348
796.613037,347
796.732117,350
796.851135,341
796.970154,350
797.089233,345
797.208191,349
797.327271,345
797.446228,338
797.565186,355
797.684265,331
797.803223,346
797.922241,340
798.04126,351
798.160278,332
798.279297,336
798.398315,339
798.517273,346
798.636292,349
798.75531,356
798.874268,333
798.993286,341
799.112244,331
799.231323,331
799.350281,337
799.469238,334
799.588257,336
799.707153,334
799.826111,325
799.945129,334
800.064087,328
800.183044,337
800.302063,336
800.421021,330
800.539978,331
800.658936,332
800.777893,334
800.896912,335
801.015747,337
801.134705,327
801.253723,330
801.37262,318
801.491638,333
801.610535,318
801.729492,343
801.84845,329
801.967407,333
802.086243,321
802.205261,338
802.324158,322
802.443115,340
802.562073,335
802.680969,337
802.799927,334
802.918762,322
803.037659,335
803.156677,323
803.275574,329
803.39447,328
803.513428,328
803.632263,332
803.751221,328
803.870117,318
803.989014,315
804.107971,343
804.226746,328
804.345642,333
804.4646,323
804.583496,336
804.702393,330
804.821228,334
804.940125,337
805.059021,334
805.177917,344
805.296814,329
805.415649,321
805.534546,330
805.653442,334
805.772278,338
805.891113,338
806.01001,329
806.128906,320
806.247742,328
806.366577,314
806.485413,341
806.604309,317
806.723145,326
806.84198,320
806.960876,321
807.079712,321
807.198486,325
807.317383,327
807.436218,332
807.554993,320
807.673889,334
807.792725,318
807.91156,322
808.030396,331
808.14917,311
808.268005,325
808.386841,329
808.505676,335
808.624451,330
808.743286,332
808.862122,345
808.980896,327
809.099731,314
809.218506,324
809.337341,332
809.456116,314
809.57489,332
809.693726,318
809.8125,329
809.931274,319
810.050049,318
810.168884,331
810.287659,323
810.406372,334
810.525269,323
810.643982,321
810.762756,320
810.881531,341
811.000305,331
811.11908,322
811.237854,318
811.356567,320
811.475403,331
811.594116,321
811.71283,322
811.831604,326
811.950378,322
812.069153,316
812.187927,340
812.30658,324
812.425415,334
812.544128,330
812.662781,330
812.781616,326
812.900269,329
813.019043,325
813.137756,322
813.256531,328
813.375244,330
813.493896,332
813.612671,334
813.731384,319
813.850037,327
813.96875,326
814.087524,332
814.206238,324
814.324951,327
814.443604,330
814.562256,325
814.68103,316
814.799683,333
814.918335,311
815.037109,325
815.155762,315
815.274475,335
815.393188,333
815.511841,323
815.630554,328
815.749146,321
815.867859,335
815.986572,314
816.105164,317
816.223877,327
816.342529,319
816.461182,327
816.579895,327
816.698486,329
816.817139,322
816.935791,328
817.054504,316
817.173096,340
817.291748,315
817.4104,319
817.529053,314
817.647644,344
817.766235,338
817.884949,311
818.00354,330
818.122192,331
818.240845,322
818.359436,329
818.478088,325
818.59668,307
818.715271,318
818.833923,334
818.952515,324
819.071106,323
819.189758,320
819.30835,319
819.426941,321
819.545532,326
819.664124,316
819.782715,314
819.901306,330
820.019897,317
820.138489,320
820.25708,325
820.375671,324
820.494202,309
820.612732,337
820.731384,320
820.849915,317
820.968506,318
821.087097,326
821.205627,322
821.324158,327
821.442749,312
821.561279,312
821.679871,316
821.798401,325
821.916931,330
822.035461,329
822.154053,328
822.272583,324
822.391174,321
822.509583,324
822.628174,301
822.746704,331
822.865234,329
822.983765,319
823.102295,321
823.220825,310
823.339294,328
823.457825,328
823.576355,321
823.694824,319
823.813354,327
823.931885,318
824.050354,315
824.168884,340
824.287354,316
824.405823,325
824.524353,311
824.642822,321
824.761353,313
824.879822,319
824.998291,309
825.116699,322
825.235291,314
825.353699,323
825.472168,327
825.590637,308
825.709106,335
825.827576,314
825.946045,326
826.064453,329
826.182983,309
826.301392,311
826.4198,314
826.53833,319
826.656738,311
826.775208,340
826.893677,303
827.012024,331
827.130493,330
827.248962,313
827.36731,317
827.485779,316
827.604248,312
827.722595,316
827.841064,324
827.959412,312
828.077942,329
828.196289,313
828.314636,324
828.433105,319
828.551514,315
828.669861,309
828.78833,310
828.906677,312
829.025085,320
829.143433,318
829.261841,327
829.38031,313
829.498657,337
829.617004,312
829.735413,325
829.85376,319
829.972107,309
830.090515,309
830.208862,314
830.327209,310
830.445557,320
830.563904,315
830.682312,325
830.800659,317
830.919006,335
831.037354,323
831.155701,313
831.274048,310
831.392395,332
831.51062,321
831.629028,301
831.747314,317
831.865662,319
831.984009,316
832.102356,311
832.220642,322
832.338928,307
832.457275,307
832.575623,326
832.693909,332
832.812134,314
832.930481,332
833.048828,316
833.167114,324
833.2854,326
833.403687,314
833.521973,317
833.640259,330
833.758545,308
833.876831,339
833.995056,326
834.113281,315
834.231628,323
834.349915,312
834.468201,320
834.586426,328
834.704651,325
834.822998,321
834.941162,305
835.059448,330
835.177673,312
835.295959,328
835.414246,316
835.53241,321
835.650635,315
835.768921,315
835.887146,318
836.005371,314
836.123596,323
836.241821,317
836.360046,317
836.478271,328
836.596497,315
836.714722,323
836.832886,305
836.95105,317
837.069336,328
837.1875,321
837.305725,325
837.423889,323
837.542053,327
837.660339,325
837.778503,329
837.896667,322
838.014832,304
838.132996,326
838.25116,300
838.369385,323
838.487488,314
838.605713,324
838.723877,310
838.84198,325
838.960205,318
839.078308,326
839.196472,312
839.314636,321
839.4328,319
839.550964,317
839.669067,317
839.787231,316
839.905396,342
840.023499,320
840.141602,326
840.259766,324
840.377869,318
840.495972,306
840.614136,310
840.732239,315
840.850342,323
840.968445,320
841.086548,318
841.204651,321
841.322754,311
841.440918,329
841.55896,321
841.677002,328
841.795166,318
841.913208,326
842.031311,329
842.149353,322
842.267456,320
842.385498,323
842.503601,334
842.621643,326
842.739746,317
842.857788,327
842.97583,327
843.093933,324
843.211975,315
843.330017,318
843.44812,317
843.566101,316
843.684204,327
843.802246,336
843.920227,322
844.038269,321
844.156311,320
844.274292,323
844.392395,318
844.510376,337
844.628357,308
844.74646,329
844.864441,323
844.982422,322
845.100403,318
845.218384,326
845.336426,323
845.454468,328
845.572449,320
845.69043,315
845.808411,313
845.926453,323
846.044373,309
846.162354,323
846.280396,311
846.398315,331
846.516296,327
846.634216,330
846.752197,321
846.870178,316
846.988098,326
847.106079,323
847.22406,317
847.34198,333
847.4599,312
847.577881,321
847.695801,326
847.813782,328
847.931641,324
848.049561,326
848.167603,316
848.285461,316
848.403381,331
848.521362,329
848.639221,316
848.75708,334
848.875,322
848.99292,327
849.110901,308
849.22876,327
849.34668,334
849.464539,326
849.582458,323
849.700317,317
849.818176,314
849.936096,327
850.053955,318
850.171875,330
850.289673,312
850.407593,318
850.525452,325
850.643311,321
850.761169,316
850.878967,313
850.996887,322
851.114746,320
851.232544,316
851.350403,339
851.468262,330
851.58606,320
851.703979,311
851.821777,320
851.939636,334
852.057434,333
852.175232,315
852.293091,322
852.410889,331
852.528687,330
852.646545,319
852.764343,316
852.88208,324
852.999939,334
853.117676,341
853.235535,330
853.353271,330
853.471069,324
853.588928,309
853.706604,335
853.824402,318
853.9422,319
854.059998,323
854.177734,319
854.295532,314
854.413269,321
854.531006,323
854.648804,320
854.766541,328
854.884277,325
855.002014,329
855.119751,332
855.237549,318
855.355225,331
855.473022,319
855.590698,329
855.708435,313
855.826172,320
855.943848,326
856.061646,318
856.179321,330
856.296997,320
856.414795,333
856.53241,340
856.650085,339
856.767822,326
856.885559,327
857.003174,321
857.120911,310
857.238586,334
857.356201,311
857.473938,319
857.591614,319
857.709351,324
857.826965,322
857.944641,333
858.062317,318
858.179993,317
858.297668,317
858.415283,320
858.532959,327
858.650574,325
858.768188,323
858.885803,323
859.003479,328
859.121094,330
859.23877,327
859.356384,336
859.473999,316
859.591675,334
859.709229,318
859.826843,322
859.944458,334
860.062012,319
860.179626,323
860.297302,326
860.414856,322
860.532471,313
860.650024,321
860.767639,326
860.885193,321
861.002808,309
861.120361,328
861.237976,327
861.35553,336
861.473022,321
861.590698,324
861.708191,325
861.825745,323
861.943298,329
862.060852,325
862.178406,314
862.295959,331
862.413513,314
862.531006,317
862.64856,315
862.766113,317
862.883667,323
863.00116,326
863.118713,331
863.236206,320
863.353699,308
863.471252,314
863.588745,323
863.706177,323
863.82373,311
863.941162,324
864.058716,320
864.176208,319
864.29364,322
864.411194,321
864.528687,313
864.646118,320
864.763611,325
864.881042,307
864.998535,308
865.116028,319
865.233459,311
865.350891,320
865.468384,312
865.585754,328
865.703308,324
865.820679,334
865.938171,307
866.055542,317
866.173035,319
866.290466,317
866.407837,312
866.52533,301
866.6427,316
866.760071,323
866.877563,324
866.994934,322
867.112305,317
867.229736,331
867.347107,322
867.464539,318
867.58197,317
867.699341,314
867.81665,325
867.934082,346
868.051453,319
868.168823,326
868.286194,322
868.403564,323
868.520935,328
868.638306,321
868.755676,334
868.872986,307
868.990295,320
869.107727,325
869.225037,313
869.342346,324
869.459717,323
869.577026,334
869.694336,325
869.811707,317
869.929016,325
870.046326,305
870.163635,326
870.280945,319
870.398254,322
870.515564,310
870.632812,322
870.750183,319
870.867432,317
870.984741,316
871.102051,334
871.219299,318
871.336609,333
871.453918,322
871.571106,320
871.688416,328
871.805664,322
871.922852,319
872.040222,328
872.157471,312
872.274719,316
872.391968,318
872.509155,336
872.626465,332
872.743652,325
872.860962,324
872.978149,317
873.095337,330
873.212646,331
873.329834,332
873.44696,323
873.564209,333
873.681396,315
873.798645,325
873.915894,323
874.03302,333
874.150208,329
874.267456,328
874.384583,335
874.501831,322
874.618958,316
874.736145,345
874.853333,327
874.970459,333
875.087646,337
875.204834,324
875.32196,328
875.439148,314
875.556274,337
875.673401,312
875.790527,331
875.907715,321
876.024841,336
876.141968,317
876.259094,327
876.376282,322
876.493347,324
876.610474,337
876.7276,330
876.844727,306
876.961853,322
877.078918,325
877.195984,337
877.313171,315
877.430237,332
877.547302,320
877.664368,332
877.781433,322
877.898499,327
878.015625,316
878.13269,326
878.249695,309
878.366821,331
878.483887,308
878.600952,322
878.717957,324
878.834961,311
878.952087,315
879.069092,320
879.186157,321
879.303162,312
879.420227,319
879.537231,330
879.654236,321
879.77124,331
879.888306,319
880.005249,327
880.122314,319
880.239319,319
880.356323,320
880.473328,317
880.590271,331
880.707275,328
880.824341,315
880.941284,315
881.058228,328
881.175232,322
881.292236,317
881.40918,337
881.526123,332
881.643066,317
881.760071,309
881.877014,312
881.993958,306
882.11084,314
882.227783,333
882.344727,329
882.46167,314
882.578613,332
882.695618,296
882.812439,341
882.929382,316
883.046326,310
883.163208,324
883.280151,315
883.397034,307
883.513916,313
883.630798,334
883.747742,324
883.864563,309
883.981506,313
884.098389,312
884.21521,331
884.332153,323
884.448975,321
884.565796,318
884.682678,321
884.7995,327
884.916443,325
885.033264,328
885.150085,338
885.266968,332
885.383789,338
885.500671,334
885.617493,336
885.734314,316
885.851196,338
885.967896,332
886.084717,315
886.201599,328
886.318359,347
886.435181,320
886.552002,335
886.668762,321
886.785645,314
886.902344,323
887.019165,323
887.135925,335
887.252747,323
887.369446,333
887.486267,317
887.603027,317
887.719788,313
887.836548,326
887.953247,330
888.070068,336
888.186829,313
888.303528,335
888.420288,323
888.536987,315
888.653687,319
888.770447,311
888.887146,327
889.003967,322
889.120667,325
889.237305,308
889.354065,321
889.470703,335
889.587463,318
889.704163,311
889.820862,313
889.937561,315
890.054199,324
890.170837,308
890.287598,309
890.404236,313
890.520874,313
890.637634,306
890.754211,322
890.87085,311
890.987549,323
891.104187,318
891.220886,318
891.337463,315
891.454102,317
891.57074,318
891.687378,317
891.804077,313
891.920654,322
892.037231,306
892.15387,324
892.270447,312
892.387085,335
892.503723,328
892.6203,310
892.736877,316
892.853516,317
892.970032,315
893.08667,311
893.203186,312
893.319763,309
893.43634,328
893.552917,328
893.669556,315
893.786011,316
893.902588,330
894.019165,319
894.135681,314
894.252197,327
894.368835,317
894.485291,324
894.601868,310
894.718384,323
894.8349,307
894.951355,330
895.067932,328
895.184448,320
895.300964,311
895.417419,318
895.533936,317
895.650452,316
895.766907,330
895.883423,311
895.999878,315
896.116333,301
896.232849,310
896.349304,308
896.465759,324
896.582214,323
896.698669,315
896.815125,331
896.931641,301
897.048035,326
897.164551,306
897.280884,303
897.397339,318
897.513794,319
897.630249,317
897.746582,317
897.863098,318
897.979431,325
898.095886,314
898.212341,327
898.328674,312
898.445129,333
898.561462,299
898.677795,315
898.794312,305
898.910645,312
899.026978,307
899.143433,324
899.259766,306
899.37616,324
899.492493,320
899.608765,323
899.725159,315
899.841553,309
899.957947,311
900.07428,316
900.190552,322
900.306946,326
900.423157,322
900.53949,315
900.655884,319
900.772156,311
900.888489,326
901.004822,308
901.121033,331
901.237366,313
901.353699,319
901.46991,307
901.586304,315
901.702515,325
901.818787,336
901.93512,321
902.051331,317
902.167603,315
902.283875,326
902.400085,310
902.516418,323
902.632629,314
902.74884,325
902.865112,326
902.981384,323
903.097595,308
903.213867,322
903.330017,336
903.446289,316
903.5625,320
903.67865,316
903.794922,327
903.911072,324
904.027344,329
904.143494,321
904.259705,323
904.375916,327
904.492065,318
904.608215,329
904.724426,328
904.840576,319
904.956726,313
905.072876,307
905.189087,320
905.305176,318
905.421387,309
905.537537,319
905.653687,319
905.769775,317
905.885925,326
906.002014,323
906.118164,318
906.234314,318
906.350403,320
906.466492,303
906.582642,322
906.69873,309
906.814758,326
906.930908,318
907.046936,313
907.163086,299
907.279175,314
907.395264,323
907.511353,322
907.62738,311
907.743408,319
907.859497,312
907.975525,325
908.091553,310
908.207703,318
908.32373,325
908.439758,318
908.555786,313
908.671814,314
908.787842,318
908.90387,323
909.019775,324
909.135864,315
909.251892,319
909.367859,319
909.483826,318
909.599854,323
909.715881,318
909.831848,325
909.947815,325
910.063782,327
910.179749,330
910.295776,319
910.411743,318
910.527649,320
910.643616,313
910.759583,324
910.875488,314
910.991455,328
911.107361,314
911.223267,316
911.339294,326
911.4552,322
911.571106,312
911.687073,300
911.802979,318
911.918823,318
912.034729,313
912.150635,339
912.266602,309
912.382446,304
912.498352,310
912.614197,320
912.730103,307
912.846008,294
