792.44574,386
792.56488,417
792.68396,456
792.80304,416
792.92218,380
793.041199,356
793.160339,361
793.279419,396
793.398499,364
793.517578,359
793.636658,367
793.755737,381
793.874817,386
793.993896,371
794.112976,374
794.232056,351
794.351074,354
794.470215,362
794.589233,357
794.708313,357
794.827393,367
794.946411,343
795.065552,357
795.18457,370
795.303589,365
795.422668,333
795.541687,354
795.660767,355
795.779846,358
795.898865,347
796.017883,355
796.136963,370
796.255981,373
796.375061,328
796.49408,349
796.613037,351
796.732117,349
796.851135,348
796.970154,341
797.089233,342
797.208191,333
797.327271,341
797.446228,342
797.565186,341
797.684265,343
797.803223,340
797.922241,342
798.04126,349
798.160278,330
798.279297,344
798.398315,339
798.517273,328
798.636292,339
798.75531,341
798.874268,335
798.993286,341
799.112244,352
799.231323,340
799.350281,357
799.469238,348
799.588257,333
799.707153,348
799.826111,331
799.945129,334
800.064087,337
800.183044,339
800.302063,340
800.421021,339
800.539978,334
800.658936,325
800.777893,335
800.896912,342
801.015747,351
801.134705,331
801.253723,336
801.37262,325
801.491638,338
801.610535,334
801.729492,335
801.84845,334
801.967407,322
802.086243,337
802.205261,336
802.324158,333
802.443115,326
802.562073,328
802.680969,342
802.799927,337
802.918762,349
803.037659,322
803.156677,349
803.275574,328
803.39447,333
803.513428,322
803.632263,340
803.751221,329
803.870117,335
803.989014,330
804.107971,328
804.226746,337
804.345642,321
804.4646,337
804.583496,342
804.702393,330
804.821228,331
804.940125,325
805.059021,327
805.177917,332
805.296814,338
805.415649,337
805.534546,324
805.653442,331
805.772278,328
805.891113,333
806.01001,327
806.128906,335
806.247742,329
806.366577,326
806.485413,325
806.604309,347
806.723145,326
806.84198,328
806.960876,323
807.079712,326
807.198486,335
807.317383,327
807.436218,329
807.554993,331
807.673889,332
807.792725,335
807.91156,335
808.030396,339
808.14917,335
808.268005,317
808.386841,324
808.505676,323
808.624451,324
808.743286,329
808.862122,324
808.980896,336
809.099731,337
809.218506,315
809.337341,337
809.456116,327
809.57489,337
809.693726,334
809.8125,321
809.931274,325
810.050049,327
810.168884,327
810.287659,321
810.406372,319
810.525269,339
810.643982,338
810.762756,331
810.881531,328
811.000305,327
811.11908,321
811.237854,336
811.356567,319
811.475403,327
811.594116,329
811.71283,329
811.831604,328
811.950378,341
812.069153,323
812.187927,331
812.30658,320
812.425415,327
812.544128,313
812.662781,344
812.781616,350
812.900269,330
813.019043,322
813.137756,345
813.256531,313
813.375244,340
813.493896,310
813.612671,330
813.731384,320
813.850037,324
813.96875,315
814.087524,316
814.206238,341
814.324951,313
814.443604,325
814.562256,317
814.68103,335
814.799683,331
814.918335,334
815.037109,318
815.155762,334
815.274475,323
815.393188,321
815.511841,341
815.630554,334
815.749146,319
815.867859,329
815.986572,329
816.105164,323
816.223877,333
816.342529,321
816.461182,327
816.579895,325
816.698486,332
816.817139,323
816.935791,317
817.054504,314
817.173096,342
817.291748,317
817.4104,339
817.529053,314
817.647644,322
817.766235,325
817.884949,328
818.00354,324
818.122192,324
818.240845,328
818.359436,321
818.478088,329
818.59668,334
818.715271,328
818.833923,331
818.952515,341
819.071106,334
819.189758,323
819.30835,315
819.426941,318
819.545532,314
819.664124,329
819.782715,335
819.901306,324
820.019897,329
820.138489,330
820.25708,320
820.375671,312
820.494202,318
820.612732,324
820.731384,326
820.849915,311
820.968506,341
821.087097,312
821.205627,322
821.324158,324
821.442749,325
821.561279,325
821.679871,332
821.798401,330
821.916931,333
822.035461,332
822.154053,328
822.272583,331
822.391174,340
822.509583,315
822.628174,315
822.746704,309
822.865234,319
822.983765,323
823.102295,328
823.220825,320
823.339294,313
823.457825,327
823.576355,329
823.694824,329
823.813354,314
823.931885,326
824.050354,310
824.168884,333
824.287354,316
824.405823,331
824.524353,330
824.642822,330
824.761353,324
824.879822,300
824.998291,324
825.116699,323
825.235291,316
825.353699,320
825.472168,328
825.590637,320
825.709106,325
825.827576,315
825.946045,330
826.064453,304
826.182983,309
826.301392,307
826.4198,329
826.53833,309
826.656738,320
826.775208,306
826.893677,319
827.012024,305
827.130493,335
827.248962,314
827.36731,331
827.485779,309
827.604248,328
827.722595,315
827.841064,322
827.959412,328
828.077942,309
828.196289,321
828.314636,328
828.433105,330
828.551514,313
828.669861,330
828.78833,318
828.906677,329
829.025085,323
829.143433,316
829.261841,325
829.38031,318
829.498657,325
829.617004,318
829.735413,317
829.85376,317
829.972107,321
830.090515,330
830.208862,324
830.327209,307
830.445557,328
830.563904,325
830.682312,330
830.800659,321
830.919006,317
831.037354,324
831.155701,331
831.274048,317
831.392395,319
831.51062,318
831.629028,315
831.747314,327
831.865662,323
831.984009,323
832.102356,319
832.220642,311
832.338928,316
832.457275,308
832.575623,328
832.693909,329
832.812134,325
832.930481,309
833.048828,322
833.167114,310
833.2854,316
833.403687,324
833.521973,330
833.640259,327
833.758545,318
833.876831,325
833.995056,340
834.113281,340
834.231628,316
834.349915,327
834.468201,326
834.586426,310
834.704651,334
834.822998,319
834.941162,319
835.059448,318
835.177673,326
835.295959,316
835.414246,320
835.53241,320
835.650635,329
835.768921,313
835.887146,314
836.005371,332
836.123596,313
836.241821,313
836.360046,318
836.478271,324
836.596497,321
836.714722,327
836.832886,317
836.95105,312
837.069336,321
837.1875,307
837.305725,319
837.423889,327
837.542053,321
837.660339,315
837.778503,325
837.896667,318
838.014832,324
838.132996,333
838.25116,322
838.369385,309
838.487488,322
838.605713,326
838.723877,313
838.84198,321
838.960205,325
839.078308,299
839.196472,320
839.314636,319
839.4328,321
839.550964,319
839.669067,327
839.787231,323
839.905396,337
840.023499,319
840.141602,321
840.259766,323
840.377869,333
840.495972,315
840.614136,329
840.732239,337
840.850342,333
840.968445,322
841.086548,325
841.204651,328
841.322754,339
841.440918,332
841.55896,320
841.677002,325
841.795166,325
841.913208,334
842.031311,328
842.149353,325
842.267456,332
842.385498,335
842.503601,326
842.621643,335
842.739746,342
842.857788,306
842.97583,322
843.093933,315
843.211975,317
843.330017,329
843.44812,329
843.566101,326
843.684204,332
843.802246,319
843.920227,325
844.038269,313
844.156311,327
844.274292,329
844.392395,316
844.510376,332
844.628357,310
844.74646,319
844.864441,335
844.982422,311
845.100403,326
845.218384,326
845.336426,330
845.454468,324
845.572449,316
845.69043,316
845.808411,325
845.926453,326
846.044373,328
846.162354,335
846.280396,320
846.398315,324
846.516296,338
846.634216,323
846.752197,318
846.870178,325
846.988098,329
847.106079,328
847.22406,329
847.34198,322
847.4599,326
847.577881,327
847.695801,323
847.813782,323
847.931641,320
848.049561,314
848.167603,330
848.285461,324
848.403381,305
848.521362,319
848.639221,322
848.75708,317
848.875,337
848.99292,334
849.110901,323
849.22876,325
849.34668,328
849.464539,316
849.582458,307
849.700317,325
849.818176,327
849.936096,329
850.053955,331
850.171875,320
850.289673,325
850.407593,346
850.525452,321
850.643311,323
850.761169,319
850.878967,318
850.996887,340
851.114746,311
851.232544,339
851.350403,327
851.468262,323
851.58606,330
851.703979,328
851.821777,325
851.939636,328
852.057434,305
852.175232,318
852.293091,314
852.410889,329
852.528687,330
852.646545,330
852.764343,323
852.88208,339
852.999939,323
853.117676,327
853.235535,321
853.353271,339
853.471069,319
853.588928,321
853.706604,316
853.824402,317
853.9422,326
854.059998,323
854.177734,323
854.295532,339
854.413269,311
854.531006,330
854.648804,312
854.766541,323
854.884277,321
855.002014,318
855.119751,320
855.237549,339
855.355225,318
855.473022,321
855.590698,330
855.708435,326
855.826172,318
855.943848,331
856.061646,326
856.179321,303
856.296997,332
856.414795,334
856.53241,311
856.650085,331
856.767822,318
856.885559,327
857.003174,312
857.120911,320
857.238586,319
857.356201,333
857.473938,323
857.591614,333
857.709351,323
857.826965,319
857.944641,322
858.062317,334
858.179993,324
858.297668,342
858.415283,328
858.532959,324
858.650574,312
858.768188,330
858.885803,321
859.003479,323
859.121094,323
859.23877,329
859.356384,323
859.473999,330
859.591675,322
859.709229,328
859.826843,329
859.944458,329
860.062012,329
860.179626,318
860.297302,315
860.414856,327
860.532471,320
860.650024,326
860.767639,311
860.885193,323
861.002808,323
861.120361,334
861.237976,316
861.35553,324
861.473022,316
861.590698,325
861.708191,312
861.825745,322
861.943298,318
862.060852,322
862.178406,331
862.295959,325
862.413513,313
862.531006,324
862.64856,307
862.766113,323
862.883667,307
863.00116,333
863.118713,321
863.236206,322
863.353699,325
863.471252,332
863.588745,320
863.706177,325
863.82373,317
863.941162,334
864.058716,321
864.176208,333
864.29364,313
864.411194,328
864.528687,318
864.646118,325
864.763611,332
864.881042,319
864.998535,326
865.116028,329
865.233459,322
865.350891,327
865.468384,319
865.585754,338
865.703308,326
865.820679,334
865.938171,313
866.055542,329
866.173035,332
866.290466,314
866.407837,324
866.52533,328
866.6427,327
866.760071,324
866.877563,311
866.994934,313
867.112305,317
867.229736,327
867.347107,318
867.464539,317
867.58197,320
867.699341,334
867.81665,311
867.934082,333
868.051453,324
868.168823,326
868.286194,320
868.403564,317
868.520935,324
868.638306,324
868.755676,333
868.872986,316
868.990295,320
869.107727,320
869.225037,336
869.342346,324
869.459717,321
869.577026,334
869.694336,320
869.811707,333
869.929016,323
870.046326,320
870.163635,321
870.280945,336
870.398254,314
870.515564,325
870.632812,321
870.750183,325
870.867432,327
870.984741,314
871.102051,335
871.219299,328
871.336609,320
871.453918,335
871.571106,322
871.688416,311
871.805664,326
871.922852,320
872.040222,318
872.157471,322
872.274719,324
872.391968,323
872.509155,315
872.626465,326
872.743652,323
872.860962,334
872.978149,335
873.095337,319
873.212646,330
873.329834,328
873.44696,320
873.564209,327
873.681396,327
873.798645,317
873.915894,316
874.03302,338
874.150208,334
874.267456,329
874.384583,322
874.501831,324
874.618958,331
874.736145,322
874.853333,327
874.970459,320
875.087646,335
875.204834,329
875.32196,344
875.439148,324
875.556274,322
875.673401,326
875.790527,324
875.907715,318
876.024841,327
876.141968,327
876.259094,342
876.376282,330
876.493347,316
876.610474,320
876.7276,313
876.844727,332
876.961853,326
877.078918,336
877.195984,318
877.313171,324
877.430237,325
877.547302,331
877.664368,321
877.781433,312
877.898499,319
878.015625,316
878.13269,319
878.249695,319
878.366821,313
878.483887,332
878.600952,321
878.717957,316
878.834961,327
878.952087,317
879.069092,320
879.186157,322
879.303162,324
879.420227,325
879.537231,327
879.654236,323
879.77124,325
879.888306,338
880.005249,312
880.122314,331
880.239319,316
880.356323,321
880.473328,305
880.590271,319
880.707275,311
880.824341,321
880.941284,329
881.058228,323
881.175232,318
881.292236,314
881.40918,318
881.526123,337
881.643066,323
881.760071,320
881.877014,312
881.993958,326
882.11084,319
882.227783,330
882.344727,321
882.46167,334
882.578613,316
882.695618,326
882.812439,313
882.929382,317
883.046326,316
883.163208,335
883.280151,309
883.397034,328
883.513916,308
883.630798,321
883.747742,318
883.864563,330
883.981506,328
884.098389,335
884.21521,322
884.332153,320
884.448975,320
884.565796,329
884.682678,314
884.7995,319
884.916443,334
885.033264,333
885.150085,313
885.266968,319
885.383789,334
885.500671,323
885.617493,329
885.734314,332
885.851196,335
885.967896,334
886.084717,325
886.201599,324
886.318359,319
886.435181,332
886.552002,332
886.668762,336
886.785645,320
886.902344,334
887.019165,331
887.135925,333
887.252747,325
887.369446,325
887.486267,334
887.603027,332
887.719788,323
887.836548,326
887.953247,334
888.070068,333
888.186829,332
888.303528,322
888.420288,327
888.536987,318
888.653687,311
888.770447,318
888.887146,306
889.003967,326
889.120667,320
889.237305,333
889.354065,334
889.470703,321
889.587463,320
889.704163,325
889.820862,313
889.937561,306
890.054199,324
890.170837,322
890.287598,319
890.404236,326
890.520874,318
890.637634,320
890.754211,322
890.87085,338
890.987549,314
891.104187,328
891.220886,330
891.337463,324
891.454102,323
891.57074,325
891.687378,308
891.804077,311
891.920654,318
892.037231,333
892.15387,322
892.270447,324
892.387085,314
892.503723,319
892.6203,321
892.736877,332
892.853516,333
892.970032,322
893.08667,313
893.203186,319
893.319763,317
893.43634,311
893.552917,313
893.669556,330
893.786011,316
893.902588,325
894.019165,313
894.135681,319
894.252197,319
894.368835,325
894.485291,306
894.601868,331
894.718384,317
894.8349,329
894.951355,311
895.067932,334
895.184448,314
895.300964,330
895.417419,307
895.533936,319
895.650452,316
895.766907,314
895.883423,312
895.999878,319
896.116333,321
896.232849,321
896.349304,328
896.465759,317
896.582214,319
896.698669,326
896.815125,309
896.931641,322
897.048035,303
897.164551,317
897.280884,330
897.397339,306
897.513794,320
897.630249,348
897.746582,315
897.863098,321
897.979431,330
898.095886,316
898.212341,318
898.328674,323
898.445129,317
898.561462,327
898.677795,306
898.794312,321
898.910645,314
899.026978,323
899.143433,307
899.259766,323
899.37616,320
899.492493,314
899.608765,313
899.725159,318
899.841553,322
899.957947,327
900.07428,315
900.190552,326
900.306946,307
900.423157,335
900.53949,312
900.655884,319
900.772156,317
900.888489,320
901.004822,326
901.121033,326
901.237366,325
901.353699,320
901.46991,318
901.586304,324
901.702515,318
901.818787,307
901.93512,330
902.051331,330
902.167603,317
902.283875,335
902.400085,327
902.516418,318
902.632629,325
902.74884,332
902.865112,329
902.981384,321
903.097595,328
903.213867,328
903.330017,328
903.446289,322
903.5625,323
903.67865,334
903.794922,324
903.911072,332
904.027344,306
904.143494,311
904.259705,329
904.375916,313
904.492065,337
904.608215,327
904.724426,320
904.840576,329
904.956726,317
905.072876,323
905.189087,326
905.305176,321
905.421387,315
905.537537,320
905.653687,323
905.769775,330
905.885925,316
906.002014,332
906.118164,315
906.234314,321
906.350403,320
906.466492,320
906.582642,315
906.69873,329
906.814758,305
906.930908,325
907.046936,342
907.163086,319
907.279175,333
907.395264,325
907.511353,319
907.62738,326
907.743408,313
907.859497,330
907.975525,329
908.091553,316
908.207703,301
908.32373,309
908.439758,306
908.555786,318
908.671814,316
908.787842,326
908.90387,303
909.019775,326
909.135864,313
909.251892,318
909.367859,306
909.483826,317
909.599854,311
909.715881,333
909.831848,313
909.947815,315
910.063782,319
910.179749,315
910.295776,310
910.411743,320
910.527649,315
910.643616,318
910.759583,316
910.875488,340
910.991455,324
911.107361,325
911.223267,306
911.339294,337
911.4552,308
911.571106,315
911.687073,323
911.802979,331
911.918823,307
912.034729,319
912.150635,307
912.266602,311
912.382446,327
912.498352,332
912.614197,321
912.730103,320
912.846008,321
792.44574,364
792.56488,406
792.68396,458
792.80304,440
792.92218,382
793.041199,371
793.160339,373
793.279419,382
793.398499,372
793.517578,358
793.636658,349
793.755737,368
793.874817,398
793.993896,369
794.112976,363
794.232056,356
794.351074,352
794.470215,368
794.589233,344
794.708313,355
794.827393,344
794.946411,363
795.065552,368
795.18457,365
795.303589,353
795.422668,365
795.541687,351
795.660767,364
795.779846,348
795.898865,359
796.017883,350
796.136963,347
796.255981,362
796.375061,337
796.49408,344
796.613037,344
796.732117,348
796.851135,344
796.970154,343
797.089233,355
797.208191,350
797.327271,343
797.446228,349
797.565186,344
797.684265,343
797.803223,324
797.922241,347
798.04126,338
798.160278,343
798.279297,341
798.398315,336
798.517273,344
798.636292,356
798.75531,333
798.874268,353
798.993286,328
799.112244,334
799.231323,334
799.350281,337
799.469238,337
799.588257,354
799.707153,339
799.826111,335
799.945129,342
800.064087,329
800.183044,341
800.302063,328
800.421021,333
800.539978,318
800.658936,350
800.777893,340
800.896912,328
801.015747,336
801.134705,323
801.253723,337
801.37262,317
801.491638,326
801.610535,341
801.729492,319
801.84845,322
801.967407,333
802.086243,342
802.205261,331
802.324158,331
802.443115,335
802.562073,339
802.680969,335
802.799927,326
802.918762,323
803.037659,332
803.156677,337
803.275574,330
803.39447,318
803.513428,332
803.632263,342
803.751221,336
803.870117,330
803.989014,326
804.107971,342
804.226746,321
804.345642,339
804.4646,331
804.583496,323
804.702393,337
804.821228,332
804.940125,355
805.059021,328
805.177917,332
805.296814,308
805.415649,329
805.534546,325
805.653442,328
805.772278,336
805.891113,318
806.01001,333
806.128906,328
806.247742,315
806.366577,344
806.485413,326
806.604309,334
806.723145,322
806.84198,343
806.960876,317
807.079712,334
807.198486,323
807.317383,331
807.436218,324
807.554993,331
807.673889,322
807.792725,333
807.91156,339
808.030396,332
808.14917,332
808.268005,320
808.386841,336
808.505676,330
808.624451,337
808.743286,323
808.862122,337
808.980896,322
809.099731,316
809.218506,345
809.337341,327
809.456116,328
809.57489,327
809.693726,331
809.8125,308
809.931274,349
810.050049,334
810.168884,330
810.287659,322
810.406372,319
810.525269,334
810.643982,325
810.762756,326
810.881531,326
811.000305,330
811.11908,335
811.237854,319
811.356567,334
811.475403,307
811.594116,336
811.71283,325
811.831604,331
811.950378,332
812.069153,336
812.187927,329
812.30658,318
812.425415,344
812.544128,320
812.662781,310
812.781616,342
812.900269,331
813.019043,332
813.137756,315
813.256531,325
813.375244,324
813.493896,335
813.612671,327
813.731384,337
813.850037,331
813.96875,338
814.087524,330
814.206238,311
814.324951,329
814.443604,324
814.562256,329
814.68103,328
814.799683,336
814.918335,327
815.037109,319
815.155762,330
815.274475,323
815.393188,326
815.511841,329
815.630554,328
815.749146,321
815.867859,335
815.986572,326
816.105164,322
816.223877,325
816.342529,326
816.461182,319
816.579895,328
816.698486,339
816.817139,337
816.935791,334
817.054504,341
817.173096,332
817.291748,323
817.4104,319
817.529053,330
817.647644,325
817.766235,327
817.884949,325
818.00354,334
818.122192,323
818.240845,323
818.359436,326
818.478088,327
818.59668,326
818.715271,332
818.833923,338
818.952515,323
819.071106,321
819.189758,323
819.30835,329
819.426941,323
819.545532,326
819.664124,320
819.782715,314
819.901306,334
820.019897,334
820.138489,328
820.25708,319
820.375671,317
820.494202,326
820.612732,317
820.731384,314
820.849915,336
820.968506,324
821.087097,312
821.205627,318
821.324158,329
821.442749,312
821.561279,337
821.679871,327
821.798401,316
821.916931,329
822.035461,317
822.154053,318
822.272583,314
822.391174,325
822.509583,321
822.628174,321
822.746704,320
822.865234,331
822.983765,325
823.102295,314
823.220825,329
823.339294,318
823.457825,324
823.576355,325
823.694824,331
823.813354,323
823.931885,341
824.050354,321
824.168884,313
824.287354,323
824.405823,332
824.524353,318
824.642822,333
824.761353,320
824.879822,314
824.998291,323
825.116699,317
825.235291,309
825.353699,343
825.472168,306
825.590637,320
825.709106,324
825.827576,322
825.946045,328
826.064453,331
826.182983,325
826.301392,328
826.4198,320
826.53833,323
826.656738,317
826.775208,311
826.893677,321
827.012024,316
827.130493,316
827.248962,318
827.36731,320
827.485779,315
827.604248,327
827.722595,329
827.841064,331
827.959412,307
828.077942,307
828.196289,328
828.314636,326
828.433105,313
828.551514,325
828.669861,334
828.78833,318
828.906677,324
829.025085,315
829.143433,319
829.261841,310
829.38031,311
829.498657,326
829.617004,315
829.735413,316
829.85376,331
829.972107,323
830.090515,324
830.208862,319
830.327209,319
830.445557,330
830.563904,332
830.682312,313
830.800659,322
830.919006,322
831.037354,330
831.155701,324
831.274048,319
831.392395,316
831.51062,326
831.629028,321
831.747314,326
831.865662,315
831.984009,327
832.102356,322
832.220642,322
832.338928,314
832.457275,313
832.575623,322
832.693909,327
832.812134,311
832.930481,332
833.048828,318
833.167114,326
833.2854,323
833.403687,319
833.521973,320
833.640259,326
833.758545,317
833.876831,322
833.995056,316
834.113281,326
834.231628,324
834.349915,313
834.468201,306
834.586426,319
834.704651,321
834.822998,317
834.941162,322
835.059448,322
835.177673,323
835.295959,324
835.414246,335
835.53241,322
835.650635,312
835.768921,325
835.887146,326
836.005371,323
836.123596,320
836.241821,333
836.360046,320
836.478271,317
836.596497,319
836.714722,321
836.832886,326
836.95105,318
837.069336,325
837.1875,328
837.305725,302
837.423889,324
837.542053,317
837.660339,337
837.778503,325
837.896667,315
838.014832,325
838.132996,317
838.25116,317
838.369385,323
838.487488,328
838.605713,334
838.723877,318
838.84198,319
838.960205,325
839.078308,327
839.196472,315
839.314636,309
839.4328,327
839.550964,324
839.669067,313
839.787231,336
839.905396,318
840.023499,341
840.141602,322
840.259766,325
840.377869,321
840.495972,321
840.614136,323
840.732239,326
840.850342,310
840.968445,335
841.086548,315
841.204651,331
841.322754,330
841.440918,333
841.55896,324
841.677002,326
841.795166,323
841.913208,321
842.031311,325
842.149353,327
842.267456,319
842.385498,325
842.503601,318
842.621643,329
842.739746,316
842.857788,318
842.97583,316
843.093933,343
843.211975,315
843.330017,326
843.44812,324
843.566101,317
843.684204,329
843.802246,330
843.920227,326
844.038269,322
844.156311,329
844.274292,322
844.392395,310
844.510376,317
844.628357,312
844.74646,331
844.864441,324
844.982422,313
845.100403,323
845.218384,320
845.336426,327
845.454468,330
845.572449,323
845.69043,333
845.808411,311
845.926453,335
846.044373,317
846.162354,317
846.280396,329
846.398315,317
846.516296,321
846.634216,332
846.752197,311
846.870178,324
846.988098,330
847.106079,320
847.22406,319
847.34198,315
847.4599,324
847.577881,327
847.695801,327
847.813782,323
847.931641,329
848.049561,333
848.167603,326
848.285461,320
848.403381,331
848.521362,330
848.639221,323
848.75708,325
848.875,331
848.99292,314
849.110901,324
849.22876,327
849.34668,323
849.464539,314
849.582458,322
849.700317,318
849.818176,328
849.936096,313
850.053955,327
850.171875,321
850.289673,322
850.407593,332
850.525452,337
850.643311,331
850.761169,326
850.878967,324
850.996887,329
851.114746,325
851.232544,310
851.350403,322
851.468262,328
851.58606,328
851.703979,308
851.821777,320
851.939636,319
852.057434,321
852.175232,323
852.293091,315
852.410889,323
852.528687,343
852.646545,322
852.764343,335
852.88208,302
852.999939,318
853.117676,332
853.235535,326
853.353271,320
853.471069,326
853.588928,347
853.706604,329
853.824402,313
853.9422,323
854.059998,312
854.177734,331
854.295532,325
854.413269,318
854.531006,325
854.648804,314
854.766541,322
854.884277,331
855.002014,328
855.119751,347
855.237549,315
855.355225,331
855.473022,317
855.590698,328
855.708435,307
855.826172,320
855.943848,334
856.061646,328
856.179321,326
856.296997,331
856.414795,319
856.53241,317
856.650085,330
856.767822,331
856.885559,330
857.003174,323
857.120911,342
857.238586,334
857.356201,329
857.473938,329
857.591614,329
857.709351,336
857.826965,321
857.944641,339
858.062317,314
858.179993,331
858.297668,337
858.415283,314
858.532959,329
858.650574,332
858.768188,324
858.885803,336
859.003479,329
859.121094,318
859.23877,311
859.356384,324
859.473999,331
859.591675,326
859.709229,317
859.826843,332
859.944458,326
860.062012,335
860.179626,336
860.297302,317
860.414856,325
860.532471,332
860.650024,323
860.767639,322
860.885193,326
861.002808,332
861.120361,319
861.237976,326
861.35553,323
861.473022,316
861.590698,316
861.708191,312
861.825745,332
861.943298,328
862.060852,331
862.178406,325
862.295959,329
862.413513,323
862.531006,309
862.64856,304
862.766113,326
862.883667,329
863.00116,317
863.118713,326
863.236206,318
863.353699,333
863.471252,303
863.588745,317
863.706177,317
863.82373,324
863.941162,329
864.058716,318
864.176208,321
864.29364,325
864.411194,308
864.528687,320
864.646118,329
864.763611,318
864.881042,319
864.998535,316
865.116028,321
865.233459,318
865.350891,316
865.468384,322
865.585754,314
865.703308,323
865.820679,318
865.938171,337
866.055542,322
866.173035,334
866.290466,317
866.407837,320
866.52533,319
866.6427,333
866.760071,329
866.877563,320
866.994934,319
867.112305,333
867.229736,327
867.347107,321
867.464539,316
867.58197,324
867.699341,325
867.81665,324
867.934082,326
868.051453,323
868.168823,322
868.286194,326
868.403564,317
868.520935,328
868.638306,326
868.755676,308
868.872986,306
868.990295,338
869.107727,326
869.225037,325
869.342346,316
869.459717,318
869.577026,335
869.694336,339
869.811707,326
869.929016,323
870.046326,320
870.163635,330
870.280945,307
870.398254,325
870.515564,329
870.632812,327
870.750183,320
870.867432,326
870.984741,317
871.102051,332
871.219299,334
871.336609,321
871.453918,329
871.571106,312
871.688416,322
871.805664,329
871.922852,328
872.040222,328
872.157471,333
872.274719,328
872.391968,319
872.509155,327
872.626465,309
872.743652,325
872.860962,334
872.978149,340
873.095337,340
873.212646,314
873.329834,328
873.44696,329
873.564209,324
873.681396,325
873.798645,326
873.915894,327
874.03302,313
874.150208,336
874.267456,312
874.384583,323
874.501831,337
874.618958,325
874.736145,323
874.853333,328
874.970459,336
875.087646,343
875.204834,334
875.32196,332
875.439148,330
875.556274,327
875.673401,319
875.790527,312
875.907715,330
876.024841,310
876.141968,319
876.259094,318
876.376282,325
876.493347,334
876.610474,316
876.7276,314
876.844727,321
876.961853,331
877.078918,324
877.195984,338
877.313171,306
877.430237,313
877.547302,307
877.664368,323
877.781433,328
877.898499,331
878.015625,320
878.13269,329
878.249695,319
878.366821,335
878.483887,329
878.600952,322
878.717957,322
878.834961,322
878.952087,327
879.069092,310
879.186157,325
879.303162,308
879.420227,329
879.537231,326
879.654236,309
879.77124,331
879.888306,308
880.005249,322
880.122314,317
880.239319,319
880.356323,321
880.473328,318
880.590271,320
880.707275,331
880.824341,323
880.941284,324
881.058228,314
881.175232,320
881.292236,311
881.40918,319
881.526123,323
881.643066,314
881.760071,331
881.877014,311
881.993958,319
882.11084,327
882.227783,321
882.344727,334
882.46167,306
882.578613,320
882.695618,331
882.812439,328
882.929382,326
883.046326,333
883.163208,326
883.280151,321
883.397034,310
883.513916,335
883.630798,307
883.747742,310
883.864563,325
883.981506,319
884.098389,312
884.21521,324
884.332153,326
884.448975,324
884.565796,318
884.682678,333
884.7995,328
884.916443,333
885.033264,332
885.150085,334
885.266968,335
885.383789,333
885.500671,325
885.617493,325
885.734314,339
885.851196,335
885.967896,333
886.084717,331
886.201599,331
886.318359,332
886.435181,331
886.552002,333
886.668762,340
886.785645,336
886.902344,323
887.019165,334
887.135925,329
887.252747,328
887.369446,334
887.486267,322
887.603027,314
887.719788,332
887.836548,315
887.953247,335
888.070068,323
888.186829,330
888.303528,324
888.420288,322
888.536987,333
888.653687,314
888.770447,319
888.887146,321
889.003967,312
889.120667,329
889.237305,316
889.354065,314
889.470703,316
889.587463,317
889.704163,316
889.820862,325
889.937561,308
890.054199,317
890.170837,304
890.287598,313
890.404236,316
890.520874,325
890.637634,324
890.754211,309
890.87085,338
890.987549,317
891.104187,318
891.220886,318
891.337463,317
891.454102,326
891.57074,312
891.687378,323
891.804077,324
891.920654,313
892.037231,318
892.15387,314
892.270447,321
892.387085,319
892.503723,306
892.6203,326
892.736877,316
892.853516,327
892.970032,315
893.08667,304
893.203186,304
893.319763,322
893.43634,313
893.552917,332
893.669556,317
893.786011,315
893.902588,326
894.019165,327
894.135681,320
894.252197,317
894.368835,312
894.485291,312
894.601868,309
894.718384,313
894.8349,315
894.951355,328
895.067932,315
895.184448,325
895.300964,325
895.417419,321
895.533936,308
895.650452,313
895.766907,323
895.883423,308
895.999878,314
896.116333,329
896.232849,311
896.349304,314
896.465759,316
896.582214,316
896.698669,327
896.815125,326
896.931641,310
897.048035,328
897.164551,304
897.280884,330
897.397339,318
897.513794,326
897.630249,311
897.746582,325
897.863098,318
897.979431,315
898.095886,323
898.212341,316
898.328674,313
898.445129,324
898.561462,308
898.677795,322
898.794312,315
898.910645,329
899.026978,324
899.143433,317
899.259766,317
899.37616,336
899.492493,316
899.608765,316
899.725159,308
899.841553,312
899.957947,313
900.07428,319
900.190552,330
900.306946,318
900.423157,331
900.53949,323
900.655884,314
900.772156,314
900.888489,326
901.004822,323
901.121033,316
901.237366,315
901.353699,307
901.46991,323
901.586304,314
901.702515,319
901.818787,325
901.93512,326
902.051331,321
902.167603,335
902.283875,325
902.400085,330
902.516418,327
902.632629,328
902.74884,310
902.865112,339
902.981384,329
903.097595,327
903.213867,331
903.330017,330
903.446289,311
903.5625,334
903.67865,323
903.794922,331
903.911072,326
904.027344,326
904.143494,306
904.259705,318
904.375916,330
904.492065,335
904.608215,321
904.724426,318
904.840576,315
904.956726,321
905.072876,330
905.189087,338
905.305176,319
905.421387,305
905.537537,329
905.653687,318
905.769775,308
905.885925,330
906.002014,301
906.118164,313
906.234314,311
906.350403,328
906.466492,313
906.582642,314
906.69873,312
906.814758,315
906.930908,313
907.046936,323
907.163086,328
907.279175,317
907.395264,310
907.511353,310
907.62738,316
907.743408,327
907.859497,309
907.975525,310
908.091553,314
908.207703,309
908.32373,314
908.439758,326
908.555786,308
908.671814,318
908.787842,317
908.90387,325
909.019775,303
909.135864,322
909.251892,323
909.367859,326
909.483826,315
909.599854,320
909.715881,322
909.831848,323
909.947815,314
910.063782,319
910.179749,316
910.295776,321
910.411743,329
910.527649,319
910.643616,315
910.759583,313
910.875488,318
910.991455,322
911.107361,312
911.223267,325
911.339294,313
911.4552,315
911.571106,320
911.687073,315
911.802979,324
911.918823,314
912.034729,309
912.150635,310
912.266602,319
912.382446,319
912.498352,313
912.614197,324
912.730103,311
912.846008,323
792.44574,379
792.56488,408
792.68396,453
792.80304,423
792.92218,404
793.041199,370
793.160339,369
793.279419,378
793.398499,381
793.517578,360
793.636658,380
793.755737,379
793.874817,376
793.993896,384
794.112976,354
794.232056,371
794.351074,370
794.470215,354
794.589233,360
794.708313,343
794.827393,365
794.946411,354
795.065552,374
795.18457,374
795.303589,348
795.422668,338
795.541687,340
795.660767,342
795.779846,344
795.898865,353
796.017883,348
796.136963,352
796.255981,350
796.375061,348
796.49408,369
796.613037,341
796.732117,354
796.851135,343
796.970154,336
797.089233,352
797.208191,332
797.327271,348
797.446228,333
797.565186,336
797.684265,337
797.803223,349
797.922241,352
798.04126,337
798.160278,345
798.279297,340
798.398315,338
798.517273,340
798.636292,340
798.75531,338
798.874268,348
798.993286,341
799.112244,352
799.231323,338
799.350281,345
799.469238,344
799.588257,336
799.707153,343
799.826111,342
799.945129,338
800.064087,350
800.183044,331
800.302063,333
800.421021,335
800.539978,335
800.658936,333
800.777893,333
800.896912,348
801.015747,354
801.134705,329
801.253723,336
801.37262,324
801.491638,351
801.610535,341
801.729492,332
801.84845,339
801.967407,338
802.086243,335
802.205261,349
802.324158,333
802.443115,334
802.562073,331
802.680969,333
802.799927,324
802.918762,330
803.037659,315
803.156677,341
803.275574,320
803.39447,350
803.513428,343
803.632263,345
803.751221,320
803.870117,347
803.989014,327
804.107971,332
804.226746,322
804.345642,327
804.4646,331
804.583496,327
804.702393,321
804.821228,342
804.940125,328
805.059021,340
805.177917,335
805.296814,339
805.415649,325
805.534546,332
805.653442,339
805.772278,328
805.891113,326
806.01001,324
806.128906,326
806.247742,336
806.366577,341
806.485413,321
806.604309,328
806.723145,335
806.84198,323
806.960876,332
807.079712,333
807.198486,338
807.317383,338
807.436218,320
807.554993,320
807.673889,326
807.792725,321
807.91156,326
808.030396,336
808.14917,339
808.268005,320
808.386841,336
808.505676,341
808.624451,334
808.743286,329
808.862122,313
808.980896,326
809.099731,338
809.218506,339
809.337341,323
809.456116,331
809.57489,342
809.693726,322
809.8125,342
809.931274,328
810.050049,328
810.168884,327
810.287659,328
810.406372,331
810.525269,338
810.643982,333
810.762756,322
810.881531,337
811.000305,331
811.11908,327
811.237854,339
811.356567,337
811.475403,333
811.594116,331
811.71283,323
811.831604,333
811.950378,320
812.069153,334
812.187927,328
812.30658,339
812.425415,318
812.544128,313
812.662781,327
812.781616,334
812.900269,327
813.019043,329
813.137756,335
813.256531,320
813.375244,336
813.493896,330
813.612671,322
813.731384,338
813.850037,329
813.96875,331
814.087524,330
814.206238,336
814.324951,325
814.443604,324
814.562256,335
814.68103,355
814.799683,333
814.918335,336
815.037109,313
815.155762,327
815.274475,324
815.393188,331
815.511841,329
815.630554,320
815.749146,340
815.867859,313
815.986572,332
816.105164,329
816.223877,324
816.342529,336
816.461182,325
816.579895,319
816.698486,321
816.817139,334
816.935791,334
817.054504,327
817.173096,332
817.291748,330
817.4104,336
817.529053,337
817.647644,333
817.766235,321
817.884949,328
818.00354,317
818.122192,333
818.240845,327
818.359436,324
818.478088,328
818.59668,314
818.715271,330
818.833923,332
818.952515,319
819.071106,324
819.189758,343
819.30835,318
819.426941,335
819.545532,316
819.664124,330
819.782715,317
819.901306,330
820.019897,305
820.138489,322
820.25708,319
820.375671,307
820.494202,319
820.612732,322
820.731384,330
820.849915,323
820.968506,318
821.087097,312
821.205627,322
821.324158,321
821.442749,337
821.561279,320
821.679871,323
821.798401,327
821.916931,320
822.035461,331
822.154053,316
822.272583,315
822.391174,325
822.509583,318
822.628174,325
822.746704,306
822.865234,326
822.983765,331
823.102295,328
823.220825,327
823.339294,325
823.457825,322
823.576355,321
823.694824,328
823.813354,317
823.931885,318
824.050354,312
824.168884,321
824.287354,322
824.405823,326
824.524353,318
824.642822,314
824.761353,311
824.879822,325
824.998291,317
825.116699,333
825.235291,330
825.353699,320
825.472168,314
825.590637,323
825.709106,315
825.827576,317
825.946045,332
826.064453,333
826.182983,313
826.301392,303
826.4198,324
826.53833,319
826.656738,322
826.775208,313
826.893677,327
827.012024,321
827.130493,331
827.248962,324
827.36731,324
827.485779,319
827.604248,317
827.722595,321
827.841064,306
827.959412,328
828.077942,319
828.196289,326
828.314636,329
828.433105,321
828.551514,328
828.669861,335
828.78833,330
828.906677,301
829.025085,324
829.143433,328
829.261841,315
829.38031,326
829.498657,316
829.617004,319
829.735413,317
829.85376,317
829.972107,325
830.090515,319
830.208862,331
830.327209,322
830.445557,310
830.563904,317
830.682312,317
830.800659,308
830.919006,325
831.037354,318
831.155701,313
831.274048,326
831.392395,322
831.51062,336
831.629028,314
831.747314,318
831.865662,333
831.984009,321
832.102356,319
832.220642,323
832.338928,322
832.457275,325
832.575623,329
832.693909,331
832.812134,311
832.930481,327
833.048828,315
833.167114,330
833.2854,330
833.403687,326
833.521973,323
833.640259,328
833.758545,300
833.876831,324
833.995056,319
834.113281,332
834.231628,320
834.349915,316
834.468201,319
834.586426,330
834.704651,312
834.822998,313
834.941162,321
835.059448,327
835.177673,329
835.295959,334
835.414246,327
835.53241,322
835.650635,322
835.768921,324
835.887146,306
836.005371,322
836.123596,326
836.241821,324
836.360046,332
836.478271,319
836.596497,319
836.714722,326
836.832886,323
836.95105,325
837.069336,322
837.1875,335
837.305725,317
837.423889,322
837.542053,323
837.660339,324
837.778503,328
837.896667,322
838.014832,319
838.132996,324
838.25116,322
838.369385,333
838.487488,323
838.605713,331
838.723877,326
838.84198,318
838.960205,331
839.078308,324
839.196472,322
839.314636,304
839.4328,330
839.550964,321
839.669067,319
839.787231,324
839.905396,318
840.023499,315
840.141602,325
840.259766,328
840.377869,322
840.495972,325
840.614136,322
840.732239,328
840.850342,324
840.968445,321
841.086548,340
841.204651,326
841.322754,325
841.440918,332
841.55896,338
841.677002,331
841.795166,330
841.913208,332
842.031311,327
842.149353,328
842.267456,324
842.385498,331
842.503601,317
842.621643,320
842.739746,321
842.857788,318
842.97583,331
843.093933,330
843.211975,335
843.330017,312
843.44812,330
843.566101,329
843.684204,329
843.802246,323
843.920227,334
844.038269,328
844.156311,326
844.274292,310
844.392395,322
844.510376,327
844.628357,326
844.74646,326
844.864441,331
844.982422,322
845.100403,328
845.218384,332
845.336426,322
845.454468,329
845.572449,325
845.69043,329
845.808411,331
845.926453,333
846.044373,329
846.162354,315
846.280396,318
846.398315,321
846.516296,333
846.634216,330
846.752197,327
846.870178,326
846.988098,319
847.106079,331
847.22406,323
847.34198,332
847.4599,327
847.577881,323
847.695801,332
847.813782,330
847.931641,319
848.049561,318
848.167603,324
848.285461,340
848.403381,327
848.521362,320
848.639221,320
848.75708,327
848.875,323
848.99292,333
849.110901,343
849.22876,329
849.34668,323
849.464539,333
849.582458,334
849.700317,324
849.818176,320
849.936096,331
850.053955,311
850.171875,325
850.289673,328
850.407593,329
850.525452,337
850.643311,343
850.761169,326
850.878967,322
850.996887,323
851.114746,331
851.232544,314
851.350403,323
851.468262,313
851.58606,333
851.703979,316
851.821777,325
851.939636,322
852.057434,330
852.175232,316
852.293091,318
852.410889,317
852.528687,318
852.646545,338
852.764343,336
852.88208,322
852.999939,328
853.117676,329
853.235535,320
853.353271,324
853.471069,315
853.588928,313
853.706604,334
853.824402,309
853.9422,331
854.059998,325
854.177734,336
854.295532,310
854.413269,331
854.531006,339
854.648804,320
854.766541,334
854.884277,323
855.002014,315
855.119751,323
855.237549,340
855.355225,322
855.473022,327
855.590698,322
855.708435,326
855.826172,335
855.943848,324
856.061646,330
856.179321,322
856.296997,330
856.414795,326
856.53241,323
856.650085,329
856.767822,328
856.885559,333
857.003174,333
857.120911,347
857.238586,333
857.356201,306
857.473938,328
857.591614,323
857.709351,341
857.826965,323
857.944641,335
858.062317,328
858.179993,332
858.297668,320
858.415283,342
858.532959,317
858.650574,327
858.768188,331
858.885803,327
859.003479,319
859.121094,332
859.23877,332
859.356384,321
859.473999,340
859.591675,337
859.709229,327
859.826843,319
859.944458,340
860.062012,328
860.179626,320
860.297302,336
860.414856,332
860.532471,308
860.650024,320
860.767639,326
860.885193,319
861.002808,328
861.120361,322
861.237976,331
861.35553,315
861.473022,327
861.590698,321
861.708191,324
861.825745,315
861.943298,313
862.060852,323
862.178406,331
862.295959,322
862.413513,331
862.531006,317
862.64856,322
862.766113,316
862.883667,320
863.00116,340
863.118713,311
863.236206,315
863.353699,321
863.471252,319
863.588745,316
863.706177,317
863.82373,324
863.941162,320
864.058716,330
864.176208,319
864.29364,317
864.411194,320
864.528687,319
864.646118,313
864.763611,318
864.881042,329
864.998535,336
865.116028,316
865.233459,312
865.350891,338
865.468384,319
865.585754,325
865.703308,326
865.820679,318
865.938171,325
866.055542,310
866.173035,335
866.290466,320
866.407837,322
866.52533,319
866.6427,315
866.760071,319
866.877563,307
866.994934,320
867.112305,323
867.229736,326
867.347107,323
867.464539,325
867.58197,323
867.699341,330
867.81665,322
867.934082,311
868.051453,339
868.168823,327
868.286194,331
868.403564,323
868.520935,324
868.638306,323
868.755676,328
868.872986,350
868.990295,322
869.107727,318
869.225037,325
869.342346,326
869.459717,332
869.577026,324
869.694336,320
869.811707,313
869.929016,327
870.046326,319
870.163635,326
870.280945,331
870.398254,331
870.515564,319
870.632812,328
870.750183,321
870.867432,320
870.984741,312
871.102051,323
871.219299,320
871.336609,334
871.453918,317
871.571106,336
871.688416,330
871.805664,322
871.922852,314
872.040222,326
872.157471,334
872.274719,321
872.391968,327
872.509155,321
872.626465,323
872.743652,326
872.860962,317
872.978149,329
873.095337,327
873.212646,322
873.329834,325
873.44696,326
873.564209,332
873.681396,327
873.798645,321
873.915894,315
874.03302,327
874.150208,334
874.267456,323
874.384583,342
874.501831,327
874.618958,315
874.736145,330
874.853333,338
874.970459,327
875.087646,336
875.204834,322
875.32196,336
875.439148,331
875.556274,328
875.673401,325
875.790527,316
875.907715,323
876.024841,319
876.141968,325
876.259094,337
876.376282,315
876.493347,337
876.610474,308
876.7276,331
876.844727,331
876.961853,317
877.078918,317
877.195984,320
877.313171,332
877.430237,327
877.547302,336
877.664368,326
877.781433,327
877.898499,322
878.015625,324
878.13269,326
878.249695,321
878.366821,335
878.483887,334
878.600952,336
878.717957,318
878.834961,329
878.952087,327
879.069092,324
879.186157,309
879.303162,332
879.420227,308
879.537231,328
879.654236,326
879.77124,334
879.888306,323
880.005249,329
880.122314,331
880.239319,320
880.356323,316
880.473328,321
880.590271,311
880.707275,321
880.824341,307
880.941284,324
881.058228,310
881.175232,327
881.292236,322
881.40918,321
881.526123,329
881.643066,324
881.760071,330
881.877014,308
881.993958,306
882.11084,336
882.227783,317
882.344727,327
882.46167,328
882.578613,331
882.695618,327
882.812439,328
882.929382,321
883.046326,331
883.163208,322
883.280151,323
883.397034,325
883.513916,319
883.630798,323
883.747742,333
883.864563,322
883.981506,315
884.098389,326
884.21521,329
884.332153,309
884.448975,323
884.565796,334
884.682678,323
884.7995,318
884.916443,335
885.033264,323
885.150085,336
885.266968,326
885.383789,335
885.500671,338
885.617493,349
885.734314,334
885.851196,332
885.967896,324
886.084717,338
886.201599,330
886.318359,335
886.435181,339
886.552002,340
886.668762,326
886.785645,340
886.902344,327
887.019165,342
887.135925,318
887.252747,339
887.369446,327
887.486267,326
887.603027,326
887.719788,322
887.836548,339
887.953247,341
888.070068,318
888.186829,321
888.303528,315
888.420288,318
888.536987,327
888.653687,336
888.770447,316
888.887146,328
889.003967,326
889.120667,330
889.237305,323
889.354065,331
889.470703,321
889.587463,333
889.704163,313
889.820862,312
889.937561,311
890.054199,327
890.170837,300
890.287598,320
890.404236,316
890.520874,316
890.637634,325
890.754211,313
890.87085,309
890.987549,322
891.104187,319
891.220886,322
891.337463,322
891.454102,313
891.57074,318
891.687378,324
891.804077,329
891.920654,328
892.037231,308
892.15387,320
892.270447,335
892.387085,313
892.503723,320
892.6203,321
892.736877,328
892.853516,333
892.970032,315
893.08667,312
893.203186,337
893.319763,341
893.43634,322
893.552917,335
893.669556,323
893.786011,322
893.902588,311
894.019165,318
894.135681,308
894.252197,338
894.368835,325
894.485291,312
894.601868,320
894.718384,329
894.8349,311
894.951355,315
895.067932,316
895.184448,319
895.300964,310
895.417419,326
895.533936,317
895.650452,324
895.766907,316
895.883423,316
895.999878,314
896.116333,316
896.232849,326
896.349304,321
896.465759,315
896.582214,322
896.698669,332
896.815125,324
896.931641,325
897.048035,319
897.164551,336
897.280884,313
897.397339,308
897.513794,323
897.630249,311
897.746582,321
897.863098,320
897.979431,324
898.095886,326
898.212341,313
898.328674,319
898.445129,333
898.561462,312
898.677795,325
898.794312,313
898.910645,309
899.026978,324
899.143433,323
899.259766,315
899.37616,320
899.492493,317
899.608765,320
899.725159,304
899.841553,318
899.957947,324
900.07428,309
900.190552,318
900.306946,331
900.423157,321
900.53949,331
900.655884,314
900.772156,323
900.888489,312
901.004822,319
901.121033,318
901.237366,326
901.353699,325
901.46991,322
901.586304,330
901.702515,324
901.818787,327
901.93512,333
902.051331,325
902.167603,330
902.283875,306
902.400085,326
902.516418,324
902.632629,335
902.74884,315
902.865112,331
902.981384,321
903.097595,328
903.213867,318
903.330017,322
903.446289,327
903.5625,331
903.67865,318
903.794922,317
903.911072,327
904.027344,325
904.143494,328
904.259705,312
904.375916,321
904.492065,333
904.608215,312
904.724426,321
904.840576,320
904.956726,335
905.072876,324
905.189087,323
905.305176,311
905.421387,316
905.537537,320
905.653687,312
905.769775,318
905.885925,322
906.002014,318
906.118164,313
906.234314,314
906.350403,324
906.466492,314
906.582642,316
906.69873,317
906.814758,316
906.930908,331
907.046936,318
907.163086,326
907.279175,323
907.395264,317
907.511353,321
907.62738,309
907.743408,314
907.859497,307
907.975525,328
908.091553,321
908.207703,311
908.32373,315
908.439758,317
908.555786,325
908.671814,325
908.787842,319
908.90387,322
909.019775,318
909.135864,327
909.251892,306
909.367859,319
909.483826,307
909.599854,319
909.715881,310
909.831848,321
909.947815,322
910.063782,314
910.179749,315
910.295776,331
910.411743,315
910.527649,322
910.643616,315
910.759583,321
910.875488,328
910.991455,312
911.107361,319
911.223267,334
911.339294,321
911.4552,331
911.571106,314
911.687073,318
911.802979,317
911.918823,325
912.034729,336
912.150635,318
912.266602,325
912.382446,317
912.498352,312
912.614197,325
912.730103,312
912.846008,323
