792.44574,329
792.56488,347
792.68396,406
792.80304,388
792.92218,348
793.041199,329
793.160339,331
793.279419,355
793.398499,330
793.517578,315
793.636658,328
793.755737,333
793.874817,362
793.993896,347
794.112976,349
794.232056,338
794.351074,344
794.470215,332
794.589233,340
794.708313,333
794.827393,335
794.946411,323
795.065552,348
795.18457,337
795.303589,343
795.422668,338
795.541687,328
795.660767,331
795.779846,334
795.898865,351
796.017883,324
796.136963,332
796.255981,338
796.375061,341
796.49408,337
796.613037,343
796.732117,342
796.851135,331
796.970154,342
797.089233,336
797.208191,334
797.327271,322
797.446228,331
797.565186,321
797.684265,324
797.803223,341
797.922241,308
798.04126,336
798.160278,331
798.279297,318
798.398315,338
798.517273,332
798.636292,317
798.75531,339
798.874268,325
798.993286,345
799.112244,340
799.231323,328
799.350281,312
799.469238,318
799.588257,338
799.707153,322
799.826111,335
799.945129,327
800.064087,325
800.183044,328
800.302063,334
800.421021,327
800.539978,333
800.658936,332
800.777893,332
800.896912,339
801.015747,327
801.134705,315
801.253723,317
801.37262,329
801.491638,324
801.610535,318
801.729492,328
801.84845,310
801.967407,335
802.086243,318
802.205261,322
802.324158,331
802.443115,326
802.562073,325
802.680969,310
802.799927,324
802.918762,334
803.037659,312
803.156677,316
803.275574,320
803.39447,319
803.513428,320
803.632263,328
803.751221,318
803.870117,338
803.989014,306
804.107971,321
804.226746,323
804.345642,324
804.4646,332
804.583496,313
804.702393,318
804.821228,335
804.940125,336
805.059021,330
805.177917,320
805.296814,320
805.415649,322
805.534546,331
805.653442,314
805.772278,310
805.891113,331
806.01001,322
806.128906,317
806.247742,322
806.366577,318
806.485413,320
806.604309,323
806.723145,322
806.84198,334
806.960876,316
807.079712,318
807.198486,325
807.317383,328
807.436218,319
807.554993,319
807.673889,325
807.792725,330
807.91156,326
808.030396,319
808.14917,313
808.268005,314
808.386841,320
808.505676,312
808.624451,324
808.743286,306
808.862122,334
808.980896,303
809.099731,317
809.218506,330
809.337341,320
809.456116,330
809.57489,332
809.693726,320
809.8125,312
809.931274,314
810.050049,319
810.168884,328
810.287659,310
810.406372,326
810.525269,318
810.643982,322
810.762756,331
810.881531,324
811.000305,334
811.11908,334
811.237854,323
811.356567,322
811.475403,319
811.594116,329
811.71283,311
811.831604,308
811.950378,339
812.069153,309
812.187927,320
812.30658,327
812.425415,320
812.544128,321
812.662781,317
812.781616,319
812.900269,306
813.019043,325
813.137756,328
813.256531,327
813.375244,332
813.493896,322
813.612671,333
813.731384,312
813.850037,325
813.96875,328
814.087524,331
814.206238,308
814.324951,331
814.443604,317
814.562256,331
814.68103,315
814.799683,325
814.918335,320
815.037109,327
815.155762,328
815.274475,319
815.393188,318
815.511841,321
815.630554,325
815.749146,318
815.867859,321
815.986572,326
816.105164,332
816.223877,324
816.342529,337
816.461182,320
816.579895,322
816.698486,334
816.817139,305
816.935791,331
817.054504,311
817.173096,327
817.291748,316
817.4104,316
817.529053,316
817.647644,327
817.766235,331
817.884949,327
818.00354,316
818.122192,330
818.240845,321
818.359436,329
818.478088,322
818.59668,325
818.715271,318
818.833923,319
818.952515,327
819.071106,325
819.189758,318
819.30835,305
819.426941,318
819.545532,316
819.664124,317
819.782715,325
819.901306,302
820.019897,328
820.138489,326
820.25708,320
820.375671,321
820.494202,323
820.612732,308
820.731384,328
820.849915,300
820.968506,305
821.087097,314
821.205627,326
821.324158,326
821.442749,338
821.561279,324
821.679871,320
821.798401,321
821.916931,323
822.035461,316
822.154053,332
822.272583,309
822.391174,338
822.509583,319
822.628174,315
822.746704,321
822.865234,320
822.983765,309
823.102295,319
823.220825,321
823.339294,315
823.457825,324
823.576355,327
823.694824,314
823.813354,322
823.931885,311
824.050354,312
824.168884,308
824.287354,315
824.405823,319
824.524353,329
824.642822,313
824.761353,325
824.879822,312
824.998291,331
825.116699,330
825.235291,320
825.353699,322
825.472168,328
825.590637,300
825.709106,319
825.827576,310
825.946045,319
826.064453,326
826.182983,316
826.301392,318
826.4198,318
826.53833,307
826.656738,322
826.775208,314
826.893677,332
827.012024,317
827.130493,315
827.248962,308
827.36731,330
827.485779,318
827.604248,316
827.722595,316
827.841064,297
827.959412,319
828.077942,324
828.196289,317
828.314636,318
828.433105,309
828.551514,317
828.669861,310
828.78833,333
828.906677,311
829.025085,312
829.143433,306
829.261841,311
829.38031,324
829.498657,314
829.617004,311
829.735413,326
829.85376,317
829.972107,334
830.090515,311
830.208862,336
830.327209,303
830.445557,313
830.563904,316
830.682312,322
830.800659,321
830.919006,322
831.037354,301
831.155701,321
831.274048,311
831.392395,320
831.51062,318
831.629028,323
831.747314,306
831.865662,314
831.984009,316
832.102356,314
832.220642,312
832.338928,320
832.457275,322
832.575623,333
832.693909,326
832.812134,318
832.930481,321
833.048828,323
833.167114,324
833.2854,322
833.403687,323
833.521973,310
833.640259,313
833.758545,320
833.876831,310
833.995056,327
834.113281,315
834.231628,316
834.349915,319
834.468201,308
834.586426,333
834.704651,308
834.822998,318
834.941162,311
835.059448,315
835.177673,336
835.295959,308
835.414246,309
835.53241,324
835.650635,314
835.768921,304
835.887146,316
836.005371,311
836.123596,332
836.241821,308
836.360046,299
836.478271,325
836.596497,314
836.714722,322
836.832886,308
836.95105,323
837.069336,309
837.1875,324
837.305725,310
837.423889,298
837.542053,321
837.660339,333
837.778503,311
837.896667,313
838.014832,316
838.132996,306
838.25116,310
838.369385,316
838.487488,309
838.605713,320
838.723877,322
838.84198,319
838.960205,320
839.078308,309
839.196472,325
839.314636,308
839.4328,333
839.550964,317
839.669067,324
839.787231,326
839.905396,314
840.023499,306
840.141602,321
840.259766,303
840.377869,320
840.495972,321
840.614136,315
840.732239,315
840.850342,321
840.968445,319
841.086548,328
841.204651,315
841.322754,327
841.440918,325
841.55896,317
841.677002,312
841.795166,326
841.913208,311
842.031311,318
842.149353,305
842.267456,314
842.385498,309
842.503601,326
842.621643,315
842.739746,322
842.857788,321
842.97583,316
843.093933,326
843.211975,320
843.330017,328
843.44812,317
843.566101,314
843.684204,337
843.802246,315
843.920227,316
844.038269,302
844.156311,331
844.274292,320
844.392395,318
844.510376,306
844.628357,327
844.74646,317
844.864441,314
844.982422,319
845.100403,325
845.218384,325
845.336426,333
845.454468,312
845.572449,300
845.69043,318
845.808411,316
845.926453,306
846.044373,318
846.162354,300
846.280396,328
846.398315,315
846.516296,325
846.634216,306
846.752197,310
846.870178,331
846.988098,318
847.106079,323
847.22406,320
847.34198,321
847.4599,317
847.577881,309
847.695801,318
847.813782,326
847.931641,327
848.049561,317
848.167603,314
848.285461,304
848.403381,326
848.521362,314
848.639221,318
848.75708,304
848.875,310
848.99292,316
849.110901,326
849.22876,314
849.34668,320
849.464539,328
849.582458,324
849.700317,324
849.818176,326
849.936096,318
850.053955,322
850.171875,308
850.289673,321
850.407593,316
850.525452,301
850.643311,323
850.761169,319
850.878967,313
850.996887,314
851.114746,312
851.232544,306
851.350403,314
851.468262,328
851.58606,315
851.703979,324
851.821777,301
851.939636,319
852.057434,322
852.175232,328
852.293091,313
852.410889,323
852.528687,311
852.646545,317
852.764343,312
852.88208,322
852.999939,332
853.117676,316
853.235535,314
853.353271,313
853.471069,317
853.588928,320
853.706604,320
853.824402,323
853.9422,307
854.059998,323
854.177734,314
854.295532,322
854.413269,316
854.531006,316
854.648804,318
854.766541,328
854.884277,324
855.002014,316
855.119751,309
855.237549,315
855.355225,319
855.473022,329
855.590698,307
855.708435,318
855.826172,326
855.943848,307
856.061646,324
856.179321,323
856.296997,320
856.414795,326
856.53241,324
856.650085,317
856.767822,323
856.885559,326
857.003174,316
857.120911,316
857.238586,313
857.356201,316
857.473938,306
857.591614,313
857.709351,318
857.826965,323
857.944641,314
858.062317,320
858.179993,328
858.297668,320
858.415283,324
858.532959,319
858.650574,327
858.768188,315
858.885803,314
859.003479,319
859.121094,315
859.23877,315
859.356384,327
859.473999,319
859.591675,324
859.709229,311
859.826843,318
859.944458,325
860.062012,300
860.179626,323
860.297302,330
860.414856,320
860.532471,324
860.650024,322
860.767639,305
860.885193,323
861.002808,318
861.120361,319
861.237976,317
861.35553,319
861.473022,305
861.590698,310
861.708191,323
861.825745,328
861.943298,308
862.060852,323
862.178406,320
862.295959,326
862.413513,319
862.531006,338
862.64856,313
862.766113,312
862.883667,323
863.00116,319
863.118713,324
863.236206,306
863.353699,326
863.471252,317
863.588745,311
863.706177,323
863.82373,334
863.941162,320
864.058716,315
864.176208,322
864.29364,323
864.411194,320
864.528687,317
864.646118,329
864.763611,299
864.881042,322
864.998535,322
865.116028,327
865.233459,309
865.350891,324
865.468384,305
865.585754,331
865.703308,309
865.820679,343
865.938171,317
866.055542,322
866.173035,302
866.290466,334
866.407837,313
866.52533,324
866.6427,312
866.760071,320
866.877563,310
866.994934,311
867.112305,313
867.229736,318
867.347107,309
867.464539,324
867.58197,322
867.699341,314
867.81665,300
867.934082,312
868.051453,311
868.168823,331
868.286194,327
868.403564,320
868.520935,325
868.638306,325
868.755676,312
868.872986,334
868.990295,313
869.107727,319
869.225037,314
869.342346,324
869.459717,329
869.577026,315
869.694336,300
869.811707,332
869.929016,316
870.046326,322
870.163635,311
870.280945,325
870.398254,315
870.515564,314
870.632812,307
870.750183,314
870.867432,321
870.984741,310
871.102051,328
871.219299,317
871.336609,317
871.453918,332
871.571106,302
871.688416,324
871.805664,320
871.922852,316
872.040222,319
872.157471,308
872.274719,323
872.391968,313
872.509155,322
872.626465,321
872.743652,321
872.860962,338
872.978149,316
873.095337,315
873.212646,327
873.329834,314
873.44696,305
873.564209,330
873.681396,303
873.798645,330
873.915894,323
874.03302,320
874.150208,320
874.267456,319
874.384583,324
874.501831,320
874.618958,315
874.736145,329
874.853333,315
874.970459,320
875.087646,331
875.204834,319
875.32196,315
875.439148,330
875.556274,313
875.673401,331
875.790527,328
875.907715,321
876.024841,316
876.141968,328
876.259094,325
876.376282,329
876.493347,317
876.610474,313
876.7276,325
876.844727,319
876.961853,315
877.078918,318
877.195984,313
877.313171,319
877.430237,326
877.547302,325
877.664368,309
877.781433,315
877.898499,313
878.015625,323
878.13269,324
878.249695,322
878.366821,306
878.483887,328
878.600952,312
878.717957,315
878.834961,313
878.952087,312
879.069092,321
879.186157,317
879.303162,315
879.420227,320
879.537231,310
879.654236,323
879.77124,319
879.888306,319
880.005249,325
880.122314,331
880.239319,315
880.356323,323
880.473328,298
880.590271,325
880.707275,310
880.824341,321
880.941284,321
881.058228,329
881.175232,310
881.292236,301
881.40918,303
881.526123,321
881.643066,312
881.760071,310
881.877014,315
881.993958,318
882.11084,305
882.227783,320
882.344727,308
882.46167,319
882.578613,307
882.695618,310
882.812439,314
882.929382,329
883.046326,310
883.163208,319
883.280151,313
883.397034,330
883.513916,320
883.630798,317
883.747742,310
883.864563,319
883.981506,321
884.098389,319
884.21521,310
884.332153,312
884.448975,316
884.565796,325
884.682678,316
884.7995,332
884.916443,334
885.033264,309
885.150085,329
885.266968,336
885.383789,318
885.500671,323
885.617493,319
885.734314,335
885.851196,320
885.967896,326
886.084717,321
886.201599,321
886.318359,307
886.435181,318
886.552002,318
886.668762,319
886.785645,321
886.902344,325
887.019165,342
887.135925,318
887.252747,337
887.369446,330
887.486267,313
887.603027,310
887.719788,318
887.836548,325
887.953247,329
888.070068,320
888.186829,328
888.303528,330
888.420288,306
888.536987,314
888.653687,307
888.770447,324
888.887146,314
889.003967,319
889.120667,294
889.237305,329
889.354065,310
889.470703,310
889.587463,323
889.704163,319
889.820862,314
889.937561,308
890.054199,319
890.170837,310
890.287598,316
890.404236,315
890.520874,316
890.637634,316
890.754211,311
890.87085,319
890.987549,325
891.104187,332
891.220886,314
891.337463,301
891.454102,316
891.57074,329
891.687378,314
891.804077,313
891.920654,311
892.037231,324
892.15387,314
892.270447,322
892.387085,307
892.503723,319
892.6203,307
892.736877,313
892.853516,307
892.970032,332
893.08667,318
893.203186,318
893.319763,309
893.43634,326
893.552917,304
893.669556,320
893.786011,303
893.902588,315
894.019165,314
894.135681,320
894.252197,327
894.368835,317
894.485291,320
894.601868,321
894.718384,316
894.8349,333
894.951355,334
895.067932,317
895.184448,323
895.300964,313
895.417419,318
895.533936,324
895.650452,322
895.766907,324
895.883423,323
895.999878,317
896.116333,320
896.232849,331
896.349304,323
896.465759,312
896.582214,313
896.698669,325
896.815125,313
896.931641,320
897.048035,313
897.164551,316
897.280884,323
897.397339,328
897.513794,315
897.630249,317
897.746582,327
897.863098,310
897.979431,312
898.095886,317
898.212341,306
898.328674,317
898.445129,321
898.561462,326
898.677795,307
898.794312,315
898.910645,320
899.026978,321
899.143433,322
899.259766,316
899.37616,324
899.492493,318
899.608765,323
899.725159,321
899.841553,314
899.957947,314
900.07428,323
900.190552,306
900.306946,320
900.423157,329
900.53949,306
900.655884,316
900.772156,306
900.888489,325
901.004822,316
901.121033,323
901.237366,324
901.353699,323
901.46991,319
901.586304,317
901.702515,317
901.818787,321
901.93512,316
902.051331,326
902.167603,322
902.283875,325
902.400085,316
902.516418,309
902.632629,336
902.74884,312
902.865112,315
902.981384,329
903.097595,308
903.213867,320
903.330017,322
903.446289,321
903.5625,315
903.67865,325
903.794922,325
903.911072,311
904.027344,317
904.143494,322
904.259705,327
904.375916,320
904.492065,331
904.608215,322
904.724426,320
904.840576,315
904.956726,315
905.072876,318
905.189087,323
905.305176,333
905.421387,298
905.537537,331
905.653687,303
905.769775,319
905.885925,323
906.002014,322
906.118164,324
906.234314,317
906.350403,307
906.466492,308
906.582642,313
906.69873,327
906.814758,319
906.930908,312
907.046936,324
907.163086,315
907.279175,330
907.395264,312
907.511353,312
907.62738,312
907.743408,314
907.859497,315
907.975525,301
908.091553,328
908.207703,317
908.32373,320
908.439758,311
908.555786,316
908.671814,301
908.787842,323
908.90387,317
909.019775,321
909.135864,323
909.251892,324
909.367859,318
909.483826,311
909.599854,323
909.715881,331
909.831848,325
909.947815,324
910.063782,319
910.179749,325
910.295776,320
910.411743,322
910.527649,320
910.643616,313
910.759583,311
910.875488,321
910.991455,315
911.107361,324
911.223267,311
911.339294,318
911.4552,310
911.571106,315
911.687073,310
911.802979,315
911.918823,316
912.034729,319
912.150635,307
912.266602,315
912.382446,319
912.498352,322
912.614197,309
912.730103,305
912.846008,295
792.44574,333
792.56488,352
792.68396,414
792.80304,381
792.92218,344
793.041199,317
793.160339,324
793.279419,346
793.398499,357
793.517578,328
793.636658,322
793.755737,331
793.874817,350
793.993896,343
794.112976,337
794.232056,338
794.351074,346
794.470215,332
794.589233,345
794.708313,340
794.827393,334
794.946411,337
795.065552,324
795.18457,335
795.303589,335
795.422668,335
795.541687,330
795.660767,327
795.779846,317
795.898865,339
796.017883,322
796.136963,323
796.255981,340
796.375061,328
796.49408,329
796.613037,338
796.732117,328
796.851135,342
796.970154,321
797.089233,331
797.208191,328
797.327271,337
797.446228,328
797.565186,329
797.684265,328
797.803223,326
797.922241,330
798.04126,336
798.160278,334
798.279297,318
798.398315,332
798.517273,323
798.636292,319
798.75531,330
798.874268,338
798.993286,328
799.112244,332
799.231323,322
799.350281,328
799.469238,309
799.588257,336
799.707153,330
799.826111,338
799.945129,327
800.064087,331
800.183044,330
800.302063,333
800.421021,307
800.539978,328
800.658936,321
800.777893,317
800.896912,321
801.015747,317
801.134705,317
801.253723,327
801.37262,319
801.491638,332
801.610535,329
801.729492,326
801.84845,311
801.967407,325
802.086243,327
802.205261,323
802.324158,324
802.443115,329
802.562073,331
802.680969,327
802.799927,317
802.918762,334
803.037659,314
803.156677,322
803.275574,326
803.39447,314
803.513428,313
803.632263,322
803.751221,312
803.870117,331
803.989014,322
804.107971,328
804.226746,330
804.345642,320
804.4646,316
804.583496,314
804.702393,339
804.821228,322
804.940125,321
805.059021,310
805.177917,322
805.296814,321
805.415649,338
805.534546,313
805.653442,327
805.772278,306
805.891113,328
806.01001,319
806.128906,321
806.247742,317
806.366577,313
806.485413,320
806.604309,326
806.723145,321
806.84198,329
806.960876,317
807.079712,318
807.198486,317
807.317383,329
807.436218,314
807.554993,332
807.673889,326
807.792725,323
807.91156,328
808.030396,318
808.14917,324
808.268005,319
808.386841,330
808.505676,353
808.624451,325
808.743286,311
808.862122,317
808.980896,323
809.099731,328
809.218506,317
809.337341,324
809.456116,318
809.57489,323
809.693726,316
809.8125,333
809.931274,310
810.050049,336
810.168884,317
810.287659,320
810.406372,328
810.525269,318
810.643982,329
810.762756,325
810.881531,317
811.000305,315
811.11908,327
811.237854,332
811.356567,305
811.475403,316
811.594116,321
811.71283,334
811.831604,325
811.950378,310
812.069153,324
812.187927,324
812.30658,322
812.425415,325
812.544128,322
812.662781,325
812.781616,316
812.900269,319
813.019043,325
813.137756,320
813.256531,327
813.375244,329
813.493896,325
813.612671,325
813.731384,306
813.850037,319
813.96875,318
814.087524,327
814.206238,299
814.324951,329
814.443604,320
814.562256,321
814.68103,317
814.799683,323
814.918335,321
815.037109,334
815.155762,323
815.274475,316
815.393188,316
815.511841,322
815.630554,327
815.749146,310
815.867859,304
815.986572,333
816.105164,318
816.223877,312
816.342529,320
816.461182,319
816.579895,316
816.698486,317
816.817139,316
816.935791,326
817.054504,321
817.173096,317
817.291748,324
817.4104,320
817.529053,325
817.647644,320
817.766235,315
817.884949,317
818.00354,318
818.122192,329
818.240845,311
818.359436,326
818.478088,311
818.59668,317
818.715271,323
818.833923,322
818.952515,322
819.071106,320
819.189758,330
819.30835,319
819.426941,309
819.545532,318
819.664124,312
819.782715,326
819.901306,316
820.019897,317
820.138489,323
820.25708,327
820.375671,330
820.494202,317
820.612732,308
820.731384,321
820.849915,331
820.968506,311
821.087097,324
821.205627,310
821.324158,334
821.442749,310
821.561279,328
821.679871,314
821.798401,315
821.916931,325
822.035461,319
822.154053,328
822.272583,320
822.391174,315
822.509583,327
822.628174,318
822.746704,325
822.865234,333
822.983765,313
823.102295,311
823.220825,327
823.339294,325
823.457825,323
823.576355,307
823.694824,320
823.813354,321
823.931885,319
824.050354,321
824.168884,319
824.287354,341
824.405823,317
824.524353,325
824.642822,318
824.761353,323
824.879822,326
824.998291,317
825.116699,341
825.235291,315
825.353699,315
825.472168,325
825.590637,321
825.709106,317
825.827576,322
825.946045,313
826.064453,319
826.182983,324
826.301392,317
826.4198,309
826.53833,314
826.656738,314
826.775208,312
826.893677,321
827.012024,313
827.130493,329
827.248962,313
827.36731,312
827.485779,311
827.604248,314
827.722595,318
827.841064,315
827.959412,315
828.077942,324
828.196289,324
828.314636,323
828.433105,322
828.551514,309
828.669861,329
828.78833,317
828.906677,312
829.025085,310
829.143433,322
829.261841,319
829.38031,323
829.498657,309
829.617004,304
829.735413,317
829.85376,315
829.972107,312
830.090515,327
830.208862,320
830.327209,312
830.445557,328
830.563904,307
830.682312,302
830.800659,318
830.919006,320
831.037354,328
831.155701,316
831.274048,310
831.392395,321
831.51062,311
831.629028,317
831.747314,319
831.865662,319
831.984009,317
832.102356,317
832.220642,313
832.338928,321
832.457275,321
832.575623,315
832.693909,313
832.812134,307
832.930481,324
833.048828,318
833.167114,313
833.2854,327
833.403687,330
833.521973,324
833.640259,321
833.758545,311
833.876831,319
833.995056,323
834.113281,319
834.231628,323
834.349915,325
834.468201,314
834.586426,321
834.704651,324
834.822998,316
834.941162,323
835.059448,330
835.177673,321
835.295959,317
835.414246,305
835.53241,317
835.650635,322
835.768921,327
835.887146,324
836.005371,302
836.123596,320
836.241821,311
836.360046,319
836.478271,314
836.596497,303
836.714722,316
836.832886,320
836.95105,311
837.069336,318
837.1875,316
837.305725,311
837.423889,323
837.542053,321
837.660339,331
837.778503,303
837.896667,329
838.014832,327
838.132996,322
838.25116,316
838.369385,325
838.487488,315
838.605713,322
838.723877,309
838.84198,312
838.960205,312
839.078308,309
839.196472,313
839.314636,312
839.4328,324
839.550964,316
839.669067,311
839.787231,309
839.905396,317
840.023499,308
840.141602,320
840.259766,315
840.377869,313
840.495972,327
840.614136,322
840.732239,309
840.850342,312
840.968445,307
841.086548,325
841.204651,313
841.322754,315
841.440918,317
841.55896,331
841.677002,322
841.795166,315
841.913208,323
842.031311,329
842.149353,322
842.267456,329
842.385498,320
842.503601,320
842.621643,314
842.739746,309
842.857788,334
842.97583,315
843.093933,311
843.211975,304
843.330017,325
843.44812,317
843.566101,315
843.684204,315
843.802246,313
843.920227,314
844.038269,322
844.156311,326
844.274292,334
844.392395,312
844.510376,322
844.628357,326
844.74646,340
844.864441,316
844.982422,310
845.100403,312
845.218384,322
845.336426,309
845.454468,314
845.572449,323
845.69043,311
845.808411,328
845.926453,316
846.044373,305
846.162354,303
846.280396,338
846.398315,314
846.516296,308
846.634216,331
846.752197,323
846.870178,312
846.988098,322
847.106079,309
847.22406,310
847.34198,321
847.4599,306
847.577881,326
847.695801,330
847.813782,315
847.931641,332
848.049561,325
848.167603,321
848.285461,321
848.403381,323
848.521362,314
848.639221,322
848.75708,314
848.875,322
848.99292,319
849.110901,328
849.22876,308
849.34668,330
849.464539,323
849.582458,312
849.700317,321
849.818176,318
849.936096,320
850.053955,325
850.171875,318
850.289673,318
850.407593,331
850.525452,317
850.643311,304
850.761169,311
850.878967,306
850.996887,308
851.114746,318
851.232544,321
851.350403,301
851.468262,312
851.58606,321
851.703979,321
851.821777,318
851.939636,313
852.057434,323
852.175232,324
852.293091,311
852.410889,319
852.528687,310
852.646545,314
852.764343,319
852.88208,321
852.999939,314
853.117676,308
853.235535,328
853.353271,329
853.471069,327
853.588928,315
853.706604,324
853.824402,320
853.9422,313
854.059998,311
854.177734,323
854.295532,319
854.413269,322
854.531006,318
854.648804,339
854.766541,311
854.884277,310
855.002014,340
855.119751,320
855.237549,305
855.355225,321
855.473022,307
855.590698,302
855.708435,315
855.826172,322
855.943848,320
856.061646,309
856.179321,311
856.296997,325
856.414795,324
856.53241,318
856.650085,306
856.767822,311
856.885559,325
857.003174,323
857.120911,333
857.238586,327
857.356201,333
857.473938,321
857.591614,307
857.709351,322
857.826965,318
857.944641,307
858.062317,319
858.179993,326
858.297668,313
858.415283,329
858.532959,301
858.650574,325
858.768188,312
858.885803,315
859.003479,323
859.121094,325
859.23877,317
859.356384,317
859.473999,309
859.591675,313
859.709229,322
859.826843,327
859.944458,322
860.062012,313
860.179626,318
860.297302,325
860.414856,317
860.532471,321
860.650024,323
860.767639,317
860.885193,317
861.002808,301
861.120361,317
861.237976,324
861.35553,329
861.473022,319
861.590698,315
861.708191,323
861.825745,313
861.943298,314
862.060852,328
862.178406,319
862.295959,312
862.413513,315
862.531006,320
862.64856,319
862.766113,321
862.883667,308
863.00116,321
863.118713,322
863.236206,307
863.353699,309
863.471252,314
863.588745,327
863.706177,316
863.82373,319
863.941162,322
864.058716,330
864.176208,315
864.29364,317
864.411194,318
864.528687,318
864.646118,324
864.763611,308
864.881042,312
864.998535,326
865.116028,314
865.233459,316
865.350891,327
865.468384,326
865.585754,324
865.703308,314
865.820679,326
865.938171,331
866.055542,330
866.173035,322
866.290466,316
866.407837,330
866.52533,306
866.6427,318
866.760071,310
866.877563,325
866.994934,328
867.112305,306
867.229736,312
867.347107,305
867.464539,322
867.58197,300
867.699341,320
867.81665,313
867.934082,315
868.051453,311
868.168823,318
868.286194,321
868.403564,297
868.520935,312
868.638306,316
868.755676,324
868.872986,326
868.990295,309
869.107727,325
869.225037,313
869.342346,322
869.459717,303
869.577026,316
869.694336,315
869.811707,319
869.929016,316
870.046326,320
870.163635,315
870.280945,318
870.398254,308
870.515564,310
870.632812,317
870.750183,318
870.867432,316
870.984741,312
871.102051,331
871.219299,315
871.336609,311
871.453918,328
871.571106,302
871.688416,303
871.805664,321
871.922852,325
872.040222,319
872.157471,320
872.274719,316
872.391968,323
872.509155,306
872.626465,320
872.743652,329
872.860962,310
872.978149,319
873.095337,321
873.212646,315
873.329834,309
873.44696,324
873.564209,322
873.681396,313
873.798645,314
873.915894,326
874.03302,312
874.150208,320
874.267456,320
874.384583,328
874.501831,318
874.618958,315
874.736145,317
874.853333,309
874.970459,308
875.087646,312
875.204834,317
875.32196,325
875.439148,326
875.556274,315
875.673401,326
875.790527,321
875.907715,314
876.024841,324
876.141968,303
876.259094,318
876.376282,329
876.493347,310
876.610474,313
876.7276,320
876.844727,325
876.961853,319
877.078918,309
877.195984,324
877.313171,325
877.430237,322
877.547302,330
877.664368,309
877.781433,309
877.898499,314
878.015625,326
878.13269,322
878.249695,319
878.366821,311
878.483887,317
878.600952,317
878.717957,321
878.834961,319
878.952087,309
879.069092,330
879.186157,304
879.303162,330
879.420227,306
879.537231,326
879.654236,321
879.77124,310
879.888306,314
880.005249,313
880.122314,311
880.239319,317
880.356323,317
880.473328,319
880.590271,305
880.707275,319
880.824341,320
880.941284,315
881.058228,307
881.175232,318
881.292236,316
881.40918,320
881.526123,316
881.643066,310
881.760071,314
881.877014,317
881.993958,311
882.11084,318
882.227783,316
882.344727,332
882.46167,310
882.578613,322
882.695618,312
882.812439,311
882.929382,312
883.046326,316
883.163208,309
883.280151,324
883.397034,329
883.513916,323
883.630798,312
883.747742,317
883.864563,325
883.981506,307
884.098389,328
884.21521,307
884.332153,322
884.448975,307
884.565796,309
884.682678,327
884.7995,323
884.916443,328
885.033264,328
885.150085,334
885.266968,314
885.383789,332
885.500671,318
885.617493,326
885.734314,317
885.851196,320
885.967896,314
886.084717,333
886.201599,315
886.318359,333
886.435181,328
886.552002,320
886.668762,310
886.785645,320
886.902344,344
887.019165,327
887.135925,310
887.252747,322
887.369446,311
887.486267,309
887.603027,318
887.719788,321
887.836548,308
887.953247,327
888.070068,330
888.186829,323
888.303528,303
888.420288,340
888.536987,309
888.653687,311
888.770447,313
888.887146,310
889.003967,324
889.120667,314
889.237305,301
889.354065,320
889.470703,308
889.587463,326
889.704163,329
889.820862,310
889.937561,319
890.054199,318
890.170837,330
890.287598,329
890.404236,316
890.520874,315
890.637634,309
890.754211,322
890.87085,322
890.987549,318
891.104187,317
891.220886,319
891.337463,306
891.454102,317
891.57074,318
891.687378,309
891.804077,317
891.920654,315
892.037231,314
892.15387,315
892.270447,316
892.387085,320
892.503723,310
892.6203,315
892.736877,314
892.853516,319
892.970032,314
893.08667,324
893.203186,311
893.319763,324
893.43634,319
893.552917,321
893.669556,320
893.786011,318
893.902588,327
894.019165,328
894.135681,314
894.252197,323
894.368835,306
894.485291,307
894.601868,323
894.718384,323
894.8349,308
894.951355,319
895.067932,320
895.184448,329
895.300964,310
895.417419,307
895.533936,311
895.650452,325
895.766907,315
895.883423,312
895.999878,325
896.116333,304
896.232849,326
896.349304,315
896.465759,316
896.582214,328
896.698669,318
896.815125,324
896.931641,315
897.048035,312
897.164551,316
897.280884,313
897.397339,310
897.513794,327
897.630249,316
897.746582,312
897.863098,313
897.979431,335
898.095886,320
898.212341,306
898.328674,314
898.445129,314
898.561462,312
898.677795,328
898.794312,321
898.910645,318
899.026978,310
899.143433,330
899.259766,314
899.37616,302
899.492493,323
899.608765,314
899.725159,317
899.841553,321
899.957947,318
900.07428,324
900.190552,311
900.306946,322
900.423157,324
900.53949,316
900.655884,323
900.772156,317
900.888489,316
901.004822,311
901.121033,311
901.237366,311
901.353699,303
901.46991,325
901.586304,316
901.702515,326
901.818787,317
901.93512,323
902.051331,332
902.167603,311
902.283875,314
902.400085,329
902.516418,315
902.632629,325
902.74884,310
902.865112,323
902.981384,324
903.097595,322
903.213867,316
903.330017,325
903.446289,319
903.5625,331
903.67865,320
903.794922,327
903.911072,308
904.027344,308
904.143494,322
904.259705,316
904.375916,333
904.492065,318
904.608215,309
904.724426,318
904.840576,313
904.956726,323
905.072876,319
905.189087,302
905.305176,308
905.421387,317
905.537537,313
905.653687,322
905.769775,300
905.885925,307
906.002014,315
906.118164,313
906.234314,320
906.350403,313
906.466492,321
906.582642,324
906.69873,300
906.814758,323
906.930908,313
907.046936,312
907.163086,309
907.279175,317
907.395264,323
907.511353,326
907.62738,320
907.743408,315
907.859497,323
907.975525,308
908.091553,308
908.207703,315
908.32373,310
908.439758,315
908.555786,310
908.671814,312
908.787842,308
908.90387,322
909.019775,314
909.135864,311
909.251892,308
909.367859,323
909.483826,313
909.599854,317
909.715881,307
909.831848,320
909.947815,311
910.063782,315
910.179749,290
910.295776,322
910.411743,315
910.527649,324
910.643616,315
910.759583,303
910.875488,324
910.991455,303
911.107361,311
911.223267,314
911.339294,312
911.4552,323
911.571106,313
911.687073,328
911.802979,317
911.918823,315
912.034729,305
912.150635,315
912.266602,323
912.382446,328
912.498352,329
912.614197,318
912.730103,330
912.846008,309
792.44574,325
792.56488,367
792.68396,417
792.80304,380
792.92218,334
793.041199,334
793.160339,330
793.279419,342
793.398499,325
793.517578,328
793.636658,350
793.755737,341
793.874817,352
793.993896,345
794.112976,342
794.232056,336
794.351074,334
794.470215,334
794.589233,331
794.708313,332
794.827393,340
794.946411,336
795.065552,344
795.18457,351
795.303589,337
795.422668,340
795.541687,325
795.660767,326
795.779846,321
795.898865,336
796.017883,331
796.136963,319
796.255981,342
796.375061,330
796.49408,349
796.613037,328
796.732117,333
796.851135,329
796.970154,331
797.089233,324
797.208191,331
797.327271,329
797.446228,337
797.565186,332
797.684265,327
797.803223,326
797.922241,343
798.04126,334
798.160278,320
798.279297,322
798.398315,325
798.517273,325
798.636292,319
798.75531,317
798.874268,335
798.993286,322
799.112244,329
799.231323,329
799.350281,320
799.469238,335
799.588257,324
799.707153,328
799.826111,332
799.945129,335
800.064087,333
800.183044,330
800.302063,328
800.421021,319
800.539978,328
800.658936,326
800.777893,320
800.896912,326
801.015747,321
801.134705,318
801.253723,322
801.37262,330
801.491638,341
801.610535,322
801.729492,327
801.84845,319
801.967407,327
802.086243,319
802.205261,327
802.324158,320
802.443115,313
802.562073,330
802.680969,330
802.799927,330
802.918762,314
803.037659,318
803.156677,314
803.275574,317
803.39447,322
803.513428,330
803.632263,317
803.751221,321
803.870117,324
803.989014,324
804.107971,311
804.226746,343
804.345642,331
804.4646,319
804.583496,317
804.702393,328
804.821228,334
804.940125,325
805.059021,323
805.177917,307
805.296814,325
805.415649,310
805.534546,331
805.653442,318
805.772278,330
805.891113,316
806.01001,338
806.128906,331
806.247742,315
806.366577,317
806.485413,342
806.604309,322
806.723145,318
806.84198,310
806.960876,322
807.079712,334
807.198486,314
807.317383,330
807.436218,325
807.554993,321
807.673889,321
807.792725,327
807.91156,326
808.030396,323
808.14917,332
808.268005,311
808.386841,320
808.505676,327
808.624451,317
808.743286,316
808.862122,319
808.980896,321
809.099731,330
809.218506,316
809.337341,329
809.456116,324
809.57489,321
809.693726,301
809.8125,324
809.931274,328
810.050049,320
810.168884,327
810.287659,324
810.406372,328
810.525269,325
810.643982,338
810.762756,319
810.881531,338
811.000305,332
811.11908,321
811.237854,326
811.356567,333
811.475403,320
811.594116,318
811.71283,318
811.831604,322
811.950378,332
812.069153,319
812.187927,320
812.30658,317
812.425415,323
812.544128,333
812.662781,321
812.781616,320
812.900269,312
813.019043,333
813.137756,322
813.256531,305
813.375244,329
813.493896,321
813.612671,326
813.731384,328
813.850037,328
813.96875,325
814.087524,298
814.206238,315
814.324951,315
814.443604,318
814.562256,320
814.68103,326
814.799683,326
814.918335,325
815.037109,321
815.155762,316
815.274475,328
815.393188,318
815.511841,326
815.630554,338
815.749146,319
815.867859,327
815.986572,307
816.105164,343
816.223877,327
816.342529,324
816.461182,312
816.579895,325
816.698486,315
816.817139,320
816.935791,328
817.054504,320
817.173096,324
817.291748,329
817.4104,319
817.529053,318
817.647644,323
817.766235,307
817.884949,323
818.00354,321
818.122192,318
818.240845,330
818.359436,315
818.478088,319
818.59668,315
818.715271,341
818.833923,312
818.952515,318
819.071106,313
819.189758,320
819.30835,315
819.426941,319
819.545532,313
819.664124,333
819.782715,320
819.901306,317
820.019897,317
820.138489,328
820.25708,331
820.375671,336
820.494202,331
820.612732,308
820.731384,326
820.849915,310
820.968506,331
821.087097,332
821.205627,316
821.324158,320
821.442749,320
821.561279,315
821.679871,317
821.798401,317
821.916931,323
822.035461,321
822.154053,317
822.272583,323
822.391174,318
822.509583,310
822.628174,320
822.746704,308
822.865234,321
822.983765,329
823.102295,319
823.220825,313
823.339294,314
823.457825,326
823.576355,327
823.694824,317
823.813354,320
823.931885,331
824.050354,328
824.168884,308
824.287354,306
824.405823,321
824.524353,324
824.642822,332
824.761353,337
824.879822,327
824.998291,313
825.116699,328
825.235291,316
825.353699,319
825.472168,311
825.590637,311
825.709106,309
825.827576,313
825.946045,329
826.064453,327
826.182983,309
826.301392,318
826.4198,304
826.53833,324
826.656738,323
826.775208,313
826.893677,314
827.012024,321
827.130493,321
827.248962,311
827.36731,322
827.485779,319
827.604248,326
827.722595,324
827.841064,327
827.959412,312
828.077942,315
828.196289,318
828.314636,306
828.433105,300
828.551514,318
828.669861,303
828.78833,310
828.906677,316
829.025085,310
829.143433,318
829.261841,309
829.38031,332
829.498657,302
829.617004,323
829.735413,317
829.85376,335
829.972107,310
830.090515,326
830.208862,322
830.327209,323
830.445557,313
830.563904,310
830.682312,321
830.800659,303
830.919006,332
831.037354,308
831.155701,319
831.274048,312
831.392395,311
831.51062,319
831.629028,308
831.747314,324
831.865662,319
831.984009,319
832.102356,329
832.220642,325
832.338928,314
832.457275,336
832.575623,313
832.693909,309
832.812134,318
832.930481,320
833.048828,334
833.167114,321
833.2854,336
833.403687,315
833.521973,317
833.640259,321
833.758545,317
833.876831,311
833.995056,316
834.113281,306
834.231628,312
834.349915,317
834.468201,324
834.586426,323
834.704651,322
834.822998,319
834.941162,307
835.059448,321
835.177673,317
835.295959,325
835.414246,318
835.53241,314
835.650635,323
835.768921,313
835.887146,313
836.005371,322
836.123596,321
836.241821,326
836.360046,327
836.478271,324
836.596497,318
836.714722,310
836.832886,323
836.95105,326
837.069336,317
837.1875,327
837.305725,312
837.423889,321
837.542053,319
837.660339,329
837.778503,300
837.896667,322
838.014832,309
838.132996,307
838.25116,306
838.369385,313
838.487488,323
838.605713,324
838.723877,324
838.84198,320
838.960205,316
839.078308,310
839.196472,310
839.314636,317
839.4328,310
839.550964,333
839.669067,314
839.787231,315
839.905396,324
840.023499,322
840.141602,313
840.259766,316
840.377869,317
840.495972,313
840.614136,323
840.732239,327
840.850342,312
840.968445,309
841.086548,324
841.204651,326
841.322754,324
841.440918,317
841.55896,305
841.677002,310
841.795166,314
841.913208,326
842.031311,313
842.149353,318
842.267456,327
842.385498,308
842.503601,316
842.621643,325
842.739746,318
842.857788,338
842.97583,328
843.093933,332
843.211975,318
843.330017,321
843.44812,323
843.566101,313
843.684204,316
843.802246,324
843.920227,320
844.038269,319
844.156311,323
844.274292,316
844.392395,318
844.510376,328
844.628357,310
844.74646,329
844.864441,329
844.982422,317
845.100403,318
845.218384,313
845.336426,323
845.454468,319
845.572449,321
845.69043,318
845.808411,320
845.926453,317
846.044373,312
846.162354,321
846.280396,322
846.398315,318
846.516296,313
846.634216,311
846.752197,318
846.870178,328
846.988098,311
847.106079,319
847.22406,314
847.34198,331
847.4599,320
847.577881,325
847.695801,305
847.813782,314
847.931641,321
848.049561,313
848.167603,319
848.285461,317
848.403381,324
848.521362,324
848.639221,305
848.75708,327
848.875,317
848.99292,312
849.110901,306
849.22876,315
849.34668,314
849.464539,319
849.582458,307
849.700317,319
849.818176,311
849.936096,322
850.053955,315
850.171875,321
850.289673,313
850.407593,321
850.525452,310
850.643311,316
850.761169,320
850.878967,327
850.996887,306
851.114746,316
851.232544,319
851.350403,328
851.468262,316
851.58606,319
851.703979,306
851.821777,318
851.939636,322
852.057434,326
852.175232,311
852.293091,311
852.410889,310
852.528687,310
852.646545,312
852.764343,315
852.88208,309
852.999939,315
853.117676,314
853.235535,315
853.353271,320
853.471069,319
853.588928,330
853.706604,319
853.824402,321
853.9422,322
854.059998,303
854.177734,310
854.295532,305
854.413269,326
854.531006,306
854.648804,319
854.766541,318
854.884277,312
855.002014,318
855.119751,330
855.237549,310
855.355225,322
855.473022,317
855.590698,335
855.708435,320
855.826172,319
855.943848,322
856.061646,327
856.179321,331
856.296997,312
856.414795,330
856.53241,306
856.650085,334
856.767822,316
856.885559,316
857.003174,326
857.120911,317
857.238586,336
857.356201,314
857.473938,314
857.591614,326
857.709351,337
857.826965,308
857.944641,309
858.062317,323
858.179993,325
858.297668,314
858.415283,313
858.532959,315
858.650574,318
858.768188,318
858.885803,322
859.003479,314
859.121094,315
859.23877,321
859.356384,304
859.473999,334
859.591675,310
859.709229,329
859.826843,312
859.944458,312
860.062012,314
860.179626,324
860.297302,315
860.414856,322
860.532471,320
860.650024,316
860.767639,322
860.885193,326
861.002808,328
861.120361,326
861.237976,320
861.35553,316
861.473022,305
861.590698,312
861.708191,310
861.825745,318
861.943298,316
862.060852,319
862.178406,313
862.295959,303
862.413513,322
862.531006,306
862.64856,318
862.766113,311
862.883667,311
863.00116,319
863.118713,322
863.236206,315
863.353699,332
863.471252,322
863.588745,315
863.706177,317
863.82373,320
863.941162,304
864.058716,307
864.176208,314
864.29364,319
864.411194,319
864.528687,314
864.646118,327
864.763611,312
864.881042,320
864.998535,312
865.116028,321
865.233459,315
865.350891,320
865.468384,319
865.585754,324
865.703308,316
865.820679,315
865.938171,312
866.055542,323
866.173035,321
866.290466,320
866.407837,317
866.52533,308
866.6427,316
866.760071,307
866.877563,326
866.994934,316
867.112305,317
867.229736,324
867.347107,320
867.464539,325
867.58197,312
867.699341,321
867.81665,331
867.934082,318
868.051453,329
868.168823,328
868.286194,323
868.403564,325
868.520935,323
868.638306,307
868.755676,319
868.872986,303
868.990295,324
869.107727,300
869.225037,323
869.342346,325
869.459717,326
869.577026,309
869.694336,312
869.811707,307
869.929016,325
870.046326,335
870.163635,339
870.280945,320
870.398254,333
870.515564,314
870.632812,307
870.750183,309
870.867432,314
870.984741,324
871.102051,331
871.219299,316
871.336609,325
871.453918,315
871.571106,326
871.688416,317
871.805664,317
871.922852,309
872.040222,314
872.157471,311
872.274719,321
872.391968,319
872.509155,305
872.626465,320
872.743652,325
872.860962,311
872.978149,318
873.095337,323
873.212646,328
873.329834,316
873.44696,303
873.564209,315
873.681396,305
873.798645,306
873.915894,312
874.03302,315
874.150208,308
874.267456,317
874.384583,329
874.501831,317
874.618958,321
874.736145,322
874.853333,345
874.970459,311
875.087646,334
875.204834,314
875.32196,329
875.439148,330
875.556274,308
875.673401,332
875.790527,321
875.907715,300
876.024841,307
876.141968,320
876.259094,326
876.376282,320
876.493347,316
876.610474,313
876.7276,322
876.844727,319
876.961853,319
877.078918,312
877.195984,324
877.313171,305
877.430237,320
877.547302,326
877.664368,332
877.781433,328
877.898499,315
878.015625,311
878.13269,322
878.249695,322
878.366821,327
878.483887,319
878.600952,317
878.717957,310
878.834961,328
878.952087,313
879.069092,315
879.186157,310
879.303162,325
879.420227,320
879.537231,323
879.654236,309
879.77124,311
879.888306,312
880.005249,322
880.122314,303
880.239319,316
880.356323,313
880.473328,310
880.590271,325
880.707275,317
880.824341,318
880.941284,319
881.058228,331
881.175232,327
881.292236,304
881.40918,319
881.526123,319
881.643066,324
881.760071,307
881.877014,315
881.993958,318
882.11084,318
882.227783,311
882.344727,331
882.46167,314
882.578613,320
882.695618,308
882.812439,310
882.929382,306
883.046326,325
883.163208,320
883.280151,318
883.397034,320
883.513916,316
883.630798,322
883.747742,312
883.864563,321
883.981506,317
884.098389,319
884.21521,313
884.332153,318
884.448975,309
884.565796,317
884.682678,320
884.7995,328
884.916443,322
885.033264,314
885.150085,315
885.266968,314
885.383789,324
885.500671,310
885.617493,339
885.734314,326
885.851196,319
885.967896,306
886.084717,327
886.201599,320
886.318359,326
886.435181,329
886.552002,321
886.668762,323
886.785645,328
886.902344,314
887.019165,332
887.135925,328
887.252747,313
887.369446,318
887.486267,316
887.603027,331
887.719788,318
887.836548,324
887.953247,328
888.070068,313
888.186829,324
888.303528,325
888.420288,327
888.536987,335
888.653687,316
888.770447,315
888.887146,308
889.003967,323
889.120667,316
889.237305,311
889.354065,333
889.470703,308
889.587463,328
889.704163,316
889.820862,312
889.937561,325
890.054199,318
890.170837,310
890.287598,314
890.404236,311
890.520874,314
890.637634,327
890.754211,310
890.87085,304
890.987549,316
891.104187,327
891.220886,327
891.337463,325
891.454102,322
891.57074,318
891.687378,315
891.804077,313
891.920654,322
892.037231,315
892.15387,307
892.270447,310
892.387085,329
892.503723,310
892.6203,323
892.736877,317
892.853516,324
892.970032,300
893.08667,314
893.203186,316
893.319763,316
893.43634,317
893.552917,309
893.669556,289
893.786011,311
893.902588,313
894.019165,310
894.135681,314
894.252197,309
894.368835,316
894.485291,310
894.601868,314
894.718384,315
894.8349,311
894.951355,325
895.067932,324
895.184448,323
895.300964,315
895.417419,316
895.533936,317
895.650452,311
895.766907,308
895.883423,318
895.999878,323
896.116333,320
896.232849,332
896.349304,325
896.465759,338
896.582214,323
896.698669,307
896.815125,328
896.931641,310
897.048035,318
897.164551,314
897.280884,327
897.397339,318
897.513794,322
897.630249,320
897.746582,306
897.863098,314
897.979431,314
898.095886,315
898.212341,324
898.328674,307
898.445129,329
898.561462,316
898.677795,321
898.794312,306
898.910645,313
899.026978,306
899.143433,324
899.259766,298
899.37616,318
899.492493,326
899.608765,306
899.725159,313
899.841553,322
899.957947,316
900.07428,317
900.190552,310
900.306946,308
900.423157,311
900.53949,321
900.655884,312
900.772156,314
900.888489,311
901.004822,323
901.121033,310
901.237366,316
901.353699,312
901.46991,324
901.586304,316
901.702515,312
901.818787,320
901.93512,315
902.051331,305
902.167603,316
902.283875,318
902.400085,328
902.516418,324
902.632629,326
902.74884,328
902.865112,314
902.981384,314
903.097595,326
903.213867,318
903.330017,327
903.446289,325
903.5625,315
903.67865,319
903.794922,309
903.911072,324
904.027344,322
904.143494,311
904.259705,319
904.375916,325
904.492065,318
904.608215,321
904.724426,324
904.840576,326
904.956726,316
905.072876,323
905.189087,312
905.305176,306
905.421387,316
905.537537,305
905.653687,320
905.769775,309
905.885925,312
906.002014,328
906.118164,313
906.234314,314
906.350403,321
906.466492,318
906.582642,334
906.69873,327
906.814758,306
906.930908,308
907.046936,306
907.163086,322
907.279175,322
907.395264,309
907.511353,311
907.62738,311
907.743408,322
907.859497,304
907.975525,320
908.091553,313
908.207703,318
908.32373,318
908.439758,313
908.555786,299
908.671814,321
908.787842,317
908.90387,319
909.019775,315
909.135864,319
909.251892,323
909.367859,315
909.483826,315
909.599854,324
909.715881,313
909.831848,312
909.947815,322
910.063782,324
910.179749,309
910.295776,320
910.411743,319
910.527649,310
910.643616,316
910.759583,315
910.875488,314
910.991455,328
911.107361,313
911.223267,318
911.339294,305
911.4552,327
911.571106,313
911.687073,328
911.802979,295
911.918823,320
912.034729,313
912.150635,314
912.266602,314
912.382446,312
912.498352,306
912.614197,324
912.730103,304
912.846008,315
