792.44574,319
792.56488,357
792.68396,389
792.80304,385
792.92218,337
793.041199,320
793.160339,307
793.279419,336
793.398499,324
793.517578,312
793.636658,310
793.755737,344
793.874817,346
793.993896,341
794.112976,334
794.232056,313
794.351074,318
794.470215,333
794.589233,333
794.708313,321
794.827393,332
794.946411,332
795.065552,343
795.18457,337
795.303589,335
795.422668,328
795.541687,313
795.660767,336
795.779846,333
795.898865,320
796.017883,332
796.136963,339
796.255981,326
796.375061,344
796.49408,336
796.613037,322
796.732117,338
796.851135,339
796.970154,328
797.089233,330
797.208191,327
797.327271,333
797.446228,335
797.565186,328
797.684265,324
797.803223,330
797.922241,330
798.04126,328
798.160278,313
798.279297,334
798.398315,320
798.517273,333
798.636292,329
798.75531,337
798.874268,317
798.993286,315
799.112244,329
799.231323,331
799.350281,330
799.469238,343
799.588257,324
799.707153,334
799.826111,329
799.945129,328
800.064087,320
800.183044,326
800.302063,314
800.421021,325
800.539978,324
800.658936,322
800.777893,330
800.896912,337
801.015747,335
801.134705,321
801.253723,337
801.37262,330
801.491638,333
801.610535,333
801.729492,323
801.84845,343
801.967407,337
802.086243,322
802.205261,336
802.324158,320
802.443115,337
802.562073,334
802.680969,337
802.799927,337
802.918762,330
803.037659,330
803.156677,348
803.275574,323
803.39447,330
803.513428,339
803.632263,330
803.751221,339
803.870117,336
803.989014,322
804.107971,334
804.226746,329
804.345642,339
804.4646,344
804.583496,330
804.702393,331
804.821228,335
804.940125,329
805.059021,332
805.177917,327
805.296814,329
805.415649,339
805.534546,327
805.653442,326
805.772278,316
805.891113,334
806.01001,343
806.128906,333
806.247742,334
806.366577,327
806.485413,320
806.604309,332
806.723145,324
806.84198,342
806.960876,334
807.079712,322
807.198486,324
807.317383,334
807.436218,338
807.554993,334
807.673889,334
807.792725,322
807.91156,318
808.030396,338
808.14917,335
808.268005,339
808.386841,322
808.505676,326
808.624451,334
808.743286,334
808.862122,326
808.980896,335
809.099731,332
809.218506,332
809.337341,330
809.456116,331
809.57489,332
809.693726,336
809.8125,335
809.931274,331
810.050049,344
810.168884,334
810.287659,339
810.406372,328
810.525269,326
810.643982,346
810.762756,342
810.881531,323
811.000305,329
811.11908,333
811.237854,334
811.356567,327
811.475403,326
811.594116,335
811.71283,333
811.831604,352
811.950378,340
812.069153,347
812.187927,340
812.30658,335
812.425415,334
812.544128,337
812.662781,332
812.781616,332
812.900269,320
813.019043,333
813.137756,353
813.256531,326
813.375244,343
813.493896,338
813.612671,332
813.731384,337
813.850037,345
813.96875,332
814.087524,332
814.206238,332
814.324951,340
814.443604,323
814.562256,323
814.68103,325
814.799683,335
814.918335,331
815.037109,340
815.155762,346
815.274475,322
815.393188,336
815.511841,331
815.630554,343
815.749146,319
815.867859,340
815.986572,327
816.105164,345
816.223877,341
816.342529,331
816.461182,322
816.579895,330
816.698486,325
816.817139,322
816.935791,338
817.054504,345
817.173096,333
817.291748,330
817.4104,338
817.529053,326
817.647644,323
817.766235,348
817.884949,322
818.00354,320
818.122192,325
818.240845,329
818.359436,336
818.478088,319
818.59668,327
818.715271,308
818.833923,329
818.952515,315
819.071106,324
819.189758,314
819.30835,322
819.426941,323
819.545532,315
819.664124,313
819.782715,326
819.901306,321
820.019897,325
820.138489,319
820.25708,308
820.375671,329
820.494202,334
820.612732,317
820.731384,312
820.849915,330
820.968506,319
821.087097,323
821.205627,325
821.324158,307
821.442749,327
821.561279,301
821.679871,318
821.798401,315
821.916931,314
822.035461,322
822.154053,329
822.272583,332
822.391174,318
822.509583,309
822.628174,327
822.746704,326
822.865234,324
822.983765,319
823.102295,321
823.220825,310
823.339294,327
823.457825,316
823.576355,304
823.694824,319
823.813354,320
823.931885,320
824.050354,320
824.168884,312
824.287354,319
824.405823,310
824.524353,331
824.642822,323
824.761353,314
824.879822,318
824.998291,321
825.116699,301
825.235291,316
825.353699,323
825.472168,320
825.590637,316
825.709106,309
825.827576,314
825.946045,310
826.064453,306
826.182983,318
826.301392,317
826.4198,314
826.53833,311
826.656738,322
826.775208,327
826.893677,317
827.012024,325
827.130493,300
827.248962,314
827.36731,323
827.485779,312
827.604248,317
827.722595,309
827.841064,315
827.959412,329
828.077942,312
828.196289,323
828.314636,310
828.433105,313
828.551514,313
828.669861,311
828.78833,322
828.906677,317
829.025085,309
829.143433,304
829.261841,322
829.38031,309
829.498657,313
829.617004,311
829.735413,326
829.85376,314
829.972107,317
830.090515,325
830.208862,319
830.327209,314
830.445557,296
830.563904,327
830.682312,320
830.800659,310
830.919006,306
831.037354,317
831.155701,319
831.274048,324
831.392395,309
831.51062,321
831.629028,308
831.747314,308
831.865662,322
831.984009,315
832.102356,319
832.220642,317
832.338928,303
832.457275,308
832.575623,316
832.693909,316
832.812134,308
832.930481,309
833.048828,308
833.167114,309
833.2854,306
833.403687,323
833.521973,317
833.640259,313
833.758545,330
833.876831,314
833.995056,313
834.113281,316
834.231628,310
834.349915,327
834.468201,310
834.586426,310
834.704651,317
834.822998,326
834.941162,319
835.059448,315
835.177673,311
835.295959,322
835.414246,324
835.53241,321
835.650635,332
835.768921,311
835.887146,314
836.005371,327
836.123596,319
836.241821,325
836.360046,314
836.478271,326
836.596497,324
836.714722,313
836.832886,323
836.95105,312
837.069336,325
837.1875,327
837.305725,303
837.423889,315
837.542053,333
837.660339,313
837.778503,324
837.896667,316
838.014832,320
838.132996,318
838.25116,313
838.369385,311
838.487488,325
838.605713,322
838.723877,315
838.84198,326
838.960205,313
839.078308,307
839.196472,311
839.314636,325
839.4328,325
839.550964,321
839.669067,309
839.787231,314
839.905396,313
840.023499,321
840.141602,315
840.259766,306
840.377869,319
840.495972,325
840.614136,322
840.732239,321
840.850342,311
840.968445,314
841.086548,318
841.204651,315
841.322754,308
841.440918,318
841.55896,312
841.677002,317
841.795166,322
841.913208,314
842.031311,327
842.149353,320
842.267456,320
842.385498,303
842.503601,310
842.621643,318
842.739746,313
842.857788,321
842.97583,311
843.093933,318
843.211975,315
843.330017,320
843.44812,309
843.566101,327
843.684204,320
843.802246,317
843.920227,323
844.038269,310
844.156311,316
844.274292,327
844.392395,312
844.510376,326
844.628357,316
844.74646,322
844.864441,311
844.982422,318
845.100403,310
845.218384,313
845.336426,299
845.454468,313
845.572449,318
845.69043,316
845.808411,306
845.926453,309
846.044373,321
846.162354,320
846.280396,325
846.398315,306
846.516296,315
846.634216,315
846.752197,320
846.870178,323
846.988098,308
847.106079,308
847.22406,315
847.34198,312
847.4599,325
847.577881,299
847.695801,307
847.813782,323
847.931641,319
848.049561,310
848.167603,312
848.285461,315
848.403381,314
848.521362,315
848.639221,308
848.75708,325
848.875,327
848.99292,309
849.110901,302
849.22876,317
849.34668,328
849.464539,307
849.582458,316
849.700317,302
849.818176,310
849.936096,323
850.053955,311
850.171875,311
850.289673,310
850.407593,307
850.525452,324
850.643311,320
850.761169,302
850.878967,318
850.996887,325
851.114746,320
851.232544,324
851.350403,311
851.468262,311
851.58606,313
851.703979,310
851.821777,311
851.939636,319
852.057434,318
852.175232,307
852.293091,326
852.410889,311
852.528687,304
852.646545,298
852.764343,315
852.88208,321
852.999939,317
853.117676,316
853.235535,310
853.353271,308
853.471069,319
853.588928,326
853.706604,309
853.824402,312
853.9422,327
854.059998,310
854.177734,319
854.295532,321
854.413269,298
854.531006,329
854.648804,326
854.766541,317
854.884277,319
855.002014,312
855.119751,316
855.237549,310
855.355225,331
855.473022,308
855.590698,325
855.708435,310
855.826172,305
855.943848,322
856.061646,328
856.179321,304
856.296997,316
856.414795,306
856.53241,323
856.650085,311
856.767822,306
856.885559,322
857.003174,307
857.120911,322
857.238586,317
857.356201,319
857.473938,318
857.591614,316
857.709351,319
857.826965,312
857.944641,305
858.062317,326
858.179993,300
858.297668,303
858.415283,310
858.532959,306
858.650574,323
858.768188,314
858.885803,320
859.003479,318
859.121094,323
859.23877,316
859.356384,308
859.473999,304
859.591675,318
859.709229,309
859.826843,309
859.944458,325
860.062012,320
860.179626,318
860.297302,309
860.414856,315
860.532471,309
860.650024,308
860.767639,324
860.885193,297
861.002808,317
861.120361,303
861.237976,319
861.35553,305
861.473022,310
861.590698,310
861.708191,320
861.825745,321
861.943298,318
862.060852,310
862.178406,309
862.295959,318
862.413513,300
862.531006,309
862.64856,308
862.766113,327
862.883667,314
863.00116,327
863.118713,326
863.236206,318
863.353699,310
863.471252,304
863.588745,310
863.706177,316
863.82373,316
863.941162,307
864.058716,311
864.176208,311
864.29364,324
864.411194,314
864.528687,320
864.646118,308
864.763611,333
864.881042,318
864.998535,316
865.116028,318
865.233459,313
865.350891,315
865.468384,311
865.585754,309
865.703308,314
865.820679,311
865.938171,330
866.055542,307
866.173035,317
866.290466,318
866.407837,308
866.52533,324
866.6427,320
866.760071,300
866.877563,325
866.994934,307
867.112305,327
867.229736,306
867.347107,326
867.464539,300
867.58197,323
867.699341,309
867.81665,312
867.934082,310
868.051453,322
868.168823,328
868.286194,312
868.403564,323
868.520935,319
868.638306,315
868.755676,322
868.872986,313
868.990295,312
869.107727,296
869.225037,325
869.342346,318
869.459717,316
869.577026,319
869.694336,321
869.811707,302
869.929016,321
870.046326,308
870.163635,306
870.280945,322
870.398254,319
870.515564,309
870.632812,326
870.750183,313
870.867432,313
870.984741,314
871.102051,326
871.219299,318
871.336609,336
871.453918,316
871.571106,320
871.688416,313
871.805664,321
871.922852,308
872.040222,321
872.157471,322
872.274719,310
872.391968,317
872.509155,322
872.626465,299
872.743652,317
872.860962,303
872.978149,320
873.095337,324
873.212646,312
873.329834,314
873.44696,316
873.564209,315
873.681396,311
873.798645,320
873.915894,287
874.03302,309
874.150208,317
874.267456,310
874.384583,311
874.501831,325
874.618958,318
874.736145,321
874.853333,329
874.970459,310
875.087646,301
875.204834,315
875.32196,318
875.439148,318
875.556274,321
875.673401,309
875.790527,306
875.907715,311
876.024841,317
876.141968,316
876.259094,310
876.376282,312
876.493347,328
876.610474,304
876.7276,305
876.844727,312
876.961853,315
877.078918,326
877.195984,311
877.313171,316
877.430237,313
877.547302,329
877.664368,326
877.781433,298
877.898499,314
878.015625,315
878.13269,309
878.249695,322
878.366821,308
878.483887,304
878.600952,322
878.717957,310
878.834961,326
878.952087,316
879.069092,316
879.186157,321
879.303162,313
879.420227,306
879.537231,317
879.654236,317
879.77124,318
879.888306,315
880.005249,314
880.122314,312
880.239319,315
880.356323,311
880.473328,332
880.590271,322
880.707275,327
880.824341,312
880.941284,335
881.058228,316
881.175232,319
881.292236,313
881.40918,320
881.526123,327
881.643066,308
881.760071,321
881.877014,308
881.993958,317
882.11084,311
882.227783,314
882.344727,309
882.46167,316
882.578613,298
882.695618,299
882.812439,316
882.929382,319
883.046326,322
883.163208,306
883.280151,319
883.397034,315
883.513916,329
883.630798,321
883.747742,315
883.864563,314
883.981506,315
884.098389,321
884.21521,319
884.332153,313
884.448975,305
884.565796,321
884.682678,324
884.7995,308
884.916443,318
885.033264,315
885.150085,304
885.266968,323
885.383789,310
885.500671,325
885.617493,315
885.734314,327
885.851196,330
885.967896,326
886.084717,312
886.201599,312
886.318359,322
886.435181,308
886.552002,315
886.668762,320
886.785645,328
886.902344,310
887.019165,321
887.135925,303
887.252747,316
887.369446,328
887.486267,313
887.603027,322
887.719788,322
887.836548,303
887.953247,314
888.070068,308
888.186829,313
888.303528,308
888.420288,304
888.536987,315
888.653687,299
888.770447,322
888.887146,316
889.003967,316
889.120667,331
889.237305,328
889.354065,336
889.470703,306
889.587463,320
889.704163,321
889.820862,317
889.937561,315
890.054199,308
890.170837,312
890.287598,316
890.404236,309
890.520874,316
890.637634,315
890.754211,322
890.87085,315
890.987549,318
891.104187,317
891.220886,313
891.337463,306
891.454102,311
891.57074,309
891.687378,326
891.804077,307
891.920654,304
892.037231,318
892.15387,329
892.270447,314
892.387085,322
892.503723,307
892.6203,313
892.736877,308
892.853516,307
892.970032,311
893.08667,306
893.203186,329
893.319763,304
893.43634,315
893.552917,318
893.669556,311
893.786011,320
893.902588,319
894.019165,320
894.135681,324
894.252197,317
894.368835,311
894.485291,321
894.601868,334
894.718384,327
894.8349,320
894.951355,328
895.067932,317
895.184448,306
895.300964,299
895.417419,316
895.533936,315
895.650452,318
895.766907,321
895.883423,320
895.999878,305
896.116333,316
896.232849,298
896.349304,320
896.465759,327
896.582214,330
896.698669,321
896.815125,304
896.931641,301
897.048035,315
897.164551,299
897.280884,319
897.397339,321
897.513794,321
897.630249,316
897.746582,321
897.863098,317
897.979431,318
898.095886,312
898.212341,322
898.328674,309
898.445129,318
898.561462,304
898.677795,324
898.794312,311
898.910645,315
899.026978,314
899.143433,318
899.259766,317
899.37616,312
899.492493,305
899.608765,323
899.725159,330
899.841553,314
899.957947,318
900.07428,303
900.190552,309
900.306946,320
900.423157,324
900.53949,309
900.655884,312
900.772156,323
900.888489,311
901.004822,317
901.121033,307
901.237366,307
901.353699,300
901.46991,331
901.586304,316
901.702515,329
901.818787,308
901.93512,320
902.051331,322
902.167603,318
902.283875,319
902.400085,315
902.516418,329
902.632629,309
902.74884,323
902.865112,319
902.981384,304
903.097595,327
903.213867,308
903.330017,306
903.446289,303
903.5625,312
903.67865,309
903.794922,325
903.911072,323
904.027344,306
904.143494,314
904.259705,319
904.375916,317
904.492065,322
904.608215,311
904.724426,319
904.840576,316
904.956726,322
905.072876,319
905.189087,316
905.305176,313
905.421387,316
905.537537,303
905.653687,315
905.769775,314
905.885925,314
906.002014,328
906.118164,326
906.234314,314
906.350403,325
906.466492,312
906.582642,326
906.69873,316
906.814758,332
906.930908,321
907.046936,321
907.163086,305
907.279175,305
907.395264,334
907.511353,327
907.62738,310
907.743408,318
907.859497,326
907.975525,321
908.091553,309
908.207703,320
908.32373,312
908.439758,312
908.555786,311
908.671814,318
908.787842,322
908.90387,312
909.019775,302
909.135864,324
909.251892,320
909.367859,310
909.483826,319
909.599854,320
909.715881,322
909.831848,317
909.947815,314
910.063782,326
910.179749,327
910.295776,316
910.411743,318
910.527649,320
910.643616,318
910.759583,324
910.875488,320
910.991455,308
911.107361,313
911.223267,322
911.339294,318
911.4552,318
911.571106,323
911.687073,315
911.802979,297
911.918823,315
912.034729,322
912.150635,329
912.266602,306
912.382446,326
912.498352,306
912.614197,316
912.730103,309
912.846008,312
792.44574,317
792.56488,348
792.68396,391
792.80304,366
792.92218,325
793.041199,325
793.160339,317
793.279419,351
793.398499,344
793.517578,311
793.636658,321
793.755737,340
793.874817,349
793.993896,349
794.112976,319
794.232056,316
794.351074,331
794.470215,326
794.589233,328
794.708313,328
794.827393,342
794.946411,342
795.065552,331
795.18457,342
795.303589,335
795.422668,317
795.541687,331
795.660767,331
795.779846,338
795.898865,314
796.017883,326
796.136963,337
796.255981,334
796.375061,333
796.49408,326
796.613037,339
796.732117,335
796.851135,326
796.970154,339
797.089233,329
797.208191,346
797.327271,333
797.446228,329
797.565186,335
797.684265,331
797.803223,334
797.922241,324
798.04126,328
798.160278,334
798.279297,321
798.398315,337
798.517273,327
798.636292,327
798.75531,338
798.874268,323
798.993286,331
799.112244,333
799.231323,345
799.350281,328
799.469238,329
799.588257,339
799.707153,335
799.826111,336
799.945129,334
800.064087,329
800.183044,335
800.302063,326
800.421021,326
800.539978,323
800.658936,325
800.777893,317
800.896912,335
801.015747,335
801.134705,322
801.253723,341
801.37262,328
801.491638,332
801.610535,319
801.729492,336
801.84845,325
801.967407,311
802.086243,336
802.205261,337
802.324158,321
802.443115,342
802.562073,328
802.680969,351
802.799927,325
802.918762,315
803.037659,323
803.156677,326
803.275574,325
803.39447,325
803.513428,333
803.632263,342
803.751221,325
803.870117,330
803.989014,320
804.107971,341
804.226746,322
804.345642,329
804.4646,319
804.583496,321
804.702393,334
804.821228,329
804.940125,339
805.059021,341
805.177917,329
805.296814,342
805.415649,329
805.534546,340
805.653442,329
805.772278,331
805.891113,329
806.01001,326
806.128906,325
806.247742,333
806.366577,326
806.485413,341
806.604309,330
806.723145,328
806.84198,332
806.960876,328
807.079712,337
807.198486,336
807.317383,333
807.436218,331
807.554993,337
807.673889,328
807.792725,327
807.91156,331
808.030396,318
808.14917,330
808.268005,335
808.386841,319
808.505676,338
808.624451,333
808.743286,333
808.862122,314
808.980896,348
809.099731,331
809.218506,329
809.337341,334
809.456116,326
809.57489,338
809.693726,332
809.8125,330
809.931274,339
810.050049,337
810.168884,337
810.287659,344
810.406372,334
810.525269,346
810.643982,322
810.762756,339
810.881531,351
811.000305,326
811.11908,341
811.237854,336
811.356567,340
811.475403,332
811.594116,339
811.71283,353
811.831604,339
811.950378,320
812.069153,339
812.187927,335
812.30658,333
812.425415,329
812.544128,335
812.662781,338
812.781616,347
812.900269,331
813.019043,336
813.137756,329
813.256531,341
813.375244,332
813.493896,325
813.612671,332
813.731384,347
813.850037,342
813.96875,327
814.087524,316
814.206238,327
814.324951,319
814.443604,331
814.562256,338
814.68103,326
814.799683,329
814.918335,341
815.037109,331
815.155762,328
815.274475,324
815.393188,325
815.511841,326
815.630554,339
815.749146,328
815.867859,325
815.986572,318
816.105164,337
816.223877,337
816.342529,345
816.461182,321
816.579895,336
816.698486,337
816.817139,342
816.935791,322
817.054504,343
817.173096,325
817.291748,327
817.4104,338
817.529053,320
817.647644,317
817.766235,324
817.884949,337
818.00354,319
818.122192,322
818.240845,339
818.359436,332
818.478088,331
818.59668,320
818.715271,323
818.833923,317
818.952515,320
819.071106,319
819.189758,308
819.30835,336
819.426941,310
819.545532,322
819.664124,315
819.782715,318
819.901306,320
820.019897,303
820.138489,319
820.25708,329
820.375671,314
820.494202,314
820.612732,318
820.731384,326
820.849915,307
820.968506,320
821.087097,324
821.205627,319
821.324158,327
821.442749,325
821.561279,314
821.679871,321
821.798401,312
821.916931,319
822.035461,329
822.154053,323
822.272583,319
822.391174,323
822.509583,322
822.628174,296
822.746704,306
822.865234,313
822.983765,321
823.102295,324
823.220825,317
823.339294,328
823.457825,323
823.576355,305
823.694824,319
823.813354,316
823.931885,329
824.050354,316
824.168884,329
824.287354,327
824.405823,323
824.524353,328
824.642822,321
824.761353,318
824.879822,314
824.998291,307
825.116699,312
825.235291,330
825.353699,322
825.472168,328
825.590637,323
825.709106,321
825.827576,313
825.946045,314
826.064453,312
826.182983,324
826.301392,326
826.4198,316
826.53833,322
826.656738,308
826.775208,324
826.893677,320
827.012024,313
827.130493,338
827.248962,325
827.36731,322
827.485779,307
827.604248,327
827.722595,322
827.841064,312
827.959412,323
828.077942,321
828.196289,313
828.314636,327
828.433105,309
828.551514,322
828.669861,330
828.78833,315
828.906677,306
829.025085,314
829.143433,324
829.261841,303
829.38031,315
829.498657,311
829.617004,318
829.735413,307
829.85376,317
829.972107,325
830.090515,323
830.208862,324
830.327209,309
830.445557,330
830.563904,312
830.682312,323
830.800659,317
830.919006,325
831.037354,315
831.155701,323
831.274048,320
831.392395,322
831.51062,313
831.629028,316
831.747314,314
831.865662,321
831.984009,311
832.102356,314
832.220642,326
832.338928,302
832.457275,315
832.575623,320
832.693909,317
832.812134,324
832.930481,314
833.048828,317
833.167114,314
833.2854,318
833.403687,320
833.521973,309
833.640259,322
833.758545,327
833.876831,300
833.995056,332
834.113281,312
834.231628,309
834.349915,306
834.468201,322
834.586426,324
834.704651,309
834.822998,317
834.941162,316
835.059448,316
835.177673,323
835.295959,324
835.414246,316
835.53241,314
835.650635,319
835.768921,314
835.887146,319
836.005371,311
836.123596,321
836.241821,318
836.360046,328
836.478271,322
836.596497,314
836.714722,323
836.832886,317
836.95105,321
837.069336,320
837.1875,318
837.305725,318
837.423889,316
837.542053,310
837.660339,327
837.778503,306
837.896667,315
838.014832,311
838.132996,332
838.25116,314
838.369385,324
838.487488,318
838.605713,324
838.723877,318
838.84198,323
838.960205,304
839.078308,317
839.196472,306
839.314636,321
839.4328,329
839.550964,316
839.669067,323
839.787231,317
839.905396,315
840.023499,302
840.141602,319
840.259766,319
840.377869,300
840.495972,314
840.614136,311
840.732239,325
840.850342,317
840.968445,317
841.086548,301
841.204651,318
841.322754,317
841.440918,317
841.55896,322
841.677002,318
841.795166,311
841.913208,326
842.031311,324
842.149353,316
842.267456,317
842.385498,310
842.503601,315
842.621643,315
842.739746,330
842.857788,322
842.97583,309
843.093933,322
843.211975,308
843.330017,319
843.44812,323
843.566101,310
843.684204,310
843.802246,323
843.920227,316
844.038269,327
844.156311,320
844.274292,309
844.392395,312
844.510376,321
844.628357,322
844.74646,321
844.864441,327
844.982422,316
845.100403,304
845.218384,323
845.336426,298
845.454468,328
845.572449,310
845.69043,324
845.808411,320
845.926453,316
846.044373,303
846.162354,312
846.280396,328
846.398315,315
846.516296,310
846.634216,313
846.752197,325
846.870178,312
846.988098,302
847.106079,323
847.22406,302
847.34198,326
847.4599,309
847.577881,332
847.695801,315
847.813782,312
847.931641,325
848.049561,319
848.167603,316
848.285461,315
848.403381,319
848.521362,300
848.639221,323
848.75708,328
848.875,313
848.99292,319
849.110901,325
849.22876,323
849.34668,324
849.464539,316
849.582458,323
849.700317,315
849.818176,310
849.936096,330
850.053955,320
850.171875,322
850.289673,331
850.407593,309
850.525452,324
850.643311,310
850.761169,319
850.878967,323
850.996887,314
851.114746,311
851.232544,313
851.350403,324
851.468262,318
851.58606,315
851.703979,328
851.821777,312
851.939636,321
852.057434,320
852.175232,296
852.293091,317
852.410889,305
852.528687,321
852.646545,306
852.764343,316
852.88208,316
852.999939,310
853.117676,313
853.235535,317
853.353271,317
853.471069,331
853.588928,323
853.706604,318
853.824402,320
853.9422,302
854.059998,316
854.177734,329
854.295532,309
854.413269,322
854.531006,311
854.648804,325
854.766541,316
854.884277,317
855.002014,313
855.119751,316
855.237549,309
855.355225,316
855.473022,323
855.590698,320
855.708435,302
855.826172,317
855.943848,321
856.061646,318
856.179321,321
856.296997,315
856.414795,307
856.53241,312
856.650085,307
856.767822,305
856.885559,311
857.003174,308
857.120911,306
857.238586,308
857.356201,312
857.473938,315
857.591614,310
857.709351,307
857.826965,325
857.944641,318
858.062317,316
858.179993,320
858.297668,315
858.415283,312
858.532959,312
858.650574,319
858.768188,316
858.885803,322
859.003479,318
859.121094,330
859.23877,311
859.356384,311
859.473999,304
859.591675,317
859.709229,310
859.826843,312
859.944458,321
860.062012,313
860.179626,310
860.297302,321
860.414856,319
860.532471,314
860.650024,306
860.767639,310
860.885193,310
861.002808,311
861.120361,316
861.237976,330
861.35553,310
861.473022,315
861.590698,312
861.708191,315
861.825745,321
861.943298,321
862.060852,319
862.178406,323
862.295959,310
862.413513,316
862.531006,312
862.64856,323
862.766113,314
862.883667,318
863.00116,308
863.118713,302
863.236206,318
863.353699,321
863.471252,314
863.588745,302
863.706177,329
863.82373,326
863.941162,317
864.058716,317
864.176208,313
864.29364,309
864.411194,319
864.528687,324
864.646118,322
864.763611,319
864.881042,300
864.998535,327
865.116028,312
865.233459,334
865.350891,323
865.468384,321
865.585754,317
865.703308,324
865.820679,315
865.938171,317
866.055542,315
866.173035,318
866.290466,319
866.407837,319
866.52533,317
866.6427,310
866.760071,321
866.877563,311
866.994934,312
867.112305,319
867.229736,303
867.347107,307
867.464539,310
867.58197,317
867.699341,303
867.81665,309
867.934082,335
868.051453,322
868.168823,317
868.286194,328
868.403564,311
868.520935,320
868.638306,308
868.755676,306
868.872986,305
868.990295,303
869.107727,310
869.225037,317
869.342346,309
869.459717,321
869.577026,319
869.694336,323
869.811707,313
869.929016,313
870.046326,304
870.163635,306
870.280945,321
870.398254,315
870.515564,316
870.632812,336
870.750183,319
870.867432,313
870.984741,306
871.102051,317
871.219299,315
871.336609,312
871.453918,310
871.571106,321
871.688416,320
871.805664,314
871.922852,311
872.040222,315
872.157471,306
872.274719,319
872.391968,320
872.509155,322
872.626465,320
872.743652,317
872.860962,313
872.978149,314
873.095337,305
873.212646,325
873.329834,322
873.44696,321
873.564209,310
873.681396,310
873.798645,307
873.915894,319
874.03302,324
874.150208,313
874.267456,315
874.384583,315
874.501831,314
874.618958,311
874.736145,320
874.853333,333
874.970459,308
875.087646,316
875.204834,312
875.32196,313
875.439148,319
875.556274,323
875.673401,315
875.790527,328
875.907715,316
876.024841,305
876.141968,321
876.259094,307
876.376282,311
876.493347,320
876.610474,304
876.7276,316
876.844727,298
876.961853,323
877.078918,306
877.195984,328
877.313171,321
877.430237,313
877.547302,313
877.664368,317
877.781433,314
877.898499,304
878.015625,310
878.13269,326
878.249695,312
878.366821,320
878.483887,321
878.600952,322
878.717957,304
878.834961,315
878.952087,298
879.069092,317
879.186157,307
879.303162,326
879.420227,336
879.537231,309
879.654236,311
879.77124,317
879.888306,313
880.005249,327
880.122314,305
880.239319,316
880.356323,312
880.473328,326
880.590271,306
880.707275,309
880.824341,320
880.941284,315
881.058228,318
881.175232,303
881.292236,315
881.40918,314
881.526123,317
881.643066,322
881.760071,308
881.877014,314
881.993958,319
882.11084,320
882.227783,326
882.344727,321
882.46167,313
882.578613,322
882.695618,317
882.812439,301
882.929382,323
883.046326,297
883.163208,301
883.280151,319
883.397034,304
883.513916,322
883.630798,310
883.747742,307
883.864563,325
883.981506,318
884.098389,315
884.21521,318
884.332153,307
884.448975,316
884.565796,310
884.682678,322
884.7995,320
884.916443,313
885.033264,314
885.150085,311
885.266968,317
885.383789,311
885.500671,324
885.617493,316
885.734314,310
885.851196,313
885.967896,315
886.084717,319
886.201599,310
886.318359,319
886.435181,323
886.552002,312
886.668762,312
886.785645,323
886.902344,315
887.019165,322
887.135925,314
887.252747,326
887.369446,312
887.486267,321
887.603027,330
887.719788,320
887.836548,313
887.953247,324
888.070068,311
888.186829,317
888.303528,325
888.420288,318
888.536987,321
888.653687,309
888.770447,316
888.887146,306
889.003967,317
889.120667,312
889.237305,313
889.354065,319
889.470703,315
889.587463,312
889.704163,312
889.820862,325
889.937561,308
890.054199,323
890.170837,305
890.287598,328
890.404236,313
890.520874,327
890.637634,311
890.754211,321
890.87085,310
890.987549,309
891.104187,324
891.220886,327
891.337463,310
891.454102,307
891.57074,322
891.687378,306
891.804077,308
891.920654,320
892.037231,307
892.15387,338
892.270447,307
892.387085,318
892.503723,320
892.6203,316
892.736877,307
892.853516,329
892.970032,313
893.08667,316
893.203186,311
893.319763,317
893.43634,323
893.552917,324
893.669556,315
893.786011,326
893.902588,322
894.019165,319
894.135681,320
894.252197,309
894.368835,307
894.485291,323
894.601868,321
894.718384,307
894.8349,326
894.951355,316
895.067932,327
895.184448,324
895.300964,307
895.417419,319
895.533936,321
895.650452,333
895.766907,334
895.883423,317
895.999878,313
896.116333,322
896.232849,300
896.349304,312
896.465759,309
896.582214,311
896.698669,311
896.815125,311
896.931641,313
897.048035,312
897.164551,328
897.280884,309
897.397339,333
897.513794,321
897.630249,318
897.746582,306
897.863098,300
897.979431,319
898.095886,324
898.212341,332
898.328674,333
898.445129,319
898.561462,309
898.677795,306
898.794312,314
898.910645,323
899.026978,315
899.143433,316
899.259766,325
899.37616,312
899.492493,314
899.608765,330
899.725159,321
899.841553,318
899.957947,305
900.07428,317
900.190552,324
900.306946,306
900.423157,338
900.53949,312
900.655884,310
900.772156,314
900.888489,318
901.004822,325
901.121033,316
901.237366,316
901.353699,315
901.46991,316
901.586304,311
901.702515,311
901.818787,325
901.93512,322
902.051331,312
902.167603,315
902.283875,318
902.400085,322
902.516418,318
902.632629,319
902.74884,313
902.865112,322
902.981384,312
903.097595,304
903.213867,307
903.330017,323
903.446289,312
903.5625,307
903.67865,323
903.794922,326
903.911072,323
904.027344,321
904.143494,332
904.259705,331
904.375916,331
904.492065,321
904.608215,323
904.724426,319
904.840576,309
904.956726,312
905.072876,309
905.189087,311
905.305176,319
905.421387,324
905.537537,311
905.653687,334
905.769775,308
905.885925,330
906.002014,310
906.118164,319
906.234314,315
906.350403,321
906.466492,315
906.582642,317
906.69873,313
906.814758,310
906.930908,309
907.046936,316
907.163086,332
907.279175,322
907.395264,316
907.511353,323
907.62738,307
907.743408,326
907.859497,326
907.975525,310
908.091553,316
908.207703,325
908.32373,320
908.439758,317
908.555786,313
908.671814,314
908.787842,311
908.90387,310
909.019775,316
909.135864,317
909.251892,307
909.367859,324
909.483826,318
909.599854,325
909.715881,329
909.831848,323
909.947815,323
910.063782,316
910.179749,318
910.295776,313
910.411743,309
910.527649,331
910.643616,302
910.759583,324
910.875488,318
910.991455,312
911.107361,315
911.223267,314
911.339294,318
911.4552,330
911.571106,298
911.687073,328
911.802979,309
911.918823,331
912.034729,303
912.150635,304
912.266602,318
912.382446,316
912.498352,321
912.614197,313
912.730103,325
912.846008,322
792.44574,319
792.56488,359
792.68396,400
792.80304,381
792.92218,342
793.041199,315
793.160339,324
793.279419,341
793.398499,338
793.517578,325
793.636658,325
793.755737,347
793.874817,347
793.993896,334
794.112976,355
794.232056,312
794.351074,335
794.470215,336
794.589233,327
794.708313,323
794.827393,328
794.946411,326
795.065552,345
795.18457,330
795.303589,330
795.422668,321
795.541687,336
795.660767,330
795.779846,331
795.898865,329
796.017883,330
796.136963,328
796.255981,335
796.375061,343
796.49408,325
796.613037,330
796.732117,325
796.851135,321
796.970154,345
797.089233,324
797.208191,329
797.327271,325
797.446228,340
797.565186,328
797.684265,339
797.803223,320
797.922241,330
798.04126,315
798.160278,340
798.279297,322
798.398315,336
798.517273,332
798.636292,331
798.75531,341
798.874268,338
798.993286,326
799.112244,326
799.231323,321
799.350281,331
799.469238,328
799.588257,338
799.707153,335
799.826111,328
799.945129,332
800.064087,331
800.183044,336
800.302063,324
800.421021,320
800.539978,328
800.658936,330
800.777893,326
800.896912,332
801.015747,325
801.134705,336
801.253723,341
801.37262,331
801.491638,326
801.610535,326
801.729492,336
801.84845,326
801.967407,328
802.086243,339
802.205261,324
802.324158,325
802.443115,341
802.562073,348
802.680969,332
802.799927,331
802.918762,337
803.037659,322
803.156677,335
803.275574,338
803.39447,325
803.513428,327
803.632263,329
803.751221,320
803.870117,335
803.989014,317
804.107971,331
804.226746,331
804.345642,339
804.4646,341
804.583496,335
804.702393,332
804.821228,343
804.940125,319
805.059021,337
805.177917,332
805.296814,343
805.415649,324
805.534546,345
805.653442,328
805.772278,328
805.891113,335
806.01001,343
806.128906,317
806.247742,324
806.366577,326
806.485413,330
806.604309,334
806.723145,333
806.84198,330
806.960876,328
807.079712,332
807.198486,333
807.317383,331
807.436218,326
807.554993,332
807.673889,339
807.792725,318
807.91156,341
808.030396,335
808.14917,335
808.268005,337
808.386841,325
808.505676,330
808.624451,337
808.743286,305
808.862122,333
808.980896,329
809.099731,331
809.218506,326
809.337341,347
809.456116,329
809.57489,329
809.693726,330
809.8125,324
809.931274,320
810.050049,349
810.168884,333
810.287659,326
810.406372,330
810.525269,331
810.643982,343
810.762756,337
810.881531,333
811.000305,331
811.11908,331
811.237854,340
811.356567,331
811.475403,330
811.594116,338
811.71283,328
811.831604,325
811.950378,334
812.069153,330
812.187927,335
812.30658,332
812.425415,345
812.544128,332
812.662781,339
812.781616,323
812.900269,335
813.019043,339
813.137756,329
813.256531,343
813.375244,328
813.493896,336
813.612671,338
813.731384,334
813.850037,325
813.96875,333
814.087524,331
814.206238,335
814.324951,344
814.443604,331
814.562256,328
814.68103,325
814.799683,333
814.918335,331
815.037109,327
815.155762,323
815.274475,340
815.393188,327
815.511841,337
815.630554,332
815.749146,326
815.867859,325
815.986572,329
816.105164,335
816.223877,330
816.342529,336
816.461182,333
816.579895,343
816.698486,336
816.817139,328
816.935791,339
817.054504,333
817.173096,337
817.291748,334
817.4104,339
817.529053,332
817.647644,332
817.766235,345
817.884949,335
818.00354,322
818.122192,321
818.240845,324
818.359436,328
818.478088,321
818.59668,322
818.715271,318
818.833923,333
818.952515,321
819.071106,323
819.189758,323
819.30835,323
819.426941,318
819.545532,316
819.664124,324
819.782715,327
819.901306,324
820.019897,317
820.138489,310
820.25708,324
820.375671,319
820.494202,327
820.612732,323
820.731384,309
820.849915,326
820.968506,313
821.087097,323
821.205627,326
821.324158,321
821.442749,321
821.561279,305
821.679871,331
821.798401,312
821.916931,327
822.035461,329
822.154053,321
822.272583,324
822.391174,322
822.509583,324
822.628174,321
822.746704,322
822.865234,314
822.983765,312
823.102295,318
823.220825,321
823.339294,316
823.457825,308
823.576355,320
823.694824,313
823.813354,319
823.931885,314
824.050354,327
824.168884,303
824.287354,320
824.405823,314
824.524353,328
824.642822,318
824.761353,319
824.879822,328
824.998291,324
825.116699,326
825.235291,323
825.353699,317
825.472168,322
825.590637,322
825.709106,332
825.827576,319
825.946045,324
826.064453,320
826.182983,304
826.301392,308
826.4198,321
826.53833,314
826.656738,316
826.775208,314
826.893677,292
827.012024,316
827.130493,307
827.248962,299
827.36731,317
827.485779,313
827.604248,308
827.722595,317
827.841064,314
827.959412,323
828.077942,297
828.196289,319
828.314636,321
828.433105,311
828.551514,313
828.669861,317
828.78833,320
828.906677,322
829.025085,317
829.143433,304
829.261841,328
829.38031,309
829.498657,311
829.617004,327
829.735413,319
829.85376,303
829.972107,299
830.090515,318
830.208862,329
830.327209,313
830.445557,324
830.563904,305
830.682312,321
830.800659,312
830.919006,316
831.037354,313
831.155701,315
831.274048,322
831.392395,322
831.51062,328
831.629028,301
831.747314,327
831.865662,325
831.984009,319
832.102356,323
832.220642,324
832.338928,314
832.457275,306
832.575623,309
832.693909,314
832.812134,318
832.930481,298
833.048828,326
833.167114,304
833.2854,318
833.403687,315
833.521973,316
833.640259,324
833.758545,315
833.876831,322
833.995056,310
834.113281,317
834.231628,305
834.349915,336
834.468201,310
834.586426,320
834.704651,331
834.822998,327
834.941162,329
835.059448,308
835.177673,311
835.295959,306
835.414246,323
835.53241,316
835.650635,326
835.768921,310
835.887146,317
836.005371,307
836.123596,328
836.241821,313
836.360046,331
836.478271,308
836.596497,320
836.714722,326
836.832886,319
836.95105,335
837.069336,318
837.1875,313
837.305725,317
837.423889,309
837.542053,299
837.660339,324
837.778503,318
837.896667,315
838.014832,323
838.132996,312
838.25116,315
838.369385,318
838.487488,322
838.605713,324
838.723877,318
838.84198,330
838.960205,311
839.078308,317
839.196472,330
839.314636,319
839.4328,307
839.550964,312
839.669067,331
839.787231,326
839.905396,327
840.023499,321
840.141602,330
840.259766,312
840.377869,330
840.495972,309
840.614136,328
840.732239,304
840.850342,311
840.968445,315
841.086548,320
841.204651,319
841.322754,318
841.440918,321
841.55896,319
841.677002,319
841.795166,312
841.913208,316
842.031311,314
842.149353,316
842.267456,316
842.385498,322
842.503601,321
842.621643,310
842.739746,319
842.857788,314
842.97583,320
843.093933,312
843.211975,322
843.330017,302
843.44812,319
843.566101,316
843.684204,311
843.802246,312
843.920227,324
844.038269,306
844.156311,312
844.274292,316
844.392395,313
844.510376,313
844.628357,317
844.74646,300
844.864441,321
844.982422,309
845.100403,323
845.218384,318
845.336426,317
845.454468,313
845.572449,323
845.69043,307
845.808411,309
845.926453,305
846.044373,313
846.162354,309
846.280396,318
846.398315,318
846.516296,311
846.634216,301
846.752197,314
846.870178,313
846.988098,327
847.106079,305
847.22406,328
847.34198,305
847.4599,315
847.577881,318
847.695801,311
847.813782,316
847.931641,319
848.049561,314
848.167603,315
848.285461,314
848.403381,312
848.521362,306
848.639221,317
848.75708,307
848.875,318
848.99292,300
849.110901,314
849.22876,307
849.34668,321
849.464539,310
849.582458,321
849.700317,304
849.818176,320
849.936096,329
850.053955,319
850.171875,310
850.289673,329
850.407593,318
850.525452,313
850.643311,326
850.761169,317
850.878967,326
850.996887,305
851.114746,307
851.232544,311
851.350403,309
851.468262,314
851.58606,308
851.703979,301
851.821777,292
851.939636,308
852.057434,316
852.175232,320
852.293091,317
852.410889,315
852.528687,310
852.646545,320
852.764343,311
852.88208,331
852.999939,304
853.117676,313
853.235535,317
853.353271,327
853.471069,307
853.588928,310
853.706604,312
853.824402,326
853.9422,323
854.059998,322
854.177734,300
854.295532,314
854.413269,321
854.531006,305
854.648804,331
854.766541,320
854.884277,311
855.002014,319
855.119751,312
855.237549,308
855.355225,307
855.473022,313
855.590698,311
855.708435,329
855.826172,310
855.943848,322
856.061646,302
856.179321,322
856.296997,304
856.414795,325
856.53241,306
856.650085,329
856.767822,321
856.885559,322
857.003174,309
857.120911,319
857.238586,306
857.356201,316
857.473938,310
857.591614,304
857.709351,308
857.826965,316
857.944641,303
858.062317,320
858.179993,327
858.297668,317
858.415283,304
858.532959,329
858.650574,312
858.768188,310
858.885803,301
859.003479,319
859.121094,317
859.23877,330
859.356384,319
859.473999,316
859.591675,296
859.709229,335
859.826843,306
859.944458,330
860.062012,309
860.179626,305
860.297302,318
860.414856,316
860.532471,308
860.650024,325
860.767639,319
860.885193,320
861.002808,306
861.120361,316
861.237976,318
861.35553,326
861.473022,308
861.590698,323
861.708191,319
861.825745,318
861.943298,321
862.060852,324
862.178406,314
862.295959,311
862.413513,300
862.531006,309
862.64856,306
862.766113,327
862.883667,314
863.00116,307
863.118713,311
863.236206,333
863.353699,316
863.471252,312
863.588745,312
863.706177,309
863.82373,320
863.941162,309
864.058716,323
864.176208,319
864.29364,299
864.411194,317
864.528687,323
864.646118,321
864.763611,318
864.881042,307
864.998535,299
865.116028,331
865.233459,316
865.350891,319
865.468384,323
865.585754,320
865.703308,316
865.820679,323
865.938171,317
866.055542,309
866.173035,302
866.290466,319
866.407837,319
866.52533,321
866.6427,322
866.760071,322
866.877563,308
866.994934,311
867.112305,322
867.229736,327
867.347107,308
867.464539,327
867.58197,311
867.699341,327
867.81665,322
867.934082,328
868.051453,314
868.168823,312
868.286194,312
868.403564,332
868.520935,320
868.638306,321
868.755676,310
868.872986,318
868.990295,315
869.107727,324
869.225037,312
869.342346,320
869.459717,323
869.577026,318
869.694336,321
869.811707,314
869.929016,309
870.046326,308
870.163635,324
870.280945,309
870.398254,325
870.515564,302
870.632812,319
870.750183,321
870.867432,302
870.984741,308
871.102051,317
871.219299,324
871.336609,312
871.453918,322
871.571106,306
871.688416,318
871.805664,325
871.922852,300
872.040222,306
872.157471,318
872.274719,298
872.391968,308
872.509155,307
872.626465,319
872.743652,319
872.860962,307
872.978149,308
873.095337,333
873.212646,322
873.329834,332
873.44696,314
873.564209,317
873.681396,313
873.798645,314
873.915894,315
874.03302,322
874.150208,321
874.267456,320
874.384583,314
874.501831,318
874.618958,309
874.736145,326
874.853333,324
874.970459,321
875.087646,331
875.204834,321
875.32196,321
875.439148,307
875.556274,315
875.673401,315
875.790527,302
875.907715,324
876.024841,317
876.141968,323
876.259094,322
876.376282,326
876.493347,319
876.610474,315
876.7276,315
876.844727,330
876.961853,306
877.078918,308
877.195984,316
877.313171,317
877.430237,310
877.547302,318
877.664368,312
877.781433,310
877.898499,307
878.015625,325
878.13269,310
878.249695,312
878.366821,313
878.483887,317
878.600952,299
878.717957,322
878.834961,302
878.952087,311
879.069092,311
879.186157,314
879.303162,315
879.420227,329
879.537231,309
879.654236,323
879.77124,304
879.888306,317
880.005249,310
880.122314,317
880.239319,319
880.356323,326
880.473328,309
880.590271,339
880.707275,307
880.824341,317
880.941284,315
881.058228,318
881.175232,323
881.292236,325
881.40918,309
881.526123,324
881.643066,315
881.760071,333
881.877014,309
881.993958,313
882.11084,309
882.227783,311
882.344727,311
882.46167,330
882.578613,304
882.695618,311
882.812439,315
882.929382,318
883.046326,323
883.163208,310
883.280151,307
883.397034,315
883.513916,311
883.630798,326
883.747742,316
883.864563,306
883.981506,325
884.098389,321
884.21521,309
884.332153,302
884.448975,305
884.565796,320
884.682678,312
884.7995,324
884.916443,314
885.033264,304
885.150085,303
885.266968,322
885.383789,314
885.500671,329
885.617493,310
885.734314,325
885.851196,311
885.967896,303
886.084717,321
886.201599,322
886.318359,321
886.435181,315
886.552002,309
886.668762,315
886.785645,314
886.902344,331
887.019165,303
887.135925,316
887.252747,325
887.369446,325
887.486267,321
887.603027,312
887.719788,312
887.836548,312
887.953247,322
888.070068,306
888.186829,324
888.303528,317
888.420288,321
888.536987,324
888.653687,314
888.770447,318
888.887146,323
889.003967,319
889.120667,304
889.237305,321
889.354065,324
889.470703,320
889.587463,322
889.704163,323
889.820862,322
889.937561,326
890.054199,308
890.170837,317
890.287598,318
890.404236,315
890.520874,314
890.637634,303
890.754211,321
890.87085,311
890.987549,294
891.104187,318
891.220886,315
891.337463,323
891.454102,299
891.57074,316
891.687378,310
891.804077,322
891.920654,313
892.037231,305
892.15387,307
892.270447,327
892.387085,320
892.503723,327
892.6203,311
892.736877,311
892.853516,318
892.970032,322
893.08667,325
893.203186,314
893.319763,311
893.43634,323
893.552917,309
893.669556,328
893.786011,306
893.902588,324
894.019165,306
894.135681,306
894.252197,326
894.368835,315
894.485291,316
894.601868,319
894.718384,315
894.8349,329
894.951355,311
895.067932,316
895.184448,303
895.300964,322
895.417419,304
895.533936,315
895.650452,314
895.766907,322
895.883423,321
895.999878,319
896.116333,307
896.232849,330
896.349304,314
896.465759,322
896.582214,311
896.698669,325
896.815125,318
896.931641,316
897.048035,322
897.164551,316
897.280884,314
897.397339,301
897.513794,311
897.630249,327
897.746582,318
897.863098,309
897.979431,315
898.095886,318
898.212341,313
898.328674,311
898.445129,301
898.561462,308
898.677795,314
898.794312,330
898.910645,325
899.026978,315
899.143433,308
899.259766,300
899.37616,318
899.492493,319
899.608765,302
899.725159,322
899.841553,312
899.957947,307
900.07428,296
900.190552,311
900.306946,315
900.423157,319
900.53949,315
900.655884,313
900.772156,307
900.888489,319
901.004822,321
901.121033,297
901.237366,318
901.353699,313
901.46991,308
901.586304,320
901.702515,326
901.818787,324
901.93512,306
902.051331,321
902.167603,304
902.283875,321
902.400085,307
902.516418,330
902.632629,322
902.74884,325
902.865112,304
902.981384,305
903.097595,313
903.213867,316
903.330017,319
903.446289,301
903.5625,320
903.67865,327
903.794922,312
903.911072,324
904.027344,316
904.143494,315
904.259705,319
904.375916,315
904.492065,321
904.608215,307
904.724426,308
904.840576,319
904.956726,318
905.072876,323
905.189087,313
905.305176,320
905.421387,316
905.537537,313
905.653687,310
905.769775,316
905.885925,311
906.002014,323
906.118164,321
906.234314,311
906.350403,318
906.466492,321
906.582642,334
906.69873,312
906.814758,331
906.930908,313
907.046936,318
907.163086,313
907.279175,304
907.395264,321
907.511353,310
907.62738,324
907.743408,325
907.859497,317
907.975525,315
908.091553,321
908.207703,321
908.32373,315
908.439758,314
908.555786,317
908.671814,324
908.787842,328
908.90387,324
909.019775,324
909.135864,313
909.251892,316
909.367859,308
909.483826,310
909.599854,310
909.715881,312
909.831848,316
909.947815,323
910.063782,330
910.179749,315
910.295776,312
910.411743,313
910.527649,317
910.643616,315
910.759583,313
910.875488,308
910.991455,323
911.107361,306
911.223267,304
911.339294,324
911.4552,340
911.571106,301
911.687073,321
911.802979,322
911.918823,311
912.034729,323
912.150635,320
912.266602,322
912.382446,306
912.498352,312
912.614197,328
912.730103,325
912.846008,321
