792.44574,361
792.56488,399
792.68396,437
792.80304,431
792.92218,382
793.041199,373
793.160339,370
793.279419,382
793.398499,373
793.517578,348
793.636658,357
793.755737,373
793.874817,378
793.993896,385
794.112976,379
794.232056,359
794.351074,362
794.470215,352
794.589233,358
794.708313,332
794.827393,349
794.946411,352
795.065552,351
795.18457,369
795.303589,347
795.422668,342
795.541687,345
795.660767,353
795.779846,339
795.898865,348
796.017883,330
796.136963,353
796.255981,337
796.375061,365
796.49408,350
796.613037,354
796.732117,348
796.851135,352
796.970154,355
797.089233,327
797.208191,331
797.327271,347
797.446228,344
797.565186,354
797.684265,343
797.803223,358
797.922241,344
798.04126,347
798.160278,356
798.279297,340
798.398315,344
798.517273,339
798.636292,329
798.75531,339
798.874268,328
798.993286,330
799.112244,349
799.231323,340
799.350281,339
799.469238,342
799.588257,341
799.707153,324
799.826111,325
799.945129,339
800.064087,341
800.183044,335
800.302063,333
800.421021,326
800.539978,335
800.658936,340
800.777893,342
800.896912,340
801.015747,336
801.134705,341
801.253723,317
801.37262,340
801.491638,345
801.610535,337
801.729492,332
801.84845,333
801.967407,339
802.086243,332
802.205261,322
802.324158,338
802.443115,327
802.562073,335
802.680969,330
802.799927,324
802.918762,338
803.037659,335
803.156677,327
803.275574,321
803.39447,326
803.513428,333
803.632263,338
803.751221,315
803.870117,329
803.989014,337
804.107971,319
804.226746,336
804.345642,332
804.4646,341
804.583496,342
804.702393,335
804.821228,325
804.940125,323
805.059021,331
805.177917,320
805.296814,306
805.415649,340
805.534546,339
805.653442,331
805.772278,325
805.891113,325
806.01001,333
806.128906,338
806.247742,338
806.366577,319
806.485413,328
806.604309,334
806.723145,324
806.84198,316
806.960876,336
807.079712,327
807.198486,331
807.317383,336
807.436218,327
807.554993,334
807.673889,315
807.792725,335
807.91156,339
808.030396,320
808.14917,324
808.268005,320
808.386841,322
808.505676,334
808.624451,317
808.743286,339
808.862122,331
808.980896,343
809.099731,331
809.218506,334
809.337341,318
809.456116,331
809.57489,322
809.693726,332
809.8125,329
809.931274,329
810.050049,331
810.168884,323
810.287659,328
810.406372,311
810.525269,320
810.643982,339
810.762756,313
810.881531,342
811.000305,336
811.11908,328
811.237854,325
811.356567,325
811.475403,316
811.594116,330
811.71283,341
811.831604,327
811.950378,331
812.069153,323
812.187927,331
812.30658,330
812.425415,327
812.544128,324
812.662781,328
812.781616,332
812.900269,331
813.019043,331
813.137756,335
813.256531,326
813.375244,311
813.493896,330
813.612671,336
813.731384,342
813.850037,344
813.96875,313
814.087524,316
814.206238,319
814.324951,337
814.443604,326
814.562256,328
814.68103,328
814.799683,327
814.918335,313
815.037109,324
815.155762,337
815.274475,325
815.393188,337
815.511841,323
815.630554,338
815.749146,315
815.867859,321
815.986572,328
816.105164,328
816.223877,335
816.342529,312
816.461182,320
816.579895,338
816.698486,320
816.817139,340
816.935791,339
817.054504,326
817.173096,334
817.291748,323
817.4104,330
817.529053,331
817.647644,320
817.766235,330
817.884949,320
818.00354,317
818.122192,321
818.240845,327
818.359436,330
818.478088,322
818.59668,329
818.715271,321
818.833923,319
818.952515,325
819.071106,341
819.189758,318
819.30835,325
819.426941,329
819.545532,305
819.664124,326
819.782715,320
819.901306,330
820.019897,326
820.138489,325
820.25708,327
820.375671,318
820.494202,315
820.612732,315
820.731384,320
820.849915,325
820.968506,328
821.087097,321
821.205627,316
821.324158,315
821.442749,317
821.561279,327
821.679871,316
821.798401,336
821.916931,307
822.035461,322
822.154053,321
822.272583,333
822.391174,317
822.509583,328
822.628174,315
822.746704,328
822.865234,328
822.983765,328
823.102295,332
823.220825,318
823.339294,310
823.457825,306
823.576355,320
823.694824,319
823.813354,321
823.931885,328
824.050354,337
824.168884,329
824.287354,310
824.405823,319
824.524353,319
824.642822,323
824.761353,339
824.879822,327
824.998291,327
825.116699,323
825.235291,324
825.353699,331
825.472168,316
825.590637,333
825.709106,315
825.827576,328
825.946045,324
826.064453,320
826.182983,326
826.301392,315
826.4198,325
826.53833,313
826.656738,319
826.775208,331
826.893677,326
827.012024,312
827.130493,324
827.248962,322
827.36731,315
827.485779,309
827.604248,288
827.722595,323
827.841064,313
827.959412,329
828.077942,323
828.196289,317
828.314636,319
828.433105,322
828.551514,323
828.669861,323
828.78833,310
828.906677,328
829.025085,306
829.143433,341
829.261841,329
829.38031,333
829.498657,316
829.617004,322
829.735413,322
829.85376,313
829.972107,330
830.090515,318
830.208862,336
830.327209,333
830.445557,318
830.563904,328
830.682312,325
830.800659,319
830.919006,325
831.037354,321
831.155701,310
831.274048,314
831.392395,335
831.51062,342
831.629028,325
831.747314,322
831.865662,306
831.984009,330
832.102356,331
832.220642,328
832.338928,324
832.457275,313
832.575623,327
832.693909,323
832.812134,322
832.930481,336
833.048828,304
833.167114,311
833.2854,315
833.403687,326
833.521973,318
833.640259,311
833.758545,322
833.876831,315
833.995056,331
834.113281,328
834.231628,317
834.349915,325
834.468201,322
834.586426,320
834.704651,315
834.822998,325
834.941162,308
835.059448,328
835.177673,313
835.295959,317
835.414246,312
835.53241,319
835.650635,321
835.768921,323
835.887146,332
836.005371,331
836.123596,328
836.241821,315
836.360046,306
836.478271,315
836.596497,339
836.714722,315
836.832886,334
836.95105,316
837.069336,321
837.1875,316
837.305725,322
837.423889,311
837.542053,327
837.660339,313
837.778503,328
837.896667,309
838.014832,316
838.132996,324
838.25116,313
838.369385,329
838.487488,327
838.605713,319
838.723877,336
838.84198,328
838.960205,322
839.078308,330
839.196472,324
839.314636,325
839.4328,314
839.550964,317
839.669067,325
839.787231,322
839.905396,321
840.023499,316
840.141602,319
840.259766,326
840.377869,324
840.495972,334
840.614136,322
840.732239,325
840.850342,335
840.968445,343
841.086548,319
841.204651,327
841.322754,330
841.440918,310
841.55896,330
841.677002,314
841.795166,321
841.913208,338
842.031311,319
842.149353,329
842.267456,315
842.385498,328
842.503601,327
842.621643,329
842.739746,321
842.857788,317
842.97583,328
843.093933,325
843.211975,317
843.330017,338
843.44812,333
843.566101,326
843.684204,328
843.802246,313
843.920227,332
844.038269,316
844.156311,318
844.274292,320
844.392395,325
844.510376,331
844.628357,330
844.74646,317
844.864441,318
844.982422,320
845.100403,330
845.218384,319
845.336426,325
845.454468,324
845.572449,324
845.69043,324
845.808411,335
845.926453,321
846.044373,331
846.162354,325
846.280396,319
846.398315,333
846.516296,328
846.634216,322
846.752197,336
846.870178,323
846.988098,329
847.106079,319
847.22406,312
847.34198,317
847.4599,320
847.577881,323
847.695801,310
847.813782,312
847.931641,314
848.049561,325
848.167603,330
848.285461,316
848.403381,325
848.521362,328
848.639221,320
848.75708,315
848.875,326
848.99292,311
849.110901,327
849.22876,320
849.34668,328
849.464539,332
849.582458,329
849.700317,338
849.818176,325
849.936096,323
850.053955,327
850.171875,323
850.289673,328
850.407593,322
850.525452,306
850.643311,319
850.761169,332
850.878967,334
850.996887,315
851.114746,328
851.232544,320
851.350403,320
851.468262,324
851.58606,339
851.703979,325
851.821777,319
851.939636,323
852.057434,326
852.175232,330
852.293091,317
852.410889,332
852.528687,331
852.646545,329
852.764343,323
852.88208,330
852.999939,317
853.117676,333
853.235535,337
853.353271,332
853.471069,322
853.588928,331
853.706604,337
853.824402,319
853.9422,333
854.059998,324
854.177734,324
854.295532,308
854.413269,327
854.531006,331
854.648804,322
854.766541,330
854.884277,330
855.002014,315
855.119751,319
855.237549,320
855.355225,329
855.473022,325
855.590698,328
855.708435,324
855.826172,331
855.943848,314
856.061646,329
856.179321,316
856.296997,351
856.414795,329
856.53241,326
856.650085,323
856.767822,327
856.885559,319
857.003174,320
857.120911,316
857.238586,323
857.356201,321
857.473938,320
857.591614,319
857.709351,324
857.826965,324
857.944641,328
858.062317,316
858.179993,320
858.297668,326
858.415283,334
858.532959,315
858.650574,325
858.768188,341
858.885803,341
859.003479,334
859.121094,325
859.23877,315
859.356384,333
859.473999,336
859.591675,334
859.709229,324
859.826843,321
859.944458,327
860.062012,321
860.179626,322
860.297302,320
860.414856,327
860.532471,329
860.650024,325
860.767639,332
860.885193,321
861.002808,321
861.120361,322
861.237976,330
861.35553,303
861.473022,324
861.590698,323
861.708191,328
861.825745,318
861.943298,329
862.060852,319
862.178406,317
862.295959,314
862.413513,327
862.531006,308
862.64856,322
862.766113,315
862.883667,310
863.00116,307
863.118713,330
863.236206,308
863.353699,331
863.471252,325
863.588745,327
863.706177,321
863.82373,325
863.941162,320
864.058716,318
864.176208,323
864.29364,328
864.411194,317
864.528687,330
864.646118,313
864.763611,312
864.881042,320
864.998535,306
865.116028,325
865.233459,316
865.350891,330
865.468384,323
865.585754,321
865.703308,326
865.820679,320
865.938171,323
866.055542,325
866.173035,315
866.290466,308
866.407837,310
866.52533,319
866.6427,315
866.760071,325
866.877563,336
866.994934,327
867.112305,329
867.229736,326
867.347107,327
867.464539,329
867.58197,320
867.699341,311
867.81665,328
867.934082,319
868.051453,314
868.168823,330
868.286194,315
868.403564,326
868.520935,338
868.638306,320
868.755676,311
868.872986,324
868.990295,312
869.107727,304
869.225037,326
869.342346,326
869.459717,321
869.577026,332
869.694336,327
869.811707,329
869.929016,324
870.046326,318
870.163635,328
870.280945,314
870.398254,328
870.515564,320
870.632812,328
870.750183,319
870.867432,327
870.984741,316
871.102051,330
871.219299,329
871.336609,340
871.453918,317
871.571106,329
871.688416,335
871.805664,318
871.922852,333
872.040222,329
872.157471,316
872.274719,322
872.391968,325
872.509155,312
872.626465,319
872.743652,333
872.860962,328
872.978149,327
873.095337,328
873.212646,335
873.329834,319
873.44696,329
873.564209,318
873.681396,321
873.798645,319
873.915894,318
874.03302,330
874.150208,321
874.267456,324
874.384583,329
874.501831,335
874.618958,321
874.736145,325
874.853333,335
874.970459,323
875.087646,326
875.204834,335
875.32196,330
875.439148,322
875.556274,333
875.673401,322
875.790527,319
875.907715,328
876.024841,335
876.141968,321
876.259094,345
876.376282,325
876.493347,321
876.610474,325
876.7276,334
876.844727,320
876.961853,319
877.078918,326
877.195984,336
877.313171,313
877.430237,313
877.547302,329
877.664368,308
877.781433,324
877.898499,322
878.015625,333
878.13269,330
878.249695,317
878.366821,326
878.483887,308
878.600952,325
878.717957,323
878.834961,318
878.952087,330
879.069092,319
879.186157,323
879.303162,324
879.420227,318
879.537231,327
879.654236,324
879.77124,333
879.888306,333
880.005249,320
880.122314,316
880.239319,314
880.356323,327
880.473328,314
880.590271,319
880.707275,308
880.824341,318
880.941284,312
881.058228,320
881.175232,323
881.292236,330
881.40918,324
881.526123,320
881.643066,299
881.760071,313
881.877014,328
881.993958,322
882.11084,339
882.227783,320
882.344727,306
882.46167,320
882.578613,307
882.695618,328
882.812439,322
882.929382,314
883.046326,318
883.163208,316
883.280151,322
883.397034,308
883.513916,321
883.630798,329
883.747742,305
883.864563,314
883.981506,325
884.098389,321
884.21521,327
884.332153,320
884.448975,338
884.565796,305
884.682678,316
884.7995,336
884.916443,328
885.033264,331
885.150085,318
885.266968,314
885.383789,350
885.500671,331
885.617493,330
885.734314,324
885.851196,338
885.967896,347
886.084717,337
886.201599,333
886.318359,328
886.435181,326
886.552002,341
886.668762,328
886.785645,317
886.902344,345
887.019165,315
887.135925,326
887.252747,321
887.369446,320
887.486267,322
887.603027,324
887.719788,321
887.836548,314
887.953247,327
888.070068,323
888.186829,315
888.303528,317
888.420288,329
888.536987,324
888.653687,314
888.770447,329
888.887146,328
889.003967,327
889.120667,335
889.237305,301
889.354065,313
889.470703,312
889.587463,319
889.704163,317
889.820862,321
889.937561,325
890.054199,317
890.170837,327
890.287598,320
890.404236,321
890.520874,318
890.637634,305
890.754211,309
890.87085,309
890.987549,309
891.104187,318
891.220886,320
891.337463,321
891.454102,314
891.57074,320
891.687378,321
891.804077,300
891.920654,317
892.037231,316
892.15387,305
892.270447,300
892.387085,309
892.503723,322
892.6203,319
892.736877,320
892.853516,314
892.970032,302
893.08667,311
893.203186,312
893.319763,319
893.43634,315
893.552917,321
893.669556,306
893.786011,325
893.902588,317
894.019165,309
894.135681,320
894.252197,320
894.368835,322
894.485291,317
894.601868,315
894.718384,321
894.8349,310
894.951355,329
895.067932,334
895.184448,309
895.300964,321
895.417419,329
895.533936,310
895.650452,321
895.766907,312
895.883423,317
895.999878,314
896.116333,320
896.232849,314
896.349304,320
896.465759,321
896.582214,310
896.698669,318
896.815125,311
896.931641,309
897.048035,314
897.164551,305
897.280884,322
897.397339,313
897.513794,317
897.630249,328
897.746582,311
897.863098,314
897.979431,320
898.095886,317
898.212341,316
898.328674,318
898.445129,320
898.561462,305
898.677795,315
898.794312,316
898.910645,321
899.026978,330
899.143433,320
899.259766,310
899.37616,315
899.492493,326
899.608765,316
899.725159,307
899.841553,321
899.957947,300
900.07428,319
900.190552,311
900.306946,324
900.423157,316
900.53949,327
900.655884,311
900.772156,322
900.888489,316
901.004822,332
901.121033,322
901.237366,312
901.353699,307
901.46991,321
901.586304,321
901.702515,317
901.818787,325
901.93512,323
902.051331,317
902.167603,316
902.283875,324
902.400085,326
902.516418,326
902.632629,342
902.74884,321
902.865112,325
902.981384,327
903.097595,331
903.213867,340
903.330017,322
903.446289,325
903.5625,326
903.67865,331
903.794922,342
903.911072,312
904.027344,313
904.143494,323
904.259705,336
904.375916,315
904.492065,332
904.608215,315
904.724426,324
904.840576,318
904.956726,316
905.072876,324
905.189087,323
905.305176,311
905.421387,320
905.537537,314
905.653687,322
905.769775,319
905.885925,315
906.002014,323
906.118164,310
906.234314,315
906.350403,310
906.466492,314
906.582642,316
906.69873,306
906.814758,310
906.930908,318
907.046936,308
907.163086,318
907.279175,316
907.395264,320
907.511353,311
907.62738,310
907.743408,313
907.859497,313
907.975525,319
908.091553,306
908.207703,323
908.32373,314
908.439758,319
908.555786,313
908.671814,328
908.787842,323
908.90387,316
909.019775,318
909.135864,308
909.251892,310
909.367859,325
909.483826,325
909.599854,325
909.715881,294
909.831848,337
909.947815,310
910.063782,321
910.179749,338
910.295776,308
910.411743,312
910.527649,321
910.643616,328
910.759583,309
910.875488,325
910.991455,318
911.107361,307
911.223267,313
911.339294,315
911.4552,320
911.571106,324
911.687073,308
911.802979,322
911.918823,322
912.034729,312
912.150635,314
912.266602,312
912.382446,330
912.498352,311
912.614197,318
912.730103,317
912.846008,315
792.44574,374
792.56488,412
792.68396,464
792.80304,433
792.92218,378
793.041199,362
793.160339,361
793.279419,373
793.398499,354
793.517578,354
793.636658,343
793.755737,369
793.874817,385
793.993896,381
794.112976,373
794.232056,358
794.351074,352
794.470215,361
794.589233,363
794.708313,348
794.827393,338
794.946411,355
795.065552,361
795.18457,365
795.303589,352
795.422668,364
795.541687,349
795.660767,334
795.779846,365
795.898865,348
796.017883,344
796.136963,341
796.255981,357
796.375061,345
796.49408,349
796.613037,349
796.732117,341
796.851135,343
796.970154,360
797.089233,332
797.208191,353
797.327271,340
797.446228,354
797.565186,338
797.684265,338
797.803223,337
797.922241,342
798.04126,333
798.160278,336
798.279297,336
798.398315,354
798.517273,326
798.636292,333
798.75531,334
798.874268,343
798.993286,344
799.112244,351
799.231323,338
799.350281,346
799.469238,344
799.588257,342
799.707153,333
799.826111,326
799.945129,324
800.064087,342
800.183044,334
800.302063,341
800.421021,344
800.539978,325
800.658936,327
800.777893,336
800.896912,331
801.015747,330
801.134705,346
801.253723,335
801.37262,342
801.491638,342
801.610535,328
801.729492,337
801.84845,337
801.967407,347
802.086243,332
802.205261,340
802.324158,335
802.443115,339
802.562073,325
802.680969,338
802.799927,330
802.918762,341
803.037659,317
803.156677,333
803.275574,332
803.39447,338
803.513428,326
803.632263,328
803.751221,337
803.870117,338
803.989014,325
804.107971,329
804.226746,334
804.345642,330
804.4646,345
804.583496,312
804.702393,334
804.821228,325
804.940125,334
805.059021,345
805.177917,330
805.296814,333
805.415649,339
805.534546,322
805.653442,326
805.772278,336
805.891113,321
806.01001,323
806.128906,329
806.247742,328
806.366577,314
806.485413,326
806.604309,327
806.723145,321
806.84198,319
806.960876,323
807.079712,310
807.198486,327
807.317383,340
807.436218,335
807.554993,321
807.673889,325
807.792725,323
807.91156,328
808.030396,323
808.14917,346
808.268005,314
808.386841,330
808.505676,317
808.624451,325
808.743286,326
808.862122,345
808.980896,336
809.099731,331
809.218506,335
809.337341,319
809.456116,344
809.57489,324
809.693726,335
809.8125,308
809.931274,333
810.050049,328
810.168884,325
810.287659,320
810.406372,330
810.525269,334
810.643982,336
810.762756,335
810.881531,321
811.000305,335
811.11908,322
811.237854,329
811.356567,329
811.475403,331
811.594116,328
811.71283,333
811.831604,311
811.950378,316
812.069153,330
812.187927,346
812.30658,333
812.425415,332
812.544128,322
812.662781,333
812.781616,338
812.900269,317
813.019043,342
813.137756,321
813.256531,339
813.375244,320
813.493896,311
813.612671,314
813.731384,323
813.850037,331
813.96875,320
814.087524,322
814.206238,328
814.324951,328
814.443604,325
814.562256,340
814.68103,322
814.799683,322
814.918335,323
815.037109,334
815.155762,330
815.274475,328
815.393188,337
815.511841,324
815.630554,331
815.749146,323
815.867859,324
815.986572,324
816.105164,336
816.223877,315
816.342529,321
816.461182,342
816.579895,337
816.698486,325
816.817139,338
816.935791,314
817.054504,330
817.173096,323
817.291748,332
817.4104,325
817.529053,326
817.647644,324
817.766235,332
817.884949,336
818.00354,320
818.122192,330
818.240845,342
818.359436,328
818.478088,325
818.59668,326
818.715271,326
818.833923,332
818.952515,332
819.071106,338
819.189758,330
819.30835,331
819.426941,327
819.545532,308
819.664124,319
819.782715,335
819.901306,312
820.019897,325
820.138489,326
820.25708,322
820.375671,332
820.494202,329
820.612732,323
820.731384,324
820.849915,332
820.968506,320
821.087097,328
821.205627,326
821.324158,303
821.442749,317
821.561279,318
821.679871,320
821.798401,313
821.916931,334
822.035461,326
822.154053,332
822.272583,325
822.391174,299
822.509583,318
822.628174,318
822.746704,328
822.865234,311
822.983765,316
823.102295,317
823.220825,307
823.339294,317
823.457825,320
823.576355,313
823.694824,314
823.813354,321
823.931885,313
824.050354,326
824.168884,303
824.287354,330
824.405823,325
824.524353,340
824.642822,318
824.761353,311
824.879822,316
824.998291,311
825.116699,306
825.235291,335
825.353699,318
825.472168,326
825.590637,314
825.709106,333
825.827576,321
825.946045,314
826.064453,327
826.182983,315
826.301392,311
826.4198,325
826.53833,331
826.656738,307
826.775208,326
826.893677,310
827.012024,324
827.130493,310
827.248962,326
827.36731,319
827.485779,313
827.604248,321
827.722595,328
827.841064,318
827.959412,323
828.077942,312
828.196289,319
828.314636,314
828.433105,321
828.551514,316
828.669861,329
828.78833,321
828.906677,308
829.025085,313
829.143433,323
829.261841,318
829.38031,329
829.498657,320
829.617004,330
829.735413,312
829.85376,317
829.972107,323
830.090515,320
830.208862,320
830.327209,323
830.445557,322
830.563904,324
830.682312,305
830.800659,326
830.919006,334
831.037354,332
831.155701,329
831.274048,304
831.392395,321
831.51062,321
831.629028,327
831.747314,327
831.865662,327
831.984009,339
832.102356,330
832.220642,308
832.338928,323
832.457275,317
832.575623,327
832.693909,315
832.812134,330
832.930481,310
833.048828,335
833.167114,322
833.2854,322
833.403687,324
833.521973,321
833.640259,326
833.758545,328
833.876831,316
833.995056,326
834.113281,319
834.231628,336
834.349915,322
834.468201,330
834.586426,329
834.704651,332
834.822998,325
834.941162,327
835.059448,325
835.177673,313
835.295959,320
835.414246,323
835.53241,317
835.650635,330
835.768921,325
835.887146,317
836.005371,329
836.123596,309
836.241821,322
836.360046,308
836.478271,321
836.596497,312
836.714722,315
836.832886,324
836.95105,318
837.069336,317
837.1875,322
837.305725,317
837.423889,324
837.542053,312
837.660339,336
837.778503,326
837.896667,327
838.014832,318
838.132996,321
838.25116,330
838.369385,324
838.487488,313
838.605713,317
838.723877,310
838.84198,330
838.960205,312
839.078308,316
839.196472,318
839.314636,313
839.4328,325
839.550964,335
839.669067,324
839.787231,336
839.905396,319
840.023499,312
840.141602,324
840.259766,321
840.377869,317
840.495972,321
840.614136,305
840.732239,325
840.850342,325
840.968445,317
841.086548,330
841.204651,334
841.322754,323
841.440918,348
841.55896,318
841.677002,340
841.795166,347
841.913208,324
842.031311,330
842.149353,320
842.267456,317
842.385498,320
842.503601,325
842.621643,331
842.739746,312
842.857788,334
842.97583,326
843.093933,328
843.211975,327
843.330017,318
843.44812,333
843.566101,325
843.684204,331
843.802246,323
843.920227,330
844.038269,319
844.156311,321
844.274292,339
844.392395,331
844.510376,314
844.628357,331
844.74646,316
844.864441,322
844.982422,338
845.100403,314
845.218384,332
845.336426,324
845.454468,317
845.572449,335
845.69043,329
845.808411,304
845.926453,326
846.044373,315
846.162354,330
846.280396,322
846.398315,330
846.516296,330
846.634216,310
846.752197,329
846.870178,317
846.988098,328
847.106079,329
847.22406,316
847.34198,320
847.4599,316
847.577881,325
847.695801,326
847.813782,333
847.931641,326
848.049561,328
848.167603,329
848.285461,335
848.403381,334
848.521362,322
848.639221,326
848.75708,346
848.875,310
848.99292,338
849.110901,333
849.22876,330
849.34668,327
849.464539,327
849.582458,336
849.700317,331
849.818176,320
849.936096,322
850.053955,329
850.171875,310
850.289673,326
850.407593,327
850.525452,339
850.643311,317
850.761169,313
850.878967,321
850.996887,312
851.114746,329
851.232544,333
851.350403,330
851.468262,330
851.58606,328
851.703979,324
851.821777,323
851.939636,322
852.057434,327
852.175232,328
852.293091,336
852.410889,319
852.528687,320
852.646545,321
852.764343,324
852.88208,327
852.999939,326
853.117676,331
853.235535,329
853.353271,310
853.471069,330
853.588928,313
853.706604,339
853.824402,327
853.9422,335
854.059998,335
854.177734,317
854.295532,327
854.413269,330
854.531006,321
854.648804,331
854.766541,316
854.884277,333
855.002014,312
855.119751,322
855.237549,318
855.355225,324
855.473022,331
855.590698,319
855.708435,324
855.826172,341
855.943848,330
856.061646,317
856.179321,323
856.296997,322
856.414795,321
856.53241,331
856.650085,325
856.767822,334
856.885559,322
857.003174,328
857.120911,318
857.238586,327
857.356201,327
857.473938,327
857.591614,327
857.709351,323
857.826965,318
857.944641,323
858.062317,322
858.179993,326
858.297668,314
858.415283,322
858.532959,327
858.650574,306
858.768188,317
858.885803,330
859.003479,321
859.121094,323
859.23877,318
859.356384,325
859.473999,339
859.591675,320
859.709229,325
859.826843,316
859.944458,319
860.062012,327
860.179626,322
860.297302,334
860.414856,326
860.532471,334
860.650024,320
860.767639,316
860.885193,327
861.002808,330
861.120361,320
861.237976,323
861.35553,311
861.473022,327
861.590698,311
861.708191,321
861.825745,333
861.943298,321
862.060852,322
862.178406,312
862.295959,342
862.413513,332
862.531006,318
862.64856,331
862.766113,328
862.883667,331
863.00116,318
863.118713,327
863.236206,314
863.353699,331
863.471252,325
863.588745,320
863.706177,320
863.82373,327
863.941162,314
864.058716,339
864.176208,316
864.29364,332
864.411194,317
864.528687,327
864.646118,326
864.763611,325
864.881042,322
864.998535,322
865.116028,329
865.233459,318
865.350891,313
865.468384,317
865.585754,325
865.703308,321
865.820679,314
865.938171,312
866.055542,327
866.173035,323
866.290466,310
866.407837,318
866.52533,326
866.6427,314
866.760071,310
866.877563,320
866.994934,312
867.112305,322
867.229736,320
867.347107,327
867.464539,332
867.58197,323
867.699341,319
867.81665,331
867.934082,326
868.051453,327
868.168823,320
868.286194,330
868.403564,329
868.520935,324
868.638306,323
868.755676,328
868.872986,328
868.990295,330
869.107727,331
869.225037,322
869.342346,316
869.459717,323
869.577026,312
869.694336,315
869.811707,327
869.929016,341
870.046326,316
870.163635,307
870.280945,330
870.398254,317
870.515564,325
870.632812,316
870.750183,317
870.867432,334
870.984741,308
871.102051,332
871.219299,335
871.336609,325
871.453918,312
871.571106,306
871.688416,319
871.805664,314
871.922852,325
872.040222,326
872.157471,323
872.274719,334
872.391968,319
872.509155,322
872.626465,325
872.743652,337
872.860962,339
872.978149,324
873.095337,329
873.212646,324
873.329834,328
873.44696,332
873.564209,323
873.681396,316
873.798645,326
873.915894,323
874.03302,333
874.150208,310
874.267456,321
874.384583,344
874.501831,322
874.618958,333
874.736145,333
874.853333,321
874.970459,316
875.087646,326
875.204834,330
875.32196,329
875.439148,327
875.556274,332
875.673401,312
875.790527,328
875.907715,325
876.024841,327
876.141968,310
876.259094,334
876.376282,331
876.493347,319
876.610474,311
876.7276,328
876.844727,312
876.961853,323
877.078918,335
877.195984,330
877.313171,339
877.430237,324
877.547302,328
877.664368,322
877.781433,325
877.898499,324
878.015625,324
878.13269,332
878.249695,318
878.366821,321
878.483887,316
878.600952,323
878.717957,323
878.834961,338
878.952087,313
879.069092,315
879.186157,313
879.303162,317
879.420227,315
879.537231,336
879.654236,322
879.77124,329
879.888306,327
880.005249,334
880.122314,319
880.239319,316
880.356323,306
880.473328,319
880.590271,315
880.707275,320
880.824341,298
880.941284,326
881.058228,329
881.175232,327
881.292236,309
881.40918,314
881.526123,329
881.643066,324
881.760071,322
881.877014,319
881.993958,316
882.11084,321
882.227783,321
882.344727,324
882.46167,302
882.578613,327
882.695618,326
882.812439,332
882.929382,312
883.046326,311
883.163208,321
883.280151,322
883.397034,313
883.513916,312
883.630798,310
883.747742,314
883.864563,324
883.981506,320
884.098389,319
884.21521,324
884.332153,326
884.448975,327
884.565796,336
884.682678,312
884.7995,333
884.916443,331
885.033264,319
885.150085,331
885.266968,325
885.383789,334
885.500671,331
885.617493,330
885.734314,355
885.851196,326
885.967896,331
886.084717,320
886.201599,332
886.318359,338
886.435181,333
886.552002,346
886.668762,322
886.785645,335
886.902344,347
887.019165,318
887.135925,313
887.252747,340
887.369446,321
887.486267,330
887.603027,307
887.719788,337
887.836548,321
887.953247,330
888.070068,318
888.186829,325
888.303528,311
888.420288,320
888.536987,320
888.653687,327
888.770447,308
888.887146,321
889.003967,302
889.120667,324
889.237305,318
889.354065,318
889.470703,308
889.587463,323
889.704163,319
889.820862,327
889.937561,313
890.054199,310
890.170837,325
890.287598,313
890.404236,315
890.520874,309
890.637634,316
890.754211,318
890.87085,323
890.987549,326
891.104187,314
891.220886,316
891.337463,321
891.454102,321
891.57074,323
891.687378,324
891.804077,300
891.920654,332
892.037231,326
892.15387,321
892.270447,317
892.387085,309
892.503723,305
892.6203,318
892.736877,310
892.853516,318
892.970032,309
893.08667,327
893.203186,308
893.319763,323
893.43634,339
893.552917,319
893.669556,327
893.786011,320
893.902588,314
894.019165,325
894.135681,321
894.252197,315
894.368835,308
894.485291,312
894.601868,325
894.718384,318
894.8349,324
894.951355,311
895.067932,314
895.184448,305
895.300964,307
895.417419,319
895.533936,311
895.650452,330
895.766907,318
895.883423,312
895.999878,317
896.116333,312
896.232849,335
896.349304,314
896.465759,310
896.582214,337
896.698669,313
896.815125,332
896.931641,315
897.048035,310
897.164551,310
897.280884,319
897.397339,322
897.513794,314
897.630249,326
897.746582,323
897.863098,317
897.979431,335
898.095886,321
898.212341,318
898.328674,315
898.445129,341
898.561462,309
898.677795,308
898.794312,313
898.910645,333
899.026978,325
899.143433,316
899.259766,325
899.37616,312
899.492493,315
899.608765,324
899.725159,305
899.841553,328
899.957947,315
900.07428,322
900.190552,322
900.306946,318
900.423157,312
900.53949,314
900.655884,327
900.772156,312
900.888489,318
901.004822,315
901.121033,316
901.237366,313
901.353699,323
901.46991,331
901.586304,307
901.702515,324
901.818787,326
901.93512,295
902.051331,331
902.167603,325
902.283875,333
902.400085,313
902.516418,318
902.632629,324
902.74884,330
902.865112,328
902.981384,319
903.097595,331
903.213867,331
903.330017,317
903.446289,309
903.5625,329
903.67865,327
903.794922,337
903.911072,338
904.027344,334
904.143494,312
904.259705,327
904.375916,317
904.492065,319
904.608215,314
904.724426,333
904.840576,304
904.956726,320
905.072876,315
905.189087,310
905.305176,327
905.421387,313
905.537537,321
905.653687,325
905.769775,307
905.885925,317
906.002014,308
906.118164,322
906.234314,316
906.350403,312
906.466492,314
906.582642,316
906.69873,316
906.814758,323
906.930908,324
907.046936,314
907.163086,323
907.279175,334
907.395264,324
907.511353,312
907.62738,309
907.743408,304
907.859497,316
907.975525,319
908.091553,311
908.207703,320
908.32373,310
908.439758,325
908.555786,315
908.671814,323
908.787842,320
908.90387,310
909.019775,329
909.135864,320
909.251892,291
909.367859,323
909.483826,320
909.599854,319
909.715881,321
909.831848,321
909.947815,309
910.063782,323
910.179749,316
910.295776,320
910.411743,313
910.527649,320
910.643616,308
910.759583,322
910.875488,322
910.991455,307
911.107361,332
911.223267,333
911.339294,313
911.4552,317
911.571106,309
911.687073,309
911.802979,308
911.918823,326
912.034729,313
912.150635,317
912.266602,316
912.382446,335
912.498352,310
912.614197,314
912.730103,312
912.846008,318
792.44574,356
792.56488,402
792.68396,455
792.80304,426
792.92218,385
793.041199,357
793.160339,370
793.279419,384
793.398499,369
793.517578,338
793.636658,352
793.755737,370
793.874817,366
793.993896,384
794.112976,365
794.232056,360
794.351074,363
794.470215,347
794.589233,350
794.708313,355
794.827393,352
794.946411,349
795.065552,365
795.18457,353
795.303589,343
795.422668,350
795.541687,348
795.660767,356
795.779846,333
795.898865,363
796.017883,344
796.136963,358
796.255981,356
796.375061,359
796.49408,344
796.613037,338
796.732117,367
796.851135,349
796.970154,361
797.089233,340
797.208191,336
797.327271,343
797.446228,341
797.565186,353
797.684265,345
797.803223,336
797.922241,344
798.04126,353
798.160278,345
798.279297,339
798.398315,336
798.517273,314
798.636292,337
798.75531,338
798.874268,346
798.993286,347
799.112244,338
799.231323,330
799.350281,341
799.469238,333
799.588257,351
799.707153,346
799.826111,329
799.945129,345
800.064087,337
800.183044,334
800.302063,334
800.421021,317
800.539978,341
800.658936,341
800.777893,316
800.896912,331
801.015747,342
801.134705,344
801.253723,343
801.37262,333
801.491638,338
801.610535,327
801.729492,330
801.84845,338
801.967407,328
802.086243,350
802.205261,339
802.324158,333
802.443115,342
802.562073,324
802.680969,339
802.799927,344
802.918762,317
803.037659,320
803.156677,337
803.275574,331
803.39447,329
803.513428,326
803.632263,331
803.751221,321
803.870117,329
803.989014,333
804.107971,324
804.226746,335
804.345642,332
804.4646,317
804.583496,351
804.702393,330
804.821228,332
804.940125,331
805.059021,328
805.177917,329
805.296814,337
805.415649,331
805.534546,320
805.653442,323
805.772278,321
805.891113,317
806.01001,321
806.128906,324
806.247742,323
806.366577,319
806.485413,317
806.604309,322
806.723145,339
806.84198,325
806.960876,338
807.079712,333
807.198486,342
807.317383,342
807.436218,328
807.554993,330
807.673889,318
807.792725,314
807.91156,323
808.030396,339
808.14917,322
808.268005,335
808.386841,336
808.505676,342
808.624451,324
808.743286,330
808.862122,330
808.980896,335
809.099731,325
809.218506,326
809.337341,345
809.456116,319
809.57489,327
809.693726,328
809.8125,323
809.931274,325
810.050049,318
810.168884,327
810.287659,328
810.406372,321
810.525269,321
810.643982,328
810.762756,327
810.881531,316
811.000305,332
811.11908,327
811.237854,315
811.356567,329
811.475403,317
811.594116,328
811.71283,321
811.831604,334
811.950378,327
812.069153,325
812.187927,328
812.30658,331
812.425415,332
812.544128,339
812.662781,323
812.781616,321
812.900269,333
813.019043,332
813.137756,332
813.256531,342
813.375244,329
813.493896,326
813.612671,334
813.731384,326
813.850037,328
813.96875,337
814.087524,322
814.206238,316
814.324951,323
814.443604,336
814.562256,322
814.68103,327
814.799683,330
814.918335,321
815.037109,330
815.155762,336
815.274475,334
815.393188,317
815.511841,328
815.630554,324
815.749146,327
815.867859,328
815.986572,327
816.105164,327
816.223877,321
816.342529,330
816.461182,327
816.579895,330
816.698486,320
816.817139,317
816.935791,328
817.054504,348
817.173096,322
817.291748,334
817.4104,337
817.529053,333
817.647644,319
817.766235,326
817.884949,329
818.00354,345
818.122192,326
818.240845,328
818.359436,320
818.478088,313
818.59668,324
818.715271,309
818.833923,317
818.952515,341
819.071106,325
819.189758,325
819.30835,325
819.426941,326
819.545532,320
819.664124,318
819.782715,330
819.901306,317
820.019897,322
820.138489,323
820.25708,330
820.375671,330
820.494202,306
820.612732,330
820.731384,331
820.849915,330
820.968506,328
821.087097,312
821.205627,331
821.324158,325
821.442749,320
821.561279,308
821.679871,323
821.798401,324
821.916931,330
822.035461,309
822.154053,318
822.272583,322
822.391174,322
822.509583,311
822.628174,330
822.746704,322
822.865234,324
822.983765,309
823.102295,314
823.220825,319
823.339294,314
823.457825,324
823.576355,326
823.694824,328
823.813354,331
823.931885,332
824.050354,308
824.168884,324
824.287354,311
824.405823,322
824.524353,328
824.642822,321
824.761353,333
824.879822,319
824.998291,326
825.116699,322
825.235291,319
825.353699,320
825.472168,331
825.590637,328
825.709106,314
825.827576,323
825.946045,331
826.064453,319
826.182983,329
826.301392,325
826.4198,333
826.53833,311
826.656738,312
826.775208,322
826.893677,313
827.012024,334
827.130493,316
827.248962,323
827.36731,320
827.485779,331
827.604248,306
827.722595,313
827.841064,326
827.959412,324
828.077942,313
828.196289,312
828.314636,316
828.433105,309
828.551514,339
828.669861,309
828.78833,314
828.906677,327
829.025085,328
829.143433,329
829.261841,332
829.38031,322
829.498657,313
829.617004,318
829.735413,317
829.85376,324
829.972107,327
830.090515,314
830.208862,318
830.327209,324
830.445557,322
830.563904,312
830.682312,318
830.800659,312
830.919006,318
831.037354,328
831.155701,329
831.274048,314
831.392395,327
831.51062,316
831.629028,322
831.747314,323
831.865662,330
831.984009,310
832.102356,335
832.220642,325
832.338928,314
832.457275,323
832.575623,329
832.693909,320
832.812134,320
832.930481,329
833.048828,314
833.167114,317
833.2854,324
833.403687,335
833.521973,324
833.640259,317
833.758545,317
833.876831,328
833.995056,314
834.113281,318
834.231628,310
834.349915,324
834.468201,311
834.586426,318
834.704651,316
834.822998,319
834.941162,313
835.059448,330
835.177673,307
835.295959,326
835.414246,325
835.53241,323
835.650635,309
835.768921,334
835.887146,306
836.005371,310
836.123596,303
836.241821,319
836.360046,325
836.478271,318
836.596497,316
836.714722,316
836.832886,318
836.95105,319
837.069336,316
837.1875,330
837.305725,330
837.423889,329
837.542053,330
837.660339,316
837.778503,309
837.896667,332
838.014832,322
838.132996,325
838.25116,328
838.369385,329
838.487488,320
838.605713,320
838.723877,324
838.84198,332
838.960205,314
839.078308,319
839.196472,311
839.314636,324
839.4328,332
839.550964,316
839.669067,329
839.787231,296
839.905396,337
840.023499,333
840.141602,319
840.259766,310
840.377869,329
840.495972,318
840.614136,313
840.732239,335
840.850342,317
840.968445,322
841.086548,328
841.204651,324
841.322754,330
841.440918,332
841.55896,336
841.677002,326
841.795166,326
841.913208,332
842.031311,325
842.149353,338
842.267456,346
842.385498,320
842.503601,325
842.621643,318
842.739746,313
842.857788,311
842.97583,330
843.093933,335
843.211975,314
843.330017,334
843.44812,340
843.566101,327
843.684204,330
843.802246,330
843.920227,327
844.038269,328
844.156311,316
844.274292,302
844.392395,323
844.510376,336
844.628357,318
844.74646,331
844.864441,327
844.982422,324
845.100403,310
845.218384,315
845.336426,323
845.454468,327
845.572449,330
845.69043,333
845.808411,314
845.926453,317
846.044373,328
846.162354,323
846.280396,325
846.398315,318
846.516296,317
846.634216,324
846.752197,332
846.870178,329
846.988098,326
847.106079,327
847.22406,315
847.34198,319
847.4599,318
847.577881,330
847.695801,310
847.813782,326
847.931641,320
848.049561,335
848.167603,327
848.285461,318
848.403381,331
848.521362,317
848.639221,319
848.75708,335
848.875,306
848.99292,318
849.110901,315
849.22876,336
849.34668,323
849.464539,322
849.582458,322
849.700317,322
849.818176,329
849.936096,337
850.053955,319
850.171875,319
850.289673,305
850.407593,318
850.525452,331
850.643311,328
850.761169,323
850.878967,321
850.996887,338
851.114746,323
851.232544,321
851.350403,313
851.468262,317
851.58606,314
851.703979,325
851.821777,334
851.939636,328
852.057434,323
852.175232,328
852.293091,345
852.410889,322
852.528687,330
852.646545,340
852.764343,339
852.88208,319
852.999939,340
853.117676,330
853.235535,321
853.353271,320
853.471069,315
853.588928,329
853.706604,326
853.824402,324
853.9422,326
854.059998,322
854.177734,318
854.295532,311
854.413269,315
854.531006,320
854.648804,328
854.766541,322
854.884277,314
855.002014,314
855.119751,318
855.237549,320
855.355225,316
855.473022,315
855.590698,324
855.708435,320
855.826172,319
855.943848,321
856.061646,334
856.179321,325
856.296997,339
856.414795,325
856.53241,317
856.650085,339
856.767822,322
856.885559,330
857.003174,331
857.120911,333
857.238586,323
857.356201,322
857.473938,334
857.591614,325
857.709351,323
857.826965,319
857.944641,327
858.062317,332
858.179993,326
858.297668,325
858.415283,319
858.532959,324
858.650574,333
858.768188,327
858.885803,327
859.003479,330
859.121094,315
859.23877,328
859.356384,324
859.473999,322
859.591675,323
859.709229,313
859.826843,319
859.944458,326
860.062012,327
860.179626,322
860.297302,343
860.414856,318
860.532471,332
860.650024,312
860.767639,316
860.885193,325
861.002808,314
861.120361,314
861.237976,323
861.35553,337
861.473022,324
861.590698,321
861.708191,332
861.825745,326
861.943298,321
862.060852,329
862.178406,336
862.295959,326
862.413513,322
862.531006,330
862.64856,314
862.766113,333
862.883667,331
863.00116,317
863.118713,323
863.236206,321
863.353699,332
863.471252,329
863.588745,318
863.706177,321
863.82373,316
863.941162,311
864.058716,329
864.176208,324
864.29364,322
864.411194,321
864.528687,325
864.646118,305
864.763611,319
864.881042,331
864.998535,326
865.116028,317
865.233459,315
865.350891,312
865.468384,328
865.585754,304
865.703308,322
865.820679,330
865.938171,319
866.055542,318
866.173035,326
866.290466,316
866.407837,322
866.52533,319
866.6427,319
866.760071,323
866.877563,311
866.994934,322
867.112305,324
867.229736,317
867.347107,320
867.464539,334
867.58197,322
867.699341,310
867.81665,320
867.934082,320
868.051453,332
868.168823,316
868.286194,317
868.403564,326
868.520935,319
868.638306,313
868.755676,339
868.872986,319
868.990295,324
869.107727,302
869.225037,321
869.342346,335
869.459717,306
869.577026,332
869.694336,311
869.811707,318
869.929016,329
870.046326,336
870.163635,314
870.280945,322
870.398254,324
870.515564,324
870.632812,330
870.750183,340
870.867432,334
870.984741,315
871.102051,320
871.219299,330
871.336609,331
871.453918,342
871.571106,326
871.688416,341
871.805664,333
871.922852,327
872.040222,322
872.157471,325
872.274719,340
872.391968,323
872.509155,337
872.626465,325
872.743652,331
872.860962,324
872.978149,328
873.095337,329
873.212646,319
873.329834,332
873.44696,336
873.564209,312
873.681396,335
873.798645,332
873.915894,318
874.03302,313
874.150208,340
874.267456,330
874.384583,316
874.501831,338
874.618958,325
874.736145,327
874.853333,336
874.970459,309
875.087646,322
875.204834,324
875.32196,332
875.439148,329
875.556274,331
875.673401,333
875.790527,325
875.907715,330
876.024841,323
876.141968,316
876.259094,328
876.376282,308
876.493347,329
876.610474,329
876.7276,317
876.844727,329
876.961853,336
877.078918,311
877.195984,321
877.313171,306
877.430237,321
877.547302,326
877.664368,329
877.781433,327
877.898499,324
878.015625,317
878.13269,316
878.249695,324
878.366821,323
878.483887,305
878.600952,325
878.717957,327
878.834961,324
878.952087,322
879.069092,320
879.186157,331
879.303162,320
879.420227,323
879.537231,327
879.654236,322
879.77124,311
879.888306,315
880.005249,332
880.122314,330
880.239319,310
880.356323,321
880.473328,321
880.590271,317
880.707275,313
880.824341,309
880.941284,332
881.058228,308
881.175232,321
881.292236,294
881.40918,326
881.526123,320
881.643066,336
881.760071,313
881.877014,341
881.993958,319
882.11084,317
882.227783,311
882.344727,325
882.46167,323
882.578613,317
882.695618,328
882.812439,329
882.929382,307
883.046326,312
883.163208,330
883.280151,323
883.397034,327
883.513916,311
883.630798,318
883.747742,323
883.864563,318
883.981506,336
884.098389,307
884.21521,324
884.332153,325
884.448975,321
884.565796,321
884.682678,336
884.7995,324
884.916443,321
885.033264,325
885.150085,335
885.266968,327
885.383789,348
885.500671,336
885.617493,334
885.734314,328
885.851196,331
885.967896,318
886.084717,336
886.201599,330
886.318359,337
886.435181,325
886.552002,337
886.668762,323
886.785645,333
886.902344,318
887.019165,339
887.135925,331
887.252747,328
887.369446,322
887.486267,318
887.603027,330
887.719788,336
887.836548,306
887.953247,339
888.070068,326
888.186829,311
888.303528,339
888.420288,330
888.536987,329
888.653687,317
888.770447,310
888.887146,337
889.003967,324
889.120667,312
889.237305,310
889.354065,332
889.470703,308
889.587463,319
889.704163,313
889.820862,326
889.937561,310
890.054199,323
890.170837,315
890.287598,329
890.404236,324
890.520874,316
890.637634,322
890.754211,321
890.87085,321
890.987549,312
891.104187,309
891.220886,318
891.337463,305
891.454102,317
891.57074,326
891.687378,309
891.804077,327
891.920654,310
892.037231,311
892.15387,318
892.270447,300
892.387085,321
892.503723,307
892.6203,317
892.736877,325
892.853516,317
892.970032,307
893.08667,324
893.203186,316
893.319763,332
893.43634,302
893.552917,330
893.669556,318
893.786011,321
893.902588,321
894.019165,311
894.135681,321
894.252197,297
894.368835,311
894.485291,317
894.601868,313
894.718384,325
894.8349,307
894.951355,325
895.067932,331
895.184448,320
895.300964,312
895.417419,322
895.533936,304
895.650452,316
895.766907,315
895.883423,314
895.999878,315
896.116333,324
896.232849,304
896.349304,315
896.465759,318
896.582214,329
896.698669,318
896.815125,317
896.931641,321
897.048035,313
897.164551,308
897.280884,319
897.397339,318
897.513794,327
897.630249,317
897.746582,308
897.863098,298
897.979431,330
898.095886,303
898.212341,334
898.328674,317
898.445129,318
898.561462,327
898.677795,330
898.794312,318
898.910645,316
899.026978,325
899.143433,325
899.259766,331
899.37616,330
899.492493,329
899.608765,342
899.725159,304
899.841553,315
899.957947,323
900.07428,330
900.190552,314
900.306946,338
900.423157,315
900.53949,334
900.655884,304
900.772156,314
900.888489,328
901.004822,316
901.121033,305
901.237366,326
901.353699,329
901.46991,315
901.586304,309
901.702515,331
901.818787,317
901.93512,326
902.051331,322
902.167603,330
902.283875,334
902.400085,331
902.516418,320
902.632629,342
902.74884,311
902.865112,333
902.981384,321
903.097595,336
903.213867,315
903.330017,341
903.446289,314
903.5625,333
903.67865,323
903.794922,329
903.911072,326
904.027344,326
904.143494,325
904.259705,335
904.375916,332
904.492065,324
904.608215,317
904.724426,311
904.840576,318
904.956726,328
905.072876,311
905.189087,315
905.305176,327
905.421387,325
905.537537,331
905.653687,326
905.769775,326
905.885925,319
906.002014,311
906.118164,318
906.234314,314
906.350403,322
906.466492,308
906.582642,317
906.69873,315
906.814758,310
906.930908,305
907.046936,310
907.163086,319
907.279175,320
907.395264,316
907.511353,316
907.62738,315
907.743408,328
907.859497,320
907.975525,309
908.091553,319
908.207703,334
908.32373,315
908.439758,317
908.555786,315
908.671814,317
908.787842,316
908.90387,323
909.019775,303
909.135864,305
909.251892,315
909.367859,314
909.483826,308
909.599854,320
909.715881,320
909.831848,318
909.947815,318
910.063782,320
910.179749,324
910.295776,302
910.411743,315
910.527649,315
910.643616,321
910.759583,322
910.875488,333
910.991455,309
911.107361,313
911.223267,323
911.339294,314
911.4552,321
911.571106,314
911.687073,324
911.802979,324
911.918823,315
912.034729,314
912.150635,321
912.266602,316
912.382446,325
912.498352,303
912.614197,317
912.730103,315
912.846008,331
