792.44574,311
792.56488,344
792.68396,413
792.80304,377
792.92218,335
793.041199,329
793.160339,321
793.279419,326
793.398499,332
793.517578,315
793.636658,331
793.755737,338
793.874817,346
793.993896,331
794.112976,328
794.232056,321
794.351074,328
794.470215,332
794.589233,333
794.708313,316
794.827393,346
794.946411,329
795.065552,337
795.18457,333
795.303589,332
795.422668,326
795.541687,328
795.660767,317
795.779846,326
795.898865,319
796.017883,319
796.136963,321
796.255981,351
796.375061,332
796.49408,338
796.613037,318
796.732117,334
796.851135,328
796.970154,330
797.089233,337
797.208191,334
797.327271,322
797.446228,330
797.565186,333
797.684265,322
797.803223,331
797.922241,330
798.04126,342
798.160278,329
798.279297,328
798.398315,332
798.517273,324
798.636292,325
798.75531,317
798.874268,335
798.993286,333
799.112244,318
799.231323,332
799.350281,332
799.469238,313
799.588257,338
799.707153,337
799.826111,337
799.945129,324
800.064087,328
800.183044,338
800.302063,331
800.421021,325
800.539978,320
800.658936,319
800.777893,340
800.896912,313
801.015747,331
801.134705,317
801.253723,325
801.37262,330
801.491638,329
801.610535,337
801.729492,336
801.84845,319
801.967407,326
802.086243,316
802.205261,328
802.324158,338
802.443115,323
802.562073,326
802.680969,321
802.799927,327
802.918762,320
803.037659,322
803.156677,335
803.275574,322
803.39447,321
803.513428,322
803.632263,343
803.751221,340
803.870117,324
803.989014,336
804.107971,328
804.226746,338
804.345642,323
804.4646,325
804.583496,327
804.702393,336
804.821228,312
804.940125,344
805.059021,327
805.177917,342
805.296814,343
805.415649,335
805.534546,339
805.653442,320
805.772278,330
805.891113,327
806.01001,336
806.128906,324
806.247742,330
806.366577,328
806.485413,324
806.604309,335
806.723145,327
806.84198,334
806.960876,345
807.079712,344
807.198486,321
807.317383,340
807.436218,343
807.554993,319
807.673889,340
807.792725,319
807.91156,353
808.030396,339
808.14917,325
808.268005,324
808.386841,335
808.505676,334
808.624451,324
808.743286,329
808.862122,345
808.980896,335
809.099731,331
809.218506,334
809.337341,322
809.456116,327
809.57489,333
809.693726,324
809.8125,338
809.931274,333
810.050049,321
810.168884,326
810.287659,327
810.406372,319
810.525269,335
810.643982,338
810.762756,332
810.881531,339
811.000305,323
811.11908,341
811.237854,332
811.356567,335
811.475403,337
811.594116,341
811.71283,338
811.831604,334
811.950378,329
812.069153,337
812.187927,335
812.30658,324
812.425415,345
812.544128,338
812.662781,328
812.781616,343
812.900269,330
813.019043,331
813.137756,332
813.256531,318
813.375244,329
813.493896,337
813.612671,333
813.731384,336
813.850037,346
813.96875,334
814.087524,317
814.206238,333
814.324951,344
814.443604,332
814.562256,338
814.68103,338
814.799683,341
814.918335,330
815.037109,360
815.155762,332
815.274475,361
815.393188,328
815.511841,333
815.630554,336
815.749146,322
815.867859,323
815.986572,329
816.105164,321
816.223877,346
816.342529,330
816.461182,332
816.579895,332
816.698486,324
816.817139,324
816.935791,326
817.054504,320
817.173096,336
817.291748,327
817.4104,334
817.529053,322
817.647644,324
817.766235,330
817.884949,341
818.00354,327
818.122192,328
818.240845,322
818.359436,320
818.478088,326
818.59668,334
818.715271,314
818.833923,327
818.952515,326
819.071106,319
819.189758,325
819.30835,318
819.426941,326
819.545532,313
819.664124,328
819.782715,337
819.901306,321
820.019897,325
820.138489,323
820.25708,329
820.375671,332
820.494202,317
820.612732,326
820.731384,319
820.849915,325
820.968506,314
821.087097,306
821.205627,330
821.324158,322
821.442749,315
821.561279,303
821.679871,305
821.798401,322
821.916931,310
822.035461,318
822.154053,317
822.272583,324
822.391174,315
822.509583,322
822.628174,330
822.746704,322
822.865234,318
822.983765,315
823.102295,321
823.220825,307
823.339294,319
823.457825,319
823.576355,327
823.694824,325
823.813354,309
823.931885,305
824.050354,318
824.168884,313
824.287354,324
824.405823,318
824.524353,326
824.642822,316
824.761353,320
824.879822,328
824.998291,332
825.116699,316
825.235291,314
825.353699,319
825.472168,331
825.590637,316
825.709106,323
825.827576,315
825.946045,324
826.064453,313
826.182983,322
826.301392,323
826.4198,326
826.53833,312
826.656738,318
826.775208,314
826.893677,322
827.012024,312
827.130493,322
827.248962,315
827.36731,326
827.485779,321
827.604248,321
827.722595,328
827.841064,327
827.959412,313
828.077942,319
828.196289,308
828.314636,334
828.433105,317
828.551514,319
828.669861,315
828.78833,315
828.906677,319
829.025085,326
829.143433,314
829.261841,306
829.38031,314
829.498657,324
829.617004,311
829.735413,323
829.85376,315
829.972107,321
830.090515,335
830.208862,309
830.327209,325
830.445557,317
830.563904,307
830.682312,315
830.800659,305
830.919006,314
831.037354,310
831.155701,314
831.274048,318
831.392395,312
831.51062,312
831.629028,319
831.747314,303
831.865662,312
831.984009,314
832.102356,309
832.220642,319
832.338928,312
832.457275,325
832.575623,322
832.693909,316
832.812134,309
832.930481,331
833.048828,319
833.167114,326
833.2854,299
833.403687,323
833.521973,308
833.640259,317
833.758545,300
833.876831,318
833.995056,309
834.113281,311
834.231628,308
834.349915,310
834.468201,315
834.586426,317
834.704651,310
834.822998,307
834.941162,325
835.059448,306
835.177673,324
835.295959,306
835.414246,319
835.53241,325
835.650635,316
835.768921,318
835.887146,324
836.005371,306
836.123596,304
836.241821,320
836.360046,311
836.478271,313
836.596497,317
836.714722,327
836.832886,316
836.95105,323
837.069336,303
837.1875,317
837.305725,326
837.423889,312
837.542053,326
837.660339,321
837.778503,317
837.896667,324
838.014832,319
838.132996,326
838.25116,315
838.369385,327
838.487488,317
838.605713,326
838.723877,347
838.84198,312
838.960205,332
839.078308,331
839.196472,326
839.314636,298
839.4328,310
839.550964,321
839.669067,319
839.787231,313
839.905396,319
840.023499,315
840.141602,320
840.259766,309
840.377869,317
840.495972,314
840.614136,317
840.732239,312
840.850342,316
840.968445,321
841.086548,334
841.204651,319
841.322754,311
841.440918,308
841.55896,307
841.677002,309
841.795166,307
841.913208,312
842.031311,314
842.149353,316
842.267456,323
842.385498,317
842.503601,319
842.621643,312
842.739746,318
842.857788,320
842.97583,302
843.093933,317
843.211975,313
843.330017,308
843.44812,318
843.566101,310
843.684204,320
843.802246,307
843.920227,303
844.038269,325
844.156311,304
844.274292,311
844.392395,310
844.510376,320
844.628357,320
844.74646,313
844.864441,310
844.982422,317
845.100403,307
845.218384,309
845.336426,325
845.454468,325
845.572449,327
845.69043,309
845.808411,304
845.926453,319
846.044373,307
846.162354,321
846.280396,334
846.398315,304
846.516296,320
846.634216,313
846.752197,316
846.870178,311
846.988098,307
847.106079,325
847.22406,326
847.34198,314
847.4599,329
847.577881,315
847.695801,304
847.813782,306
847.931641,320
848.049561,310
848.167603,312
848.285461,314
848.403381,310
848.521362,319
848.639221,310
848.75708,307
848.875,312
848.99292,313
849.110901,320
849.22876,305
849.34668,310
849.464539,305
849.582458,318
849.700317,322
849.818176,327
849.936096,306
850.053955,318
850.171875,310
850.289673,319
850.407593,324
850.525452,332
850.643311,315
850.761169,317
850.878967,313
850.996887,306
851.114746,318
851.232544,310
851.350403,309
851.468262,315
851.58606,303
851.703979,330
851.821777,314
851.939636,315
852.057434,319
852.175232,315
852.293091,312
852.410889,309
852.528687,307
852.646545,333
852.764343,308
852.88208,328
852.999939,315
853.117676,317
853.235535,320
853.353271,325
853.471069,309
853.588928,312
853.706604,309
853.824402,325
853.9422,303
854.059998,320
854.177734,317
854.295532,305
854.413269,313
854.531006,315
854.648804,322
854.766541,310
854.884277,312
855.002014,322
855.119751,307
855.237549,320
855.355225,307
855.473022,321
855.590698,312
855.708435,314
855.826172,313
855.943848,320
856.061646,324
856.179321,316
856.296997,311
856.414795,322
856.53241,320
856.650085,314
856.767822,309
856.885559,313
857.003174,320
857.120911,305
857.238586,315
857.356201,322
857.473938,309
857.591614,320
857.709351,301
857.826965,324
857.944641,317
858.062317,325
858.179993,301
858.297668,321
858.415283,322
858.532959,314
858.650574,302
858.768188,318
858.885803,313
859.003479,321
859.121094,311
859.23877,305
859.356384,318
859.473999,318
859.591675,312
859.709229,326
859.826843,314
859.944458,333
860.062012,301
860.179626,312
860.297302,319
860.414856,321
860.532471,318
860.650024,323
860.767639,311
860.885193,311
861.002808,311
861.120361,314
861.237976,295
861.35553,333
861.473022,306
861.590698,303
861.708191,312
861.825745,315
861.943298,324
862.060852,310
862.178406,302
862.295959,324
862.413513,296
862.531006,312
862.64856,312
862.766113,310
862.883667,315
863.00116,318
863.118713,328
863.236206,323
863.353699,316
863.471252,315
863.588745,313
863.706177,319
863.82373,320
863.941162,307
864.058716,316
864.176208,312
864.29364,317
864.411194,322
864.528687,314
864.646118,315
864.763611,320
864.881042,316
864.998535,322
865.116028,310
865.233459,312
865.350891,309
865.468384,329
865.585754,309
865.703308,309
865.820679,308
865.938171,312
866.055542,312
866.173035,314
866.290466,308
866.407837,309
866.52533,307
866.6427,309
866.760071,310
866.877563,316
866.994934,332
867.112305,306
867.229736,315
867.347107,312
867.464539,316
867.58197,321
867.699341,311
867.81665,303
867.934082,316
868.051453,314
868.168823,327
868.286194,325
868.403564,315
868.520935,307
868.638306,316
868.755676,316
868.872986,324
868.990295,314
869.107727,324
869.225037,313
869.342346,307
869.459717,297
869.577026,316
869.694336,314
869.811707,307
869.929016,326
870.046326,317
870.163635,331
870.280945,305
870.398254,304
870.515564,326
870.632812,325
870.750183,324
870.867432,320
870.984741,303
871.102051,312
871.219299,307
871.336609,302
871.453918,319
871.571106,320
871.688416,317
871.805664,314
871.922852,333
872.040222,316
872.157471,296
872.274719,325
872.391968,323
872.509155,318
872.626465,322
872.743652,314
872.860962,336
872.978149,314
873.095337,315
873.212646,318
873.329834,326
873.44696,316
873.564209,313
873.681396,318
873.798645,316
873.915894,307
874.03302,322
874.150208,297
874.267456,316
874.384583,318
874.501831,322
874.618958,301
874.736145,309
874.853333,317
874.970459,327
875.087646,302
875.204834,314
875.32196,320
875.439148,328
875.556274,305
875.673401,317
875.790527,310
875.907715,309
876.024841,300
876.141968,330
876.259094,312
876.376282,330
876.493347,325
876.610474,313
876.7276,317
876.844727,315
876.961853,312
877.078918,315
877.195984,303
877.313171,319
877.430237,311
877.547302,311
877.664368,310
877.781433,327
877.898499,304
878.015625,313
878.13269,316
878.249695,309
878.366821,316
878.483887,320
878.600952,308
878.717957,329
878.834961,309
878.952087,313
879.069092,324
879.186157,321
879.303162,320
879.420227,325
879.537231,317
879.654236,316
879.77124,317
879.888306,313
880.005249,300
880.122314,316
880.239319,314
880.356323,324
880.473328,304
880.590271,322
880.707275,305
880.824341,317
880.941284,308
881.058228,324
881.175232,316
881.292236,332
881.40918,289
881.526123,324
881.643066,310
881.760071,318
881.877014,312
881.993958,319
882.11084,314
882.227783,315
882.344727,326
882.46167,322
882.578613,329
882.695618,323
882.812439,313
882.929382,302
883.046326,307
883.163208,324
883.280151,309
883.397034,308
883.513916,311
883.630798,308
883.747742,314
883.864563,312
883.981506,315
884.098389,314
884.21521,313
884.332153,311
884.448975,306
884.565796,311
884.682678,312
884.7995,316
884.916443,319
885.033264,309
885.150085,317
885.266968,317
885.383789,304
885.500671,308
885.617493,310
885.734314,331
885.851196,312
885.967896,316
886.084717,319
886.201599,316
886.318359,316
886.435181,309
886.552002,318
886.668762,308
886.785645,308
886.902344,323
887.019165,314
887.135925,331
887.252747,302
887.369446,328
887.486267,319
887.603027,321
887.719788,312
887.836548,315
887.953247,313
888.070068,316
888.186829,315
888.303528,316
888.420288,303
888.536987,310
888.653687,311
888.770447,315
888.887146,323
889.003967,316
889.120667,319
889.237305,307
889.354065,320
889.470703,316
889.587463,317
889.704163,316
889.820862,308
889.937561,313
890.054199,308
890.170837,323
890.287598,315
890.404236,322
890.520874,307
890.637634,313
890.754211,311
890.87085,327
890.987549,318
891.104187,301
891.220886,309
891.337463,313
891.454102,309
891.57074,329
891.687378,309
891.804077,319
891.920654,320
892.037231,305
892.15387,309
892.270447,310
892.387085,311
892.503723,311
892.6203,299
892.736877,313
892.853516,312
892.970032,320
893.08667,297
893.203186,325
893.319763,315
893.43634,316
893.552917,313
893.669556,318
893.786011,299
893.902588,324
894.019165,315
894.135681,307
894.252197,312
894.368835,325
894.485291,312
894.601868,306
894.718384,333
894.8349,328
894.951355,317
895.067932,320
895.184448,312
895.300964,323
895.417419,326
895.533936,313
895.650452,311
895.766907,322
895.883423,318
895.999878,332
896.116333,324
896.232849,314
896.349304,327
896.465759,318
896.582214,311
896.698669,318
896.815125,318
896.931641,314
897.048035,302
897.164551,323
897.280884,298
897.397339,309
897.513794,308
897.630249,338
897.746582,316
897.863098,325
897.979431,313
898.095886,316
898.212341,313
898.328674,311
898.445129,308
898.561462,330
898.677795,307
898.794312,330
898.910645,308
899.026978,313
899.143433,319
899.259766,316
899.37616,305
899.492493,308
899.608765,309
899.725159,315
899.841553,323
899.957947,313
900.07428,324
900.190552,316
900.306946,313
900.423157,318
900.53949,292
900.655884,315
900.772156,313
900.888489,317
901.004822,301
901.121033,322
901.237366,317
901.353699,320
901.46991,311
901.586304,337
901.702515,313
901.818787,308
901.93512,317
902.051331,323
902.167603,315
902.283875,312
902.400085,321
902.516418,318
902.632629,313
902.74884,325
902.865112,325
902.981384,323
903.097595,303
903.213867,320
903.330017,313
903.446289,334
903.5625,317
903.67865,309
903.794922,323
903.911072,318
904.027344,313
904.143494,318
904.259705,313
904.375916,321
904.492065,306
904.608215,331
904.724426,309
904.840576,309
904.956726,317
905.072876,306
905.189087,322
905.305176,329
905.421387,305
905.537537,317
905.653687,309
905.769775,316
905.885925,315
906.002014,316
906.118164,316
906.234314,323
906.350403,305
906.466492,317
906.582642,305
906.69873,317
906.814758,307
906.930908,331
907.046936,315
907.163086,320
907.279175,318
907.395264,312
907.511353,326
907.62738,314
907.743408,316
907.859497,321
907.975525,309
908.091553,332
908.207703,335
908.32373,317
908.439758,313
908.555786,311
908.671814,318
908.787842,337
908.90387,315
909.019775,306
909.135864,320
909.251892,309
909.367859,312
909.483826,313
909.599854,317
909.715881,326
909.831848,318
909.947815,332
910.063782,317
910.179749,319
910.295776,316
910.411743,321
910.527649,325
910.643616,321
910.759583,320
910.875488,328
910.991455,317
911.107361,318
911.223267,308
911.339294,310
911.4552,312
911.571106,315
911.687073,315
911.802979,310
911.918823,329
912.034729,311
912.150635,328
912.266602,310
912.382446,300
912.498352,314
912.614197,321
912.730103,316
912.846008,314
792.44574,315
792.56488,353
792.68396,402
792.80304,383
792.92218,333
793.041199,325
793.160339,320
793.279419,340
793.398499,340
793.517578,301
793.636658,324
793.755737,334
793.874817,347
793.993896,345
794.112976,341
794.232056,331
794.351074,322
794.470215,339
794.589233,331
794.708313,321
794.827393,331
794.946411,322
795.065552,322
795.18457,338
795.303589,340
795.422668,333
795.541687,327
795.660767,349
795.779846,325
795.898865,330
796.017883,311
796.136963,325
796.255981,335
796.375061,334
796.49408,326
796.613037,330
796.732117,329
796.851135,329
796.970154,344
797.089233,334
797.208191,328
797.327271,332
797.446228,342
797.565186,323
797.684265,326
797.803223,346
797.922241,345
798.04126,328
798.160278,327
798.279297,326
798.398315,332
798.517273,350
798.636292,329
798.75531,344
798.874268,320
798.993286,322
799.112244,322
799.231323,325
799.350281,331
799.469238,317
799.588257,327
799.707153,318
799.826111,335
799.945129,328
800.064087,332
800.183044,330
800.302063,321
800.421021,328
800.539978,321
800.658936,311
800.777893,338
800.896912,330
801.015747,327
801.134705,334
801.253723,333
801.37262,334
801.491638,336
801.610535,338
801.729492,330
801.84845,330
801.967407,326
802.086243,325
802.205261,334
802.324158,333
802.443115,328
802.562073,339
802.680969,331
802.799927,344
802.918762,333
803.037659,331
803.156677,335
803.275574,329
803.39447,323
803.513428,336
803.632263,334
803.751221,322
803.870117,349
803.989014,324
804.107971,319
804.226746,325
804.345642,324
804.4646,315
804.583496,329
804.702393,341
804.821228,328
804.940125,337
805.059021,325
805.177917,332
805.296814,347
805.415649,322
805.534546,333
805.653442,341
805.772278,333
805.891113,319
806.01001,320
806.128906,342
806.247742,333
806.366577,311
806.485413,331
806.604309,338
806.723145,338
806.84198,341
806.960876,338
807.079712,338
807.198486,341
807.317383,332
807.436218,329
807.554993,314
807.673889,341
807.792725,332
807.91156,333
808.030396,330
808.14917,332
808.268005,338
808.386841,330
808.505676,330
808.624451,337
808.743286,325
808.862122,333
808.980896,333
809.099731,331
809.218506,327
809.337341,344
809.456116,357
809.57489,330
809.693726,343
809.8125,339
809.931274,325
810.050049,326
810.168884,327
810.287659,335
810.406372,338
810.525269,325
810.643982,347
810.762756,325
810.881531,335
811.000305,341
811.11908,324
811.237854,337
811.356567,330
811.475403,333
811.594116,338
811.71283,334
811.831604,327
811.950378,336
812.069153,323
812.187927,339
812.30658,339
812.425415,345
812.544128,332
812.662781,332
812.781616,339
812.900269,344
813.019043,321
813.137756,323
813.256531,335
813.375244,318
813.493896,337
813.612671,331
813.731384,320
813.850037,339
813.96875,342
814.087524,331
814.206238,322
814.324951,320
814.443604,332
814.562256,324
814.68103,348
814.799683,321
814.918335,325
815.037109,341
815.155762,318
815.274475,330
815.393188,329
815.511841,328
815.630554,322
815.749146,326
815.867859,322
815.986572,334
816.105164,318
816.223877,331
816.342529,327
816.461182,334
816.579895,318
816.698486,320
816.817139,324
816.935791,340
817.054504,331
817.173096,335
817.291748,324
817.4104,323
817.529053,315
817.647644,332
817.766235,333
817.884949,336
818.00354,320
818.122192,319
818.240845,341
818.359436,321
818.478088,324
818.59668,322
818.715271,326
818.833923,324
818.952515,330
819.071106,329
819.189758,335
819.30835,327
819.426941,314
819.545532,322
819.664124,307
819.782715,309
819.901306,320
820.019897,319
820.138489,324
820.25708,320
820.375671,329
820.494202,332
820.612732,313
820.731384,319
820.849915,301
820.968506,318
821.087097,311
821.205627,320
821.324158,320
821.442749,331
821.561279,305
821.679871,321
821.798401,313
821.916931,329
822.035461,324
822.154053,312
822.272583,320
822.391174,316
822.509583,324
822.628174,329
822.746704,324
822.865234,321
822.983765,322
823.102295,340
823.220825,320
823.339294,321
823.457825,313
823.576355,314
823.694824,312
823.813354,315
823.931885,315
824.050354,321
824.168884,319
824.287354,326
824.405823,330
824.524353,327
824.642822,328
824.761353,329
824.879822,319
824.998291,342
825.116699,313
825.235291,316
825.353699,325
825.472168,316
825.590637,329
825.709106,327
825.827576,317
825.946045,313
826.064453,340
826.182983,314
826.301392,320
826.4198,316
826.53833,297
826.656738,313
826.775208,314
826.893677,308
827.012024,317
827.130493,305
827.248962,314
827.36731,319
827.485779,318
827.604248,331
827.722595,306
827.841064,310
827.959412,317
828.077942,312
828.196289,322
828.314636,322
828.433105,315
828.551514,314
828.669861,307
828.78833,312
828.906677,311
829.025085,326
829.143433,320
829.261841,318
829.38031,304
829.498657,322
829.617004,320
829.735413,314
829.85376,320
829.972107,331
830.090515,302
830.208862,302
830.327209,309
830.445557,315
830.563904,311
830.682312,312
830.800659,320
830.919006,309
831.037354,302
831.155701,323
831.274048,308
831.392395,323
831.51062,304
831.629028,315
831.747314,306
831.865662,322
831.984009,308
832.102356,302
832.220642,315
832.338928,328
832.457275,324
832.575623,313
832.693909,305
832.812134,321
832.930481,320
833.048828,320
833.167114,321
833.2854,318
833.403687,292
833.521973,313
833.640259,319
833.758545,314
833.876831,322
833.995056,323
834.113281,318
834.231628,314
834.349915,319
834.468201,320
834.586426,306
834.704651,320
834.822998,316
834.941162,327
835.059448,311
835.177673,322
835.295959,310
835.414246,323
835.53241,315
835.650635,316
835.768921,318
835.887146,308
836.005371,316
836.123596,321
836.241821,303
836.360046,329
836.478271,319
836.596497,318
836.714722,307
836.832886,319
836.95105,317
837.069336,324
837.1875,313
837.305725,308
837.423889,312
837.542053,308
837.660339,305
837.778503,315
837.896667,311
838.014832,324
838.132996,320
838.25116,325
838.369385,314
838.487488,333
838.605713,319
838.723877,328
838.84198,306
838.960205,318
839.078308,311
839.196472,314
839.314636,307
839.4328,310
839.550964,311
839.669067,323
839.787231,306
839.905396,317
840.023499,315
840.141602,317
840.259766,308
840.377869,313
840.495972,316
840.614136,326
840.732239,321
840.850342,318
840.968445,315
841.086548,310
841.204651,318
841.322754,326
841.440918,324
841.55896,327
841.677002,317
841.795166,305
841.913208,318
842.031311,310
842.149353,316
842.267456,321
842.385498,317
842.503601,313
842.621643,316
842.739746,312
842.857788,318
842.97583,319
843.093933,318
843.211975,317
843.330017,305
843.44812,317
843.566101,302
843.684204,308
843.802246,318
843.920227,309
844.038269,319
844.156311,320
844.274292,317
844.392395,321
844.510376,323
844.628357,315
844.74646,304
844.864441,318
844.982422,327
845.100403,317
845.218384,308
845.336426,322
845.454468,307
845.572449,316
845.69043,324
845.808411,320
845.926453,327
846.044373,325
846.162354,319
846.280396,308
846.398315,312
846.516296,317
846.634216,316
846.752197,323
846.870178,318
846.988098,303
847.106079,305
847.22406,320
847.34198,308
847.4599,311
847.577881,312
847.695801,319
847.813782,315
847.931641,329
848.049561,307
848.167603,321
848.285461,299
848.403381,312
848.521362,321
848.639221,317
848.75708,305
848.875,319
848.99292,311
849.110901,326
849.22876,312
849.34668,314
849.464539,311
849.582458,309
849.700317,307
849.818176,312
849.936096,311
850.053955,317
850.171875,311
850.289673,318
850.407593,322
850.525452,329
850.643311,321
850.761169,327
850.878967,317
850.996887,332
851.114746,307
851.232544,309
851.350403,328
851.468262,307
851.58606,318
851.703979,313
851.821777,319
851.939636,321
852.057434,316
852.175232,321
852.293091,321
852.410889,320
852.528687,320
852.646545,296
852.764343,315
852.88208,320
852.999939,314
853.117676,313
853.235535,320
853.353271,305
853.471069,304
853.588928,319
853.706604,313
853.824402,318
853.9422,310
854.059998,318
854.177734,316
854.295532,312
854.413269,323
854.531006,309
854.648804,311
854.766541,305
854.884277,309
855.002014,313
855.119751,306
855.237549,311
855.355225,320
855.473022,306
855.590698,315
855.708435,317
855.826172,333
855.943848,320
856.061646,322
856.179321,322
856.296997,318
856.414795,318
856.53241,308
856.650085,325
856.767822,309
856.885559,323
857.003174,316
857.120911,329
857.238586,311
857.356201,334
857.473938,319
857.591614,325
857.709351,313
857.826965,313
857.944641,315
858.062317,315
858.179993,328
858.297668,312
858.415283,308
858.532959,318
858.650574,307
858.768188,317
858.885803,298
859.003479,317
859.121094,319
859.23877,311
859.356384,322
859.473999,321
859.591675,313
859.709229,323
859.826843,305
859.944458,327
860.062012,319
860.179626,316
860.297302,313
860.414856,325
860.532471,312
860.650024,321
860.767639,301
860.885193,323
861.002808,316
861.120361,324
861.237976,308
861.35553,321
861.473022,315
861.590698,312
861.708191,322
861.825745,317
861.943298,320
862.060852,336
862.178406,310
862.295959,315
862.413513,306
862.531006,326
862.64856,313
862.766113,318
862.883667,324
863.00116,308
863.118713,325
863.236206,322
863.353699,308
863.471252,331
863.588745,308
863.706177,322
863.82373,315
863.941162,317
864.058716,308
864.176208,310
864.29364,315
864.411194,308
864.528687,324
864.646118,323
864.763611,315
864.881042,319
864.998535,325
865.116028,314
865.233459,318
865.350891,315
865.468384,316
865.585754,316
865.703308,307
865.820679,325
865.938171,316
866.055542,322
866.173035,316
866.290466,323
866.407837,322
866.52533,306
866.6427,322
866.760071,321
866.877563,312
866.994934,321
867.112305,323
867.229736,317
867.347107,328
867.464539,316
867.58197,314
867.699341,321
867.81665,314
867.934082,319
868.051453,310
868.168823,321
868.286194,305
868.403564,321
868.520935,314
868.638306,309
868.755676,313
868.872986,328
868.990295,316
869.107727,319
869.225037,316
869.342346,318
869.459717,312
869.577026,320
869.694336,311
869.811707,314
869.929016,320
870.046326,333
870.163635,305
870.280945,319
870.398254,309
870.515564,316
870.632812,317
870.750183,304
870.867432,319
870.984741,308
871.102051,327
871.219299,315
871.336609,312
871.453918,324
871.571106,311
871.688416,312
871.805664,320
871.922852,322
872.040222,313
872.157471,330
872.274719,307
872.391968,320
872.509155,318
872.626465,310
872.743652,320
872.860962,311
872.978149,306
873.095337,311
873.212646,309
873.329834,322
873.44696,310
873.564209,306
873.681396,314
873.798645,320
873.915894,317
874.03302,323
874.150208,309
874.267456,319
874.384583,318
874.501831,313
874.618958,321
874.736145,331
874.853333,306
874.970459,314
875.087646,305
875.204834,313
875.32196,313
875.439148,315
875.556274,309
875.673401,309
875.790527,302
875.907715,316
876.024841,302
876.141968,314
876.259094,304
876.376282,322
876.493347,296
876.610474,323
876.7276,314
876.844727,322
876.961853,316
877.078918,321
877.195984,312
877.313171,316
877.430237,316
877.547302,311
877.664368,304
877.781433,315
877.898499,309
878.015625,325
878.13269,307
878.249695,323
878.366821,310
878.483887,313
878.600952,309
878.717957,320
878.834961,310
878.952087,329
879.069092,298
879.186157,318
879.303162,313
879.420227,314
879.537231,323
879.654236,320
879.77124,307
879.888306,319
880.005249,305
880.122314,308
880.239319,315
880.356323,318
880.473328,303
880.590271,320
880.707275,321
880.824341,322
880.941284,315
881.058228,324
881.175232,311
881.292236,328
881.40918,313
881.526123,321
881.643066,311
881.760071,322
881.877014,319
881.993958,296
882.11084,316
882.227783,323
882.344727,314
882.46167,324
882.578613,322
882.695618,313
882.812439,318
882.929382,324
883.046326,316
883.163208,319
883.280151,307
883.397034,307
883.513916,303
883.630798,313
883.747742,318
883.864563,316
883.981506,312
884.098389,308
884.21521,321
884.332153,318
884.448975,310
884.565796,322
884.682678,315
884.7995,313
884.916443,306
885.033264,317
885.150085,323
885.266968,319
885.383789,328
885.500671,318
885.617493,318
885.734314,307
885.851196,326
885.967896,323
886.084717,313
886.201599,316
886.318359,321
886.435181,299
886.552002,303
886.668762,324
886.785645,305
886.902344,316
887.019165,305
887.135925,318
887.252747,314
887.369446,327
887.486267,301
887.603027,304
887.719788,309
887.836548,310
887.953247,301
888.070068,314
888.186829,323
888.303528,308
888.420288,317
888.536987,307
888.653687,302
888.770447,310
888.887146,312
889.003967,335
889.120667,314
889.237305,332
889.354065,314
889.470703,318
889.587463,305
889.704163,326
889.820862,304
889.937561,312
890.054199,320
890.170837,318
890.287598,317
890.404236,308
890.520874,311
890.637634,326
890.754211,306
890.87085,326
890.987549,318
891.104187,329
891.220886,322
891.337463,327
891.454102,311
891.57074,319
891.687378,321
891.804077,316
891.920654,319
892.037231,317
892.15387,304
892.270447,312
892.387085,318
892.503723,330
892.6203,321
892.736877,321
892.853516,316
892.970032,322
893.08667,320
893.203186,317
893.319763,308
893.43634,327
893.552917,300
893.669556,328
893.786011,310
893.902588,314
894.019165,317
894.135681,331
894.252197,326
894.368835,316
894.485291,307
894.601868,313
894.718384,321
894.8349,326
894.951355,309
895.067932,312
895.184448,312
895.300964,311
895.417419,312
895.533936,313
895.650452,308
895.766907,313
895.883423,335
895.999878,334
896.116333,304
896.232849,314
896.349304,322
896.465759,308
896.582214,325
896.698669,318
896.815125,313
896.931641,326
897.048035,308
897.164551,309
897.280884,313
897.397339,320
897.513794,311
897.630249,321
897.746582,310
897.863098,321
897.979431,305
898.095886,319
898.212341,319
898.328674,321
898.445129,310
898.561462,330
898.677795,314
898.794312,325
898.910645,313
899.026978,313
899.143433,312
899.259766,315
899.37616,307
899.492493,334
899.608765,323
899.725159,317
899.841553,310
899.957947,314
900.07428,323
900.190552,327
900.306946,315
900.423157,311
900.53949,321
900.655884,313
900.772156,309
900.888489,327
901.004822,305
901.121033,330
901.237366,309
901.353699,304
901.46991,320
901.586304,313
901.702515,328
901.818787,321
901.93512,312
902.051331,315
902.167603,306
902.283875,318
902.400085,314
902.516418,313
902.632629,320
902.74884,315
902.865112,324
902.981384,319
903.097595,307
903.213867,323
903.330017,314
903.446289,326
903.5625,319
903.67865,313
903.794922,314
903.911072,314
904.027344,310
904.143494,326
904.259705,307
904.375916,322
904.492065,309
904.608215,330
904.724426,310
904.840576,304
904.956726,304
905.072876,316
905.189087,318
905.305176,318
905.421387,314
905.537537,319
905.653687,317
905.769775,322
905.885925,316
906.002014,324
906.118164,323
906.234314,314
906.350403,317
906.466492,306
906.582642,313
906.69873,329
906.814758,303
906.930908,320
907.046936,321
907.163086,317
907.279175,313
907.395264,334
907.511353,324
907.62738,331
907.743408,314
907.859497,314
907.975525,311
908.091553,320
908.207703,300
908.32373,327
908.439758,316
908.555786,327
908.671814,322
908.787842,322
908.90387,308
909.019775,325
909.135864,312
909.251892,331
909.367859,316
909.483826,324
909.599854,304
909.715881,325
909.831848,308
909.947815,328
910.063782,300
910.179749,315
910.295776,313
910.411743,321
910.527649,323
910.643616,328
910.759583,324
910.875488,313
910.991455,323
911.107361,335
911.223267,297
911.339294,323
911.4552,314
911.571106,323
911.687073,309
911.802979,317
911.918823,316
912.034729,322
912.150635,305
912.266602,303
912.382446,310
912.498352,325
912.614197,312
912.730103,324
912.846008,306
792.44574,317
792.56488,354
792.68396,405
792.80304,385
792.92218,348
793.041199,317
793.160339,316
793.279419,327
793.398499,338
793.517578,326
793.636658,324
793.755737,349
793.874817,353
793.993896,343
794.112976,340
794.232056,327
794.351074,328
794.470215,323
794.589233,322
794.708313,322
794.827393,332
794.946411,331
795.065552,333
795.18457,330
795.303589,333
795.422668,335
795.541687,347
795.660767,327
795.779846,335
795.898865,317
796.017883,333
796.136963,329
796.255981,319
796.375061,333
796.49408,351
796.613037,337
796.732117,345
796.851135,331
796.970154,336
797.089233,324
797.208191,329
797.327271,331
797.446228,324
797.565186,337
797.684265,334
797.803223,326
797.922241,328
798.04126,311
798.160278,335
798.279297,346
798.398315,322
798.517273,336
798.636292,340
798.75531,317
798.874268,339
798.993286,324
799.112244,336
799.231323,324
799.350281,322
799.469238,332
799.588257,330
799.707153,318
799.826111,320
799.945129,318
800.064087,338
800.183044,331
800.302063,333
800.421021,320
800.539978,310
800.658936,316
800.777893,330
800.896912,322
801.015747,327
801.134705,325
801.253723,337
801.37262,324
801.491638,334
801.610535,324
801.729492,334
801.84845,334
801.967407,313
802.086243,335
802.205261,326
802.324158,336
802.443115,318
802.562073,336
802.680969,339
802.799927,334
802.918762,338
803.037659,325
803.156677,347
803.275574,320
803.39447,342
803.513428,324
803.632263,339
803.751221,316
803.870117,334
803.989014,319
804.107971,341
804.226746,320
804.345642,337
804.4646,337
804.583496,323
804.702393,330
804.821228,330
804.940125,326
805.059021,332
805.177917,322
805.296814,334
805.415649,324
805.534546,343
805.653442,336
805.772278,338
805.891113,325
806.01001,333
806.128906,344
806.247742,336
806.366577,325
806.485413,343
806.604309,314
806.723145,318
806.84198,325
806.960876,338
807.079712,329
807.198486,340
807.317383,335
807.436218,331
807.554993,335
807.673889,334
807.792725,320
807.91156,339
808.030396,330
808.14917,340
808.268005,336
808.386841,316
808.505676,331
808.624451,342
808.743286,326
808.862122,332
808.980896,326
809.099731,331
809.218506,329
809.337341,318
809.456116,324
809.57489,360
809.693726,319
809.8125,352
809.931274,320
810.050049,347
810.168884,337
810.287659,336
810.406372,327
810.525269,339
810.643982,327
810.762756,343
810.881531,336
811.000305,321
811.11908,327
811.237854,347
811.356567,336
811.475403,324
811.594116,326
811.71283,346
811.831604,325
811.950378,334
812.069153,341
812.187927,333
812.30658,341
812.425415,345
812.544128,335
812.662781,338
812.781616,336
812.900269,328
813.019043,324
813.137756,321
813.256531,339
813.375244,344
813.493896,322
813.612671,321
813.731384,347
813.850037,336
813.96875,349
814.087524,335
814.206238,332
814.324951,336
814.443604,330
814.562256,333
814.68103,324
814.799683,349
814.918335,325
815.037109,331
815.155762,334
815.274475,344
815.393188,319
815.511841,326
815.630554,336
815.749146,344
815.867859,340
815.986572,343
816.105164,335
816.223877,327
816.342529,343
816.461182,328
816.579895,329
816.698486,336
816.817139,338
816.935791,333
817.054504,331
817.173096,335
817.291748,332
817.4104,333
817.529053,318
817.647644,331
817.766235,331
817.884949,329
818.00354,321
818.122192,323
818.240845,324
818.359436,323
818.478088,329
818.59668,329
818.715271,324
818.833923,326
818.952515,318
819.071106,321
819.189758,316
819.30835,330
819.426941,332
819.545532,330
819.664124,314
819.782715,328
819.901306,325
820.019897,312
820.138489,331
820.25708,322
820.375671,328
820.494202,328
820.612732,312
820.731384,308
820.849915,314
820.968506,325
821.087097,316
821.205627,313
821.324158,323
821.442749,315
821.561279,313
821.679871,322
821.798401,322
821.916931,322
822.035461,323
822.154053,325
822.272583,313
822.391174,333
822.509583,323
822.628174,323
822.746704,316
822.865234,312
822.983765,320
823.102295,314
823.220825,300
823.339294,321
823.457825,317
823.576355,321
823.694824,322
823.813354,324
823.931885,305
824.050354,312
824.168884,325
824.287354,323
824.405823,319
824.524353,326
824.642822,321
824.761353,316
824.879822,317
824.998291,326
825.116699,323
825.235291,338
825.353699,313
825.472168,315
825.590637,306
825.709106,327
825.827576,317
825.946045,320
826.064453,316
826.182983,314
826.301392,325
826.4198,327
826.53833,316
826.656738,310
826.775208,325
826.893677,320
827.012024,313
827.130493,311
827.248962,325
827.36731,316
827.485779,303
827.604248,322
827.722595,312
827.841064,323
827.959412,312
828.077942,311
828.196289,320
828.314636,316
828.433105,329
828.551514,317
828.669861,304
828.78833,319
828.906677,307
829.025085,325
829.143433,321
829.261841,329
829.38031,321
829.498657,304
829.617004,317
829.735413,311
829.85376,320
829.972107,319
830.090515,322
830.208862,318
830.327209,316
830.445557,311
830.563904,305
830.682312,330
830.800659,315
830.919006,303
831.037354,315
831.155701,330
831.274048,321
831.392395,326
831.51062,307
831.629028,332
831.747314,319
831.865662,325
831.984009,332
832.102356,323
832.220642,319
832.338928,325
832.457275,326
832.575623,326
832.693909,317
832.812134,322
832.930481,294
833.048828,300
833.167114,295
833.2854,322
833.403687,318
833.521973,304
833.640259,310
833.758545,317
833.876831,337
833.995056,325
834.113281,313
834.231628,298
834.349915,310
834.468201,317
834.586426,331
834.704651,320
834.822998,315
834.941162,320
835.059448,319
835.177673,314
835.295959,312
835.414246,305
835.53241,316
835.650635,326
835.768921,318
835.887146,326
836.005371,308
836.123596,321
836.241821,315
836.360046,320
836.478271,308
836.596497,315
836.714722,316
836.832886,298
836.95105,306
837.069336,321
837.1875,319
837.305725,332
837.423889,319
837.542053,310
837.660339,312
837.778503,311
837.896667,313
838.014832,310
838.132996,322
838.25116,318
838.369385,309
838.487488,314
838.605713,317
838.723877,310
838.84198,314
838.960205,313
839.078308,311
839.196472,312
839.314636,323
839.4328,318
839.550964,309
839.669067,318
839.787231,317
839.905396,318
840.023499,310
840.141602,315
840.259766,312
840.377869,310
840.495972,315
840.614136,323
840.732239,320
840.850342,325
840.968445,318
841.086548,325
841.204651,325
841.322754,301
841.440918,318
841.55896,318
841.677002,314
841.795166,319
841.913208,299
842.031311,317
842.149353,308
842.267456,319
842.385498,307
842.503601,316
842.621643,313
842.739746,305
842.857788,320
842.97583,328
843.093933,313
843.211975,327
843.330017,310
843.44812,320
843.566101,319
843.684204,310
843.802246,306
843.920227,312
844.038269,307
844.156311,333
844.274292,308
844.392395,317
844.510376,297
844.628357,310
844.74646,332
844.864441,316
844.982422,316
845.100403,317
845.218384,309
845.336426,310
845.454468,302
845.572449,321
845.69043,321
845.808411,314
845.926453,314
846.044373,310
846.162354,309
846.280396,313
846.398315,315
846.516296,316
846.634216,309
846.752197,306
846.870178,327
846.988098,327
847.106079,314
847.22406,311
847.34198,315
847.4599,320
847.577881,306
847.695801,322
847.813782,316
847.931641,327
848.049561,315
848.167603,309
848.285461,326
848.403381,325
848.521362,306
848.639221,301
848.75708,303
848.875,319
848.99292,315
849.110901,303
849.22876,303
849.34668,312
849.464539,326
849.582458,316
849.700317,314
849.818176,313
849.936096,314
850.053955,321
850.171875,310
850.289673,315
850.407593,310
850.525452,330
850.643311,303
850.761169,326
850.878967,308
850.996887,310
851.114746,318
851.232544,310
851.350403,309
851.468262,319
851.58606,305
851.703979,317
851.821777,314
851.939636,320
852.057434,304
852.175232,313
852.293091,318
852.410889,317
852.528687,318
852.646545,323
852.764343,318
852.88208,326
852.999939,318
853.117676,312
853.235535,313
853.353271,297
853.471069,307
853.588928,318
853.706604,297
853.824402,319
853.9422,308
854.059998,316
854.177734,305
854.295532,318
854.413269,310
854.531006,309
854.648804,306
854.766541,305
854.884277,313
855.002014,330
855.119751,312
855.237549,311
855.355225,316
855.473022,295
855.590698,312
855.708435,315
855.826172,313
855.943848,317
856.061646,311
856.179321,313
856.296997,330
856.414795,324
856.53241,312
856.650085,322
856.767822,318
856.885559,323
857.003174,310
857.120911,327
857.238586,319
857.356201,322
857.473938,313
857.591614,331
857.709351,305
857.826965,314
857.944641,314
858.062317,315
858.179993,309
858.297668,312
858.415283,316
858.532959,338
858.650574,318
858.768188,333
858.885803,305
859.003479,297
859.121094,318
859.23877,310
859.356384,314
859.473999,319
859.591675,313
859.709229,312
859.826843,303
859.944458,331
860.062012,308
860.179626,326
860.297302,329
860.414856,320
860.532471,309
860.650024,305
860.767639,315
860.885193,331
861.002808,303
861.120361,318
861.237976,320
861.35553,315
861.473022,316
861.590698,316
861.708191,313
861.825745,309
861.943298,302
862.060852,324
862.178406,313
862.295959,327
862.413513,313
862.531006,316
862.64856,319
862.766113,313
862.883667,310
863.00116,312
863.118713,331
863.236206,333
863.353699,304
863.471252,314
863.588745,305
863.706177,328
863.82373,314
863.941162,305
864.058716,313
864.176208,317
864.29364,306
864.411194,321
864.528687,313
864.646118,320
864.763611,302
864.881042,316
864.998535,313
865.116028,313
865.233459,307
865.350891,321
865.468384,303
865.585754,326
865.703308,318
865.820679,325
865.938171,307
866.055542,319
866.173035,308
866.290466,316
866.407837,322
866.52533,313
866.6427,298
866.760071,326
866.877563,292
866.994934,332
867.112305,323
867.229736,309
867.347107,333
867.464539,325
867.58197,319
867.699341,319
867.81665,300
867.934082,316
868.051453,312
868.168823,325
868.286194,313
868.403564,329
868.520935,325
868.638306,313
868.755676,322
868.872986,312
868.990295,309
869.107727,315
869.225037,320
869.342346,327
869.459717,305
869.577026,316
869.694336,298
869.811707,304
869.929016,315
870.046326,325
870.163635,317
870.280945,326
870.398254,316
870.515564,326
870.632812,311
870.750183,313
870.867432,313
870.984741,317
871.102051,310
871.219299,319
871.336609,309
871.453918,324
871.571106,313
871.688416,339
871.805664,310
871.922852,323
872.040222,316
872.157471,328
872.274719,322
872.391968,321
872.509155,320
872.626465,324
872.743652,304
872.860962,308
872.978149,324
873.095337,317
873.212646,322
873.329834,321
873.44696,317
873.564209,314
873.681396,304
873.798645,316
873.915894,321
874.03302,305
874.150208,323
874.267456,320
874.384583,302
874.501831,321
874.618958,308
874.736145,323
874.853333,301
874.970459,328
875.087646,311
875.204834,312
875.32196,308
875.439148,308
875.556274,310
875.673401,313
875.790527,307
875.907715,316
876.024841,312
876.141968,316
876.259094,309
876.376282,319
876.493347,313
876.610474,313
876.7276,303
876.844727,320
876.961853,319
877.078918,310
877.195984,319
877.313171,312
877.430237,320
877.547302,326
877.664368,302
877.781433,319
877.898499,308
878.015625,313
878.13269,315
878.249695,318
878.366821,305
878.483887,308
878.600952,304
878.717957,320
878.834961,320
878.952087,321
879.069092,296
879.186157,311
879.303162,312
879.420227,320
879.537231,315
879.654236,318
879.77124,307
879.888306,330
880.005249,310
880.122314,320
880.239319,317
880.356323,319
880.473328,313
880.590271,315
880.707275,315
880.824341,317
880.941284,307
881.058228,324
881.175232,319
881.292236,314
881.40918,311
881.526123,316
881.643066,323
881.760071,318
881.877014,312
881.993958,321
882.11084,313
882.227783,314
882.344727,311
882.46167,317
882.578613,306
882.695618,319
882.812439,317
882.929382,314
883.046326,305
883.163208,309
883.280151,307
883.397034,323
883.513916,319
883.630798,322
883.747742,324
883.864563,320
883.981506,302
884.098389,328
884.21521,316
884.332153,327
884.448975,321
884.565796,313
884.682678,306
884.7995,307
884.916443,312
885.033264,314
885.150085,316
885.266968,326
885.383789,298
885.500671,321
885.617493,308
885.734314,322
885.851196,310
885.967896,327
886.084717,326
886.201599,325
886.318359,317
886.435181,320
886.552002,300
886.668762,314
886.785645,313
886.902344,323
887.019165,313
887.135925,316
887.252747,309
887.369446,300
887.486267,316
887.603027,314
887.719788,313
887.836548,321
887.953247,311
888.070068,313
888.186829,315
888.303528,318
888.420288,321
888.536987,305
888.653687,315
888.770447,328
888.887146,302
889.003967,320
889.120667,309
889.237305,328
889.354065,321
889.470703,312
889.587463,312
889.704163,337
889.820862,326
889.937561,316
890.054199,316
890.170837,317
890.287598,308
890.404236,311
890.520874,313
890.637634,320
890.754211,315
890.87085,302
890.987549,309
891.104187,321
891.220886,299
891.337463,333
891.454102,315
891.57074,331
891.687378,314
891.804077,318
891.920654,333
892.037231,328
892.15387,318
892.270447,309
892.387085,309
892.503723,309
892.6203,319
892.736877,314
892.853516,311
892.970032,321
893.08667,303
893.203186,306
893.319763,310
893.43634,316
893.552917,311
893.669556,318
893.786011,307
893.902588,316
894.019165,311
894.135681,310
894.252197,325
894.368835,319
894.485291,309
894.601868,328
894.718384,303
894.8349,308
894.951355,321
895.067932,318
895.184448,302
895.300964,328
895.417419,312
895.533936,310
895.650452,322
895.766907,318
895.883423,308
895.999878,319
896.116333,315
896.232849,310
896.349304,313
896.465759,322
896.582214,316
896.698669,318
896.815125,317
896.931641,329
897.048035,318
897.164551,323
897.280884,305
897.397339,323
897.513794,311
897.630249,326
897.746582,323
897.863098,317
897.979431,319
898.095886,320
898.212341,308
898.328674,316
898.445129,321
898.561462,338
898.677795,307
898.794312,325
898.910645,318
899.026978,319
899.143433,322
899.259766,321
899.37616,312
899.492493,329
899.608765,320
899.725159,329
899.841553,320
899.957947,316
900.07428,317
900.190552,330
900.306946,318
900.423157,325
900.53949,300
900.655884,315
900.772156,319
900.888489,332
901.004822,314
901.121033,319
901.237366,310
901.353699,306
901.46991,322
901.586304,311
901.702515,318
901.818787,322
901.93512,316
902.051331,327
902.167603,317
902.283875,321
902.400085,308
902.516418,318
902.632629,310
902.74884,322
902.865112,311
902.981384,323
903.097595,312
903.213867,320
903.330017,301
903.446289,305
903.5625,323
903.67865,319
903.794922,317
903.911072,320
904.027344,316
904.143494,329
904.259705,298
904.375916,333
904.492065,310
904.608215,317
904.724426,312
904.840576,322
904.956726,318
905.072876,331
905.189087,307
905.305176,321
905.421387,306
905.537537,334
905.653687,321
905.769775,329
905.885925,315
906.002014,310
906.118164,310
906.234314,324
906.350403,314
906.466492,322
906.582642,329
906.69873,322
906.814758,313
906.930908,319
907.046936,313
907.163086,321
907.279175,327
907.395264,329
907.511353,318
907.62738,326
907.743408,318
907.859497,308
907.975525,325
908.091553,321
908.207703,330
908.32373,314
908.439758,331
908.555786,325
908.671814,308
908.787842,312
908.90387,320
909.019775,316
909.135864,310
909.251892,314
909.367859,319
909.483826,317
909.599854,320
909.715881,310
909.831848,320
909.947815,321
910.063782,313
910.179749,328
910.295776,323
910.411743,316
910.527649,317
910.643616,328
910.759583,330
910.875488,326
910.991455,326
911.107361,313
911.223267,312
911.339294,320
911.4552,316
911.571106,322
911.687073,319
911.802979,327
911.918823,315
912.034729,320
912.150635,306
912.266602,314
912.382446,306
912.498352,319
912.614197,309
912.730103,323
912.846008,310
