792.44574,313
792.56488,353
792.68396,391
792.80304,384
792.92218,343
793.041199,305
793.160339,327
793.279419,345
793.398499,336
793.517578,307
793.636658,314
793.755737,327
793.874817,354
793.993896,335
794.112976,324
794.232056,315
794.351074,336
794.470215,338
794.589233,351
794.708313,340
794.827393,333
794.946411,330
795.065552,317
795.18457,339
795.303589,332
795.422668,323
795.541687,329
795.660767,321
795.779846,328
795.898865,327
796.017883,340
796.136963,339
796.255981,328
796.375061,324
796.49408,340
796.613037,319
796.732117,330
796.851135,324
796.970154,332
797.089233,339
797.208191,322
797.327271,322
797.446228,338
797.565186,336
797.684265,350
797.803223,336
797.922241,346
798.04126,324
798.160278,344
798.279297,326
798.398315,322
798.517273,315
798.636292,325
798.75531,334
798.874268,330
798.993286,332
799.112244,332
799.231323,324
799.350281,346
799.469238,336
799.588257,328
799.707153,332
799.826111,340
799.945129,327
800.064087,340
800.183044,326
800.302063,333
800.421021,332
800.539978,323
800.658936,329
800.777893,322
800.896912,331
801.015747,319
801.134705,326
801.253723,325
801.37262,333
801.491638,338
801.610535,325
801.729492,339
801.84845,323
801.967407,335
802.086243,327
802.205261,340
802.324158,313
802.443115,327
802.562073,329
802.680969,343
802.799927,339
802.918762,336
803.037659,332
803.156677,331
803.275574,315
803.39447,335
803.513428,323
803.632263,327
803.751221,331
803.870117,324
803.989014,312
804.107971,345
804.226746,313
804.345642,339
804.4646,326
804.583496,328
804.702393,338
804.821228,338
804.940125,320
805.059021,328
805.177917,327
805.296814,336
805.415649,331
805.534546,331
805.653442,338
805.772278,330
805.891113,329
806.01001,326
806.128906,330
806.247742,327
806.366577,325
806.485413,334
806.604309,335
806.723145,335
806.84198,317
806.960876,339
807.079712,333
807.198486,328
807.317383,320
807.436218,335
807.554993,339
807.673889,339
807.792725,322
807.91156,317
808.030396,338
808.14917,322
808.268005,337
808.386841,331
808.505676,334
808.624451,336
808.743286,329
808.862122,313
808.980896,336
809.099731,323
809.218506,330
809.337341,343
809.456116,337
809.57489,334
809.693726,323
809.8125,335
809.931274,324
810.050049,330
810.168884,333
810.287659,331
810.406372,340
810.525269,336
810.643982,329
810.762756,353
810.881531,329
811.000305,323
811.11908,327
811.237854,321
811.356567,328
811.475403,322
811.594116,341
811.71283,319
811.831604,335
811.950378,334
812.069153,338
812.187927,343
812.30658,332
812.425415,339
812.544128,326
812.662781,327
812.781616,336
812.900269,329
813.019043,334
813.137756,342
813.256531,343
813.375244,331
813.493896,328
813.612671,339
813.731384,338
813.850037,330
813.96875,332
814.087524,337
814.206238,340
814.324951,345
814.443604,344
814.562256,329
814.68103,337
814.799683,332
814.918335,326
815.037109,336
815.155762,323
815.274475,342
815.393188,319
815.511841,336
815.630554,323
815.749146,321
815.867859,335
815.986572,333
816.105164,342
816.223877,331
816.342529,325
816.461182,324
816.579895,341
816.698486,336
816.817139,319
816.935791,320
817.054504,322
817.173096,336
817.291748,323
817.4104,335
817.529053,331
817.647644,339
817.766235,336
817.884949,337
818.00354,332
818.122192,333
818.240845,316
818.359436,335
818.478088,318
818.59668,315
818.715271,329
818.833923,329
818.952515,329
819.071106,325
819.189758,311
819.30835,321
819.426941,329
819.545532,325
819.664124,321
819.782715,320
819.901306,310
820.019897,317
820.138489,316
820.25708,331
820.375671,311
820.494202,322
820.612732,323
820.731384,327
820.849915,316
820.968506,322
821.087097,315
821.205627,318
821.324158,311
821.442749,323
821.561279,314
821.679871,333
821.798401,320
821.916931,333
822.035461,311
822.154053,312
822.272583,320
822.391174,325
822.509583,322
822.628174,329
822.746704,313
822.865234,329
822.983765,316
823.102295,329
823.220825,313
823.339294,326
823.457825,322
823.576355,326
823.694824,321
823.813354,322
823.931885,312
824.050354,329
824.168884,309
824.287354,327
824.405823,319
824.524353,310
824.642822,326
824.761353,314
824.879822,315
824.998291,308
825.116699,324
825.235291,308
825.353699,310
825.472168,322
825.590637,324
825.709106,328
825.827576,328
825.946045,327
826.064453,325
826.182983,328
826.301392,322
826.4198,315
826.53833,305
826.656738,337
826.775208,315
826.893677,319
827.012024,321
827.130493,316
827.248962,332
827.36731,322
827.485779,311
827.604248,331
827.722595,318
827.841064,318
827.959412,309
828.077942,320
828.196289,317
828.314636,313
828.433105,312
828.551514,319
828.669861,308
828.78833,320
828.906677,309
829.025085,312
829.143433,326
829.261841,314
829.38031,309
829.498657,322
829.617004,313
829.735413,312
829.85376,300
829.972107,320
830.090515,314
830.208862,316
830.327209,307
830.445557,324
830.563904,309
830.682312,319
830.800659,312
830.919006,317
831.037354,309
831.155701,330
831.274048,320
831.392395,318
831.51062,299
831.629028,319
831.747314,308
831.865662,304
831.984009,316
832.102356,321
832.220642,309
832.338928,311
832.457275,317
832.575623,327
832.693909,316
832.812134,318
832.930481,321
833.048828,309
833.167114,314
833.2854,306
833.403687,313
833.521973,313
833.640259,328
833.758545,326
833.876831,302
833.995056,329
834.113281,314
834.231628,318
834.349915,326
834.468201,323
834.586426,318
834.704651,316
834.822998,313
834.941162,310
835.059448,317
835.177673,332
835.295959,321
835.414246,319
835.53241,309
835.650635,323
835.768921,315
835.887146,323
836.005371,330
836.123596,329
836.241821,310
836.360046,319
836.478271,327
836.596497,313
836.714722,327
836.832886,304
836.95105,312
837.069336,308
837.1875,318
837.305725,314
837.423889,325
837.542053,321
837.660339,329
837.778503,319
837.896667,313
838.014832,316
838.132996,306
838.25116,321
838.369385,321
838.487488,329
838.605713,325
838.723877,317
838.84198,313
838.960205,324
839.078308,312
839.196472,318
839.314636,317
839.4328,311
839.550964,324
839.669067,335
839.787231,308
839.905396,312
840.023499,304
840.141602,313
840.259766,319
840.377869,326
840.495972,317
840.614136,327
840.732239,313
840.850342,318
840.968445,317
841.086548,311
841.204651,325
841.322754,308
841.440918,307
841.55896,321
841.677002,312
841.795166,306
841.913208,312
842.031311,325
842.149353,314
842.267456,323
842.385498,320
842.503601,322
842.621643,314
842.739746,314
842.857788,297
842.97583,324
843.093933,309
843.211975,317
843.330017,314
843.44812,320
843.566101,305
843.684204,318
843.802246,313
843.920227,311
844.038269,312
844.156311,319
844.274292,309
844.392395,315
844.510376,311
844.628357,315
844.74646,319
844.864441,323
844.982422,309
845.100403,320
845.218384,309
845.336426,308
845.454468,315
845.572449,312
845.69043,314
845.808411,309
845.926453,313
846.044373,316
846.162354,324
846.280396,308
846.398315,308
846.516296,319
846.634216,320
846.752197,321
846.870178,320
846.988098,322
847.106079,305
847.22406,317
847.34198,316
847.4599,310
847.577881,306
847.695801,335
847.813782,305
847.931641,329
848.049561,314
848.167603,314
848.285461,317
848.403381,309
848.521362,299
848.639221,313
848.75708,323
848.875,321
848.99292,319
849.110901,335
849.22876,312
849.34668,325
849.464539,308
849.582458,320
849.700317,312
849.818176,325
849.936096,299
850.053955,316
850.171875,317
850.289673,306
850.407593,301
850.525452,315
850.643311,306
850.761169,317
850.878967,309
850.996887,332
851.114746,308
851.232544,323
851.350403,313
851.468262,316
851.58606,315
851.703979,320
851.821777,321
851.939636,309
852.057434,306
852.175232,326
852.293091,309
852.410889,313
852.528687,293
852.646545,328
852.764343,309
852.88208,311
852.999939,307
853.117676,327
853.235535,308
853.353271,321
853.471069,318
853.588928,316
853.706604,313
853.824402,314
853.9422,326
854.059998,326
854.177734,312
854.295532,320
854.413269,315
854.531006,321
854.648804,309
854.766541,317
854.884277,324
855.002014,316
855.119751,334
855.237549,313
855.355225,315
855.473022,318
855.590698,321
855.708435,330
855.826172,307
855.943848,313
856.061646,310
856.179321,318
856.296997,314
856.414795,318
856.53241,304
856.650085,317
856.767822,321
856.885559,309
857.003174,314
857.120911,318
857.238586,327
857.356201,332
857.473938,312
857.591614,318
857.709351,302
857.826965,313
857.944641,312
858.062317,315
858.179993,306
858.297668,303
858.415283,313
858.532959,322
858.650574,317
858.768188,328
858.885803,312
859.003479,318
859.121094,316
859.23877,310
859.356384,303
859.473999,301
859.591675,315
859.709229,299
859.826843,315
859.944458,323
860.062012,326
860.179626,318
860.297302,311
860.414856,313
860.532471,311
860.650024,321
860.767639,313
860.885193,315
861.002808,316
861.120361,319
861.237976,314
861.35553,313
861.473022,312
861.590698,326
861.708191,314
861.825745,323
861.943298,313
862.060852,325
862.178406,307
862.295959,323
862.413513,321
862.531006,321
862.64856,310
862.766113,325
862.883667,315
863.00116,325
863.118713,310
863.236206,324
863.353699,315
863.471252,308
863.588745,317
863.706177,305
863.82373,315
863.941162,326
864.058716,301
864.176208,323
864.29364,316
864.411194,319
864.528687,322
864.646118,297
864.763611,307
864.881042,317
864.998535,315
865.116028,314
865.233459,321
865.350891,312
865.468384,319
865.585754,311
865.703308,309
865.820679,329
865.938171,307
866.055542,305
866.173035,316
866.290466,313
866.407837,315
866.52533,308
866.6427,317
866.760071,331
866.877563,307
866.994934,320
867.112305,306
867.229736,309
867.347107,318
867.464539,316
867.58197,330
867.699341,326
867.81665,313
867.934082,316
868.051453,302
868.168823,311
868.286194,323
868.403564,311
868.520935,312
868.638306,315
868.755676,303
868.872986,322
868.990295,305
869.107727,329
869.225037,304
869.342346,325
869.459717,307
869.577026,317
869.694336,302
869.811707,325
869.929016,314
870.046326,327
870.163635,317
870.280945,306
870.398254,322
870.515564,313
870.632812,327
870.750183,310
870.867432,308
870.984741,305
871.102051,305
871.219299,325
871.336609,309
871.453918,319
871.571106,307
871.688416,315
871.805664,309
871.922852,317
872.040222,323
872.157471,312
872.274719,316
872.391968,315
872.509155,314
872.626465,317
872.743652,310
872.860962,316
872.978149,310
873.095337,320
873.212646,317
873.329834,304
873.44696,315
873.564209,315
873.681396,308
873.798645,311
873.915894,304
874.03302,316
874.150208,313
874.267456,315
874.384583,304
874.501831,319
874.618958,294
874.736145,321
874.853333,307
874.970459,318
875.087646,312
875.204834,300
875.32196,318
875.439148,323
875.556274,314
875.673401,321
875.790527,306
875.907715,315
876.024841,321
876.141968,312
876.259094,300
876.376282,319
876.493347,324
876.610474,316
876.7276,301
876.844727,294
876.961853,300
877.078918,305
877.195984,310
877.313171,316
877.430237,309
877.547302,320
877.664368,309
877.781433,312
877.898499,314
878.015625,321
878.13269,312
878.249695,314
878.366821,309
878.483887,322
878.600952,316
878.717957,315
878.834961,304
878.952087,326
879.069092,322
879.186157,328
879.303162,303
879.420227,322
879.537231,299
879.654236,325
879.77124,319
879.888306,312
880.005249,309
880.122314,318
880.239319,319
880.356323,312
880.473328,307
880.590271,322
880.707275,317
880.824341,317
880.941284,300
881.058228,320
881.175232,303
881.292236,318
881.40918,320
881.526123,311
881.643066,327
881.760071,308
881.877014,308
881.993958,330
882.11084,306
882.227783,316
882.344727,305
882.46167,309
882.578613,321
882.695618,328
882.812439,300
882.929382,302
883.046326,309
883.163208,319
883.280151,313
883.397034,317
883.513916,320
883.630798,318
883.747742,316
883.864563,314
883.981506,317
884.098389,319
884.21521,315
884.332153,311
884.448975,322
884.565796,313
884.682678,312
884.7995,309
884.916443,321
885.033264,316
885.150085,294
885.266968,319
885.383789,322
885.500671,313
885.617493,316
885.734314,317
885.851196,316
885.967896,318
886.084717,327
886.201599,311
886.318359,318
886.435181,316
886.552002,317
886.668762,315
886.785645,307
886.902344,326
887.019165,318
887.135925,318
887.252747,316
887.369446,324
887.486267,314
887.603027,305
887.719788,317
887.836548,319
887.953247,323
888.070068,306
888.186829,331
888.303528,328
888.420288,322
888.536987,332
888.653687,312
888.770447,327
888.887146,309
889.003967,317
889.120667,319
889.237305,317
889.354065,319
889.470703,317
889.587463,308
889.704163,315
889.820862,306
889.937561,329
890.054199,310
890.170837,324
890.287598,319
890.404236,309
890.520874,315
890.637634,309
890.754211,325
890.87085,322
890.987549,322
891.104187,322
891.220886,314
891.337463,318
891.454102,318
891.57074,325
891.687378,308
891.804077,320
891.920654,310
892.037231,312
892.15387,304
892.270447,325
892.387085,306
892.503723,316
892.6203,305
892.736877,327
892.853516,318
892.970032,305
893.08667,297
893.203186,330
893.319763,303
893.43634,315
893.552917,323
893.669556,315
893.786011,314
893.902588,309
894.019165,312
894.135681,330
894.252197,324
894.368835,317
894.485291,308
894.601868,323
894.718384,304
894.8349,320
894.951355,307
895.067932,311
895.184448,304
895.300964,321
895.417419,314
895.533936,316
895.650452,307
895.766907,312
895.883423,314
895.999878,316
896.116333,304
896.232849,313
896.349304,321
896.465759,324
896.582214,311
896.698669,310
896.815125,307
896.931641,313
897.048035,314
897.164551,323
897.280884,309
897.397339,309
897.513794,319
897.630249,319
897.746582,313
897.863098,318
897.979431,314
898.095886,319
898.212341,301
898.328674,326
898.445129,307
898.561462,321
898.677795,305
898.794312,309
898.910645,312
899.026978,312
899.143433,327
899.259766,324
899.37616,291
899.492493,324
899.608765,315
899.725159,322
899.841553,303
899.957947,316
900.07428,317
900.190552,315
900.306946,310
900.423157,318
900.53949,310
900.655884,325
900.772156,304
900.888489,327
901.004822,315
901.121033,316
901.237366,305
901.353699,307
901.46991,327
901.586304,314
901.702515,320
901.818787,336
901.93512,298
902.051331,311
902.167603,317
902.283875,319
902.400085,320
902.516418,316
902.632629,322
902.74884,311
902.865112,325
902.981384,325
903.097595,315
903.213867,324
903.330017,308
903.446289,326
903.5625,316
903.67865,325
903.794922,316
903.911072,317
904.027344,306
904.143494,325
904.259705,308
904.375916,330
904.492065,326
904.608215,314
904.724426,318
904.840576,300
904.956726,315
905.072876,296
905.189087,308
905.305176,334
905.421387,316
905.537537,321
905.653687,317
905.769775,325
905.885925,312
906.002014,318
906.118164,314
906.234314,318
906.350403,312
906.466492,314
906.582642,312
906.69873,310
906.814758,309
906.930908,326
907.046936,317
907.163086,310
907.279175,308
907.395264,319
907.511353,307
907.62738,320
907.743408,317
907.859497,316
907.975525,309
908.091553,319
908.207703,318
908.32373,331
908.439758,305
908.555786,308
908.671814,305
908.787842,316
908.90387,316
909.019775,327
909.135864,314
909.251892,315
909.367859,321
909.483826,313
909.599854,319
909.715881,317
909.831848,303
909.947815,318
910.063782,309
910.179749,313
910.295776,317
910.411743,312
910.527649,312
910.643616,318
910.759583,301
910.875488,317
910.991455,309
911.107361,339
911.223267,310
911.339294,302
911.4552,308
911.571106,319
911.687073,308
911.802979,315
911.918823,307
912.034729,316
912.150635,310
912.266602,328
912.382446,311
912.498352,319
912.614197,311
912.730103,319
912.846008,328
792.44574,331
792.56488,358
792.68396,406
792.80304,374
792.92218,324
793.041199,309
793.160339,318
793.279419,332
793.398499,338
793.517578,326
793.636658,322
793.755737,340
793.874817,365
793.993896,336
794.112976,338
794.232056,327
794.351074,324
794.470215,335
794.589233,328
794.708313,333
794.827393,345
794.946411,336
795.065552,328
795.18457,332
795.303589,318
795.422668,337
795.541687,314
795.660767,340
795.779846,329
795.898865,323
796.017883,329
796.136963,336
796.255981,316
796.375061,347
796.49408,340
796.613037,337
796.732117,322
796.851135,319
796.970154,328
797.089233,313
797.208191,327
797.327271,320
797.446228,325
797.565186,338
797.684265,341
797.803223,317
797.922241,341
798.04126,326
798.160278,330
798.279297,336
798.398315,330
798.517273,326
798.636292,337
798.75531,323
798.874268,330
798.993286,332
799.112244,328
799.231323,323
799.350281,335
799.469238,335
799.588257,332
799.707153,322
799.826111,332
799.945129,342
800.064087,329
800.183044,330
800.302063,339
800.421021,331
800.539978,320
800.658936,341
800.777893,321
800.896912,325
801.015747,339
801.134705,329
801.253723,345
801.37262,332
801.491638,336
801.610535,319
801.729492,326
801.84845,340
801.967407,331
802.086243,338
802.205261,333
802.324158,331
802.443115,323
802.562073,332
802.680969,326
802.799927,322
802.918762,331
803.037659,323
803.156677,349
803.275574,331
803.39447,338
803.513428,336
803.632263,341
803.751221,331
803.870117,319
803.989014,324
804.107971,335
804.226746,322
804.345642,331
804.4646,341
804.583496,338
804.702393,337
804.821228,326
804.940125,318
805.059021,326
805.177917,318
805.296814,339
805.415649,326
805.534546,336
805.653442,322
805.772278,338
805.891113,336
806.01001,323
806.128906,320
806.247742,329
806.366577,324
806.485413,326
806.604309,325
806.723145,335
806.84198,325
806.960876,333
807.079712,342
807.198486,336
807.317383,333
807.436218,334
807.554993,337
807.673889,326
807.792725,342
807.91156,333
808.030396,330
808.14917,338
808.268005,332
808.386841,325
808.505676,336
808.624451,345
808.743286,328
808.862122,325
808.980896,335
809.099731,342
809.218506,334
809.337341,329
809.456116,322
809.57489,329
809.693726,332
809.8125,324
809.931274,337
810.050049,330
810.168884,338
810.287659,353
810.406372,351
810.525269,340
810.643982,335
810.762756,330
810.881531,331
811.000305,339
811.11908,330
811.237854,341
811.356567,350
811.475403,340
811.594116,340
811.71283,335
811.831604,330
811.950378,340
812.069153,334
812.187927,343
812.30658,337
812.425415,338
812.544128,330
812.662781,334
812.781616,333
812.900269,326
813.019043,328
813.137756,319
813.256531,325
813.375244,356
813.493896,338
813.612671,330
813.731384,337
813.850037,336
813.96875,328
814.087524,338
814.206238,334
814.324951,345
814.443604,327
814.562256,343
814.68103,340
814.799683,334
814.918335,338
815.037109,339
815.155762,343
815.274475,339
815.393188,312
815.511841,341
815.630554,327
815.749146,319
815.867859,344
815.986572,333
816.105164,325
816.223877,338
816.342529,340
816.461182,343
816.579895,318
816.698486,336
816.817139,338
816.935791,344
817.054504,334
817.173096,336
817.291748,330
817.4104,330
817.529053,326
817.647644,348
817.766235,339
817.884949,335
818.00354,327
818.122192,333
818.240845,315
818.359436,320
818.478088,310
818.59668,324
818.715271,333
818.833923,329
818.952515,320
819.071106,319
819.189758,326
819.30835,343
819.426941,320
819.545532,304
819.664124,323
819.782715,315
819.901306,326
820.019897,336
820.138489,327
820.25708,317
820.375671,312
820.494202,317
820.612732,326
820.731384,325
820.849915,318
820.968506,326
821.087097,323
821.205627,320
821.324158,314
821.442749,315
821.561279,318
821.679871,326
821.798401,317
821.916931,310
822.035461,318
822.154053,327
822.272583,310
822.391174,329
822.509583,310
822.628174,314
822.746704,323
822.865234,323
822.983765,323
823.102295,327
823.220825,315
823.339294,321
823.457825,334
823.576355,312
823.694824,328
823.813354,336
823.931885,307
824.050354,309
824.168884,323
824.287354,321
824.405823,315
824.524353,314
824.642822,321
824.761353,317
824.879822,325
824.998291,334
825.116699,309
825.235291,324
825.353699,320
825.472168,323
825.590637,310
825.709106,316
825.827576,330
825.946045,330
826.064453,310
826.182983,325
826.301392,318
826.4198,314
826.53833,323
826.656738,326
826.775208,302
826.893677,324
827.012024,312
827.130493,320
827.248962,314
827.36731,329
827.485779,317
827.604248,320
827.722595,321
827.841064,303
827.959412,322
828.077942,325
828.196289,321
828.314636,315
828.433105,325
828.551514,321
828.669861,324
828.78833,327
828.906677,321
829.025085,321
829.143433,325
829.261841,310
829.38031,320
829.498657,321
829.617004,313
829.735413,309
829.85376,321
829.972107,316
830.090515,314
830.208862,317
830.327209,318
830.445557,325
830.563904,304
830.682312,307
830.800659,321
830.919006,320
831.037354,315
831.155701,316
831.274048,318
831.392395,326
831.51062,314
831.629028,314
831.747314,321
831.865662,312
831.984009,305
832.102356,332
832.220642,310
832.338928,312
832.457275,310
832.575623,308
832.693909,314
832.812134,322
832.930481,324
833.048828,310
833.167114,320
833.2854,300
833.403687,316
833.521973,327
833.640259,326
833.758545,329
833.876831,319
833.995056,327
834.113281,313
834.231628,314
834.349915,312
834.468201,320
834.586426,321
834.704651,320
834.822998,312
834.941162,313
835.059448,316
835.177673,318
835.295959,307
835.414246,316
835.53241,305
835.650635,323
835.768921,315
835.887146,321
836.005371,314
836.123596,313
836.241821,311
836.360046,328
836.478271,304
836.596497,325
836.714722,311
836.832886,319
836.95105,326
837.069336,317
837.1875,324
837.305725,318
837.423889,340
837.542053,316
837.660339,324
837.778503,322
837.896667,311
838.014832,318
838.132996,326
838.25116,322
838.369385,311
838.487488,324
838.605713,314
838.723877,322
838.84198,316
838.960205,320
839.078308,326
839.196472,308
839.314636,316
839.4328,311
839.550964,311
839.669067,318
839.787231,316
839.905396,313
840.023499,320
840.141602,322
840.259766,335
840.377869,318
840.495972,308
840.614136,322
840.732239,320
840.850342,317
840.968445,313
841.086548,322
841.204651,319
841.322754,329
841.440918,314
841.55896,314
841.677002,311
841.795166,316
841.913208,323
842.031311,306
842.149353,308
842.267456,309
842.385498,318
842.503601,302
842.621643,300
842.739746,325
842.857788,304
842.97583,325
843.093933,324
843.211975,308
843.330017,314
843.44812,309
843.566101,319
843.684204,338
843.802246,307
843.920227,335
844.038269,324
844.156311,316
844.274292,303
844.392395,329
844.510376,312
844.628357,312
844.74646,328
844.864441,308
844.982422,305
845.100403,324
845.218384,320
845.336426,323
845.454468,313
845.572449,325
845.69043,321
845.808411,311
845.926453,324
846.044373,313
846.162354,317
846.280396,326
846.398315,304
846.516296,318
846.634216,303
846.752197,298
846.870178,317
846.988098,324
847.106079,303
847.22406,314
847.34198,314
847.4599,321
847.577881,315
847.695801,304
847.813782,310
847.931641,328
848.049561,314
848.167603,313
848.285461,312
848.403381,328
848.521362,308
848.639221,309
848.75708,312
848.875,321
848.99292,305
849.110901,319
849.22876,304
849.34668,317
849.464539,307
849.582458,324
849.700317,316
849.818176,320
849.936096,306
850.053955,319
850.171875,322
850.289673,322
850.407593,313
850.525452,320
850.643311,315
850.761169,320
850.878967,299
850.996887,318
851.114746,317
851.232544,311
851.350403,312
851.468262,320
851.58606,324
851.703979,312
851.821777,323
851.939636,313
852.057434,307
852.175232,307
852.293091,319
852.410889,315
852.528687,325
852.646545,330
852.764343,306
852.88208,317
852.999939,322
853.117676,302
853.235535,309
853.353271,321
853.471069,325
853.588928,317
853.706604,319
853.824402,328
853.9422,325
854.059998,319
854.177734,311
854.295532,317
854.413269,311
854.531006,324
854.648804,312
854.766541,326
854.884277,309
855.002014,319
855.119751,312
855.237549,322
855.355225,323
855.473022,322
855.590698,310
855.708435,308
855.826172,302
855.943848,315
856.061646,317
856.179321,324
856.296997,325
856.414795,316
856.53241,305
856.650085,313
856.767822,319
856.885559,312
857.003174,323
857.120911,333
857.238586,307
857.356201,325
857.473938,317
857.591614,315
857.709351,306
857.826965,329
857.944641,306
858.062317,334
858.179993,321
858.297668,322
858.415283,316
858.532959,331
858.650574,298
858.768188,322
858.885803,336
859.003479,313
859.121094,298
859.23877,319
859.356384,312
859.473999,326
859.591675,319
859.709229,325
859.826843,315
859.944458,324
860.062012,315
860.179626,324
860.297302,314
860.414856,324
860.532471,313
860.650024,329
860.767639,312
860.885193,308
861.002808,309
861.120361,318
861.237976,310
861.35553,322
861.473022,308
861.590698,319
861.708191,309
861.825745,324
861.943298,308
862.060852,323
862.178406,308
862.295959,323
862.413513,330
862.531006,323
862.64856,316
862.766113,312
862.883667,312
863.00116,311
863.118713,333
863.236206,304
863.353699,326
863.471252,312
863.588745,314
863.706177,328
863.82373,317
863.941162,302
864.058716,322
864.176208,320
864.29364,309
864.411194,322
864.528687,323
864.646118,308
864.763611,318
864.881042,322
864.998535,314
865.116028,323
865.233459,305
865.350891,319
865.468384,317
865.585754,304
865.703308,328
865.820679,324
865.938171,307
866.055542,320
866.173035,314
866.290466,327
866.407837,327
866.52533,323
866.6427,303
866.760071,316
866.877563,307
866.994934,319
867.112305,312
867.229736,310
867.347107,310
867.464539,318
867.58197,312
867.699341,315
867.81665,307
867.934082,317
868.051453,312
868.168823,326
868.286194,304
868.403564,314
868.520935,318
868.638306,317
868.755676,324
868.872986,323
868.990295,326
869.107727,323
869.225037,308
869.342346,320
869.459717,314
869.577026,322
869.694336,303
869.811707,324
869.929016,305
870.046326,323
870.163635,311
870.280945,311
870.398254,314
870.515564,321
870.632812,317
870.750183,314
870.867432,308
870.984741,314
871.102051,310
871.219299,314
871.336609,324
871.453918,318
871.571106,313
871.688416,314
871.805664,311
871.922852,322
872.040222,313
872.157471,329
872.274719,305
872.391968,312
872.509155,324
872.626465,314
872.743652,325
872.860962,318
872.978149,315
873.095337,311
873.212646,321
873.329834,314
873.44696,316
873.564209,315
873.681396,303
873.798645,321
873.915894,318
874.03302,320
874.150208,317
874.267456,324
874.384583,313
874.501831,324
874.618958,319
874.736145,317
874.853333,307
874.970459,332
875.087646,305
875.204834,310
875.32196,319
875.439148,321
875.556274,304
875.673401,322
875.790527,305
875.907715,315
876.024841,313
876.141968,317
876.259094,324
876.376282,309
876.493347,313
876.610474,316
876.7276,313
876.844727,318
876.961853,318
877.078918,320
877.195984,330
877.313171,315
877.430237,312
877.547302,321
877.664368,320
877.781433,313
877.898499,334
878.015625,334
878.13269,315
878.249695,317
878.366821,321
878.483887,330
878.600952,313
878.717957,312
878.834961,320
878.952087,319
879.069092,321
879.186157,306
879.303162,297
879.420227,329
879.537231,327
879.654236,306
879.77124,312
879.888306,329
880.005249,314
880.122314,321
880.239319,311
880.356323,317
880.473328,314
880.590271,320
880.707275,321
880.824341,324
880.941284,331
881.058228,324
881.175232,316
881.292236,306
881.40918,321
881.526123,311
881.643066,324
881.760071,313
881.877014,321
881.993958,315
882.11084,323
882.227783,319
882.344727,329
882.46167,323
882.578613,295
882.695618,309
882.812439,312
882.929382,321
883.046326,318
883.163208,325
883.280151,318
883.397034,315
883.513916,306
883.630798,333
883.747742,316
883.864563,307
883.981506,306
884.098389,321
884.21521,310
884.332153,317
884.448975,324
884.565796,307
884.682678,323
884.7995,315
884.916443,326
885.033264,323
885.150085,318
885.266968,318
885.383789,307
885.500671,305
885.617493,321
885.734314,309
885.851196,319
885.967896,320
886.084717,310
886.201599,320
886.318359,308
886.435181,319
886.552002,307
886.668762,307
886.785645,310
886.902344,316
887.019165,326
887.135925,320
887.252747,321
887.369446,322
887.486267,307
887.603027,313
887.719788,316
887.836548,317
887.953247,316
888.070068,309
888.186829,325
888.303528,317
888.420288,305
888.536987,326
888.653687,318
888.770447,311
888.887146,310
889.003967,325
889.120667,314
889.237305,319
889.354065,329
889.470703,325
889.587463,312
889.704163,324
889.820862,300
889.937561,315
890.054199,322
890.170837,319
890.287598,317
890.404236,314
890.520874,311
890.637634,323
890.754211,318
890.87085,326
890.987549,311
891.104187,329
891.220886,315
891.337463,323
891.454102,310
891.57074,321
891.687378,310
891.804077,322
891.920654,310
892.037231,328
892.15387,333
892.270447,321
892.387085,311
892.503723,323
892.6203,317
892.736877,320
892.853516,318
892.970032,309
893.08667,307
893.203186,334
893.319763,315
893.43634,325
893.552917,302
893.669556,318
893.786011,312
893.902588,316
894.019165,312
894.135681,321
894.252197,308
894.368835,322
894.485291,306
894.601868,314
894.718384,310
894.8349,321
894.951355,306
895.067932,317
895.184448,295
895.300964,324
895.417419,324
895.533936,314
895.650452,312
895.766907,322
895.883423,311
895.999878,325
896.116333,325
896.232849,310
896.349304,315
896.465759,306
896.582214,302
896.698669,311
896.815125,316
896.931641,331
897.048035,302
897.164551,329
897.280884,323
897.397339,314
897.513794,312
897.630249,314
897.746582,312
897.863098,315
897.979431,316
898.095886,340
898.212341,307
898.328674,317
898.445129,322
898.561462,298
898.677795,319
898.794312,314
898.910645,314
899.026978,335
899.143433,324
899.259766,336
899.37616,312
899.492493,320
899.608765,313
899.725159,315
899.841553,319
899.957947,322
900.07428,329
900.190552,323
900.306946,310
900.423157,321
900.53949,318
900.655884,317
900.772156,308
900.888489,318
901.004822,315
901.121033,326
901.237366,321
901.353699,321
901.46991,303
901.586304,331
901.702515,315
901.818787,321
901.93512,306
902.051331,306
902.167603,325
902.283875,319
902.400085,314
902.516418,326
902.632629,313
902.74884,327
902.865112,323
902.981384,320
903.097595,320
903.213867,321
903.330017,315
903.446289,333
903.5625,323
903.67865,328
903.794922,311
903.911072,335
904.027344,326
904.143494,314
904.259705,310
904.375916,316
904.492065,312
904.608215,315
904.724426,319
904.840576,317
904.956726,302
905.072876,319
905.189087,305
905.305176,311
905.421387,315
905.537537,315
905.653687,318
905.769775,323
905.885925,315
906.002014,313
906.118164,308
906.234314,326
906.350403,328
906.466492,318
906.582642,313
906.69873,317
906.814758,323
906.930908,312
907.046936,305
907.163086,324
907.279175,308
907.395264,329
907.511353,317
907.62738,307
907.743408,319
907.859497,333
907.975525,320
908.091553,317
908.207703,316
908.32373,338
908.439758,314
908.555786,321
908.671814,319
908.787842,319
908.90387,322
909.019775,324
909.135864,306
909.251892,325
909.367859,316
909.483826,325
909.599854,319
909.715881,337
909.831848,317
909.947815,319
910.063782,326
910.179749,317
910.295776,321
910.411743,323
910.527649,315
910.643616,327
910.759583,320
910.875488,333
910.991455,321
911.107361,322
911.223267,312
911.339294,309
911.4552,324
911.571106,317
911.687073,323
911.802979,318
911.918823,312
912.034729,318
912.150635,327
912.266602,307
912.382446,309
912.498352,305
912.614197,318
912.730103,321
912.846008,319
792.44574,317
792.56488,352
792.68396,409
792.80304,378
792.92218,350
793.041199,315
793.160339,327
793.279419,331
793.398499,323
793.517578,314
793.636658,325
793.755737,329
793.874817,355
793.993896,334
794.112976,328
794.232056,333
794.351074,325
794.470215,318
794.589233,335
794.708313,329
794.827393,337
794.946411,337
795.065552,330
795.18457,334
795.303589,333
795.422668,338
795.541687,325
795.660767,332
795.779846,340
795.898865,321
796.017883,343
796.136963,319
796.255981,327
796.375061,330
796.49408,314
796.613037,326
796.732117,326
796.851135,319
796.970154,343
797.089233,324
797.208191,343
797.327271,315
797.446228,338
797.565186,335
797.684265,327
797.803223,330
797.922241,332
798.04126,332
798.160278,324
798.279297,323
798.398315,329
798.517273,324
798.636292,330
798.75531,335
798.874268,323
798.993286,344
799.112244,331
799.231323,337
799.350281,338
799.469238,341
799.588257,328
799.707153,323
799.826111,329
799.945129,324
800.064087,349
800.183044,336
800.302063,332
800.421021,329
800.539978,327
800.658936,326
800.777893,321
800.896912,333
801.015747,339
801.134705,317
801.253723,350
801.37262,323
801.491638,346
801.610535,327
801.729492,337
801.84845,335
801.967407,343
802.086243,311
802.205261,338
802.324158,326
802.443115,334
802.562073,325
802.680969,325
802.799927,321
802.918762,335
803.037659,336
803.156677,338
803.275574,332
803.39447,321
803.513428,323
803.632263,321
803.751221,333
803.870117,323
803.989014,329
804.107971,326
804.226746,332
804.345642,350
804.4646,332
804.583496,328
804.702393,330
804.821228,344
804.940125,333
805.059021,328
805.177917,341
805.296814,333
805.415649,319
805.534546,342
805.653442,327
805.772278,329
805.891113,325
806.01001,338
806.128906,328
806.247742,327
806.366577,325
806.485413,340
806.604309,341
806.723145,339
806.84198,328
806.960876,335
807.079712,344
807.198486,331
807.317383,330
807.436218,342
807.554993,308
807.673889,323
807.792725,330
807.91156,344
808.030396,334
808.14917,330
808.268005,339
808.386841,326
808.505676,335
808.624451,325
808.743286,334
808.862122,334
808.980896,326
809.099731,326
809.218506,334
809.337341,325
809.456116,332
809.57489,343
809.693726,322
809.8125,327
809.931274,338
810.050049,338
810.168884,328
810.287659,334
810.406372,339
810.525269,336
810.643982,324
810.762756,336
810.881531,321
811.000305,344
811.11908,330
811.237854,321
811.356567,330
811.475403,339
811.594116,328
811.71283,348
811.831604,323
811.950378,330
812.069153,322
812.187927,339
812.30658,325
812.425415,335
812.544128,346
812.662781,350
812.781616,331
812.900269,325
813.019043,321
813.137756,330
813.256531,327
813.375244,332
813.493896,336
813.612671,332
813.731384,340
813.850037,332
813.96875,332
814.087524,317
814.206238,321
814.324951,320
814.443604,339
814.562256,329
814.68103,320
814.799683,319
814.918335,327
815.037109,334
815.155762,332
815.274475,338
815.393188,333
815.511841,335
815.630554,331
815.749146,321
815.867859,334
815.986572,334
816.105164,329
816.223877,344
816.342529,324
816.461182,332
816.579895,330
816.698486,340
816.817139,326
816.935791,334
817.054504,333
817.173096,323
817.291748,333
817.4104,325
817.529053,349
817.647644,326
817.766235,335
817.884949,326
818.00354,334
818.122192,320
818.240845,321
818.359436,335
818.478088,322
818.59668,311
818.715271,318
818.833923,320
818.952515,323
819.071106,331
819.189758,326
819.30835,319
819.426941,324
819.545532,322
819.664124,320
819.782715,312
819.901306,314
820.019897,320
820.138489,324
820.25708,338
820.375671,314
820.494202,333
820.612732,316
820.731384,326
820.849915,325
820.968506,310
821.087097,309
821.205627,325
821.324158,321
821.442749,312
821.561279,311
821.679871,309
821.798401,336
821.916931,320
822.035461,319
822.154053,313
822.272583,317
822.391174,320
822.509583,308
822.628174,313
822.746704,309
822.865234,314
822.983765,317
823.102295,315
823.220825,311
823.339294,306
823.457825,304
823.576355,315
823.694824,315
823.813354,314
823.931885,316
824.050354,309
824.168884,320
824.287354,319
824.405823,320
824.524353,320
824.642822,309
824.761353,315
824.879822,336
824.998291,311
825.116699,313
825.235291,319
825.353699,315
825.472168,324
825.590637,314
825.709106,331
825.827576,317
825.946045,309
826.064453,316
826.182983,332
826.301392,312
826.4198,314
826.53833,312
826.656738,319
826.775208,308
826.893677,316
827.012024,306
827.130493,330
827.248962,317
827.36731,330
827.485779,312
827.604248,310
827.722595,311
827.841064,317
827.959412,313
828.077942,312
828.196289,306
828.314636,313
828.433105,316
828.551514,311
828.669861,308
828.78833,307
828.906677,325
829.025085,324
829.143433,322
829.261841,315
829.38031,304
829.498657,330
829.617004,311
829.735413,320
829.85376,317
829.972107,319
830.090515,322
830.208862,318
830.327209,308
830.445557,314
830.563904,312
830.682312,315
830.800659,319
830.919006,322
831.037354,306
831.155701,312
831.274048,324
831.392395,314
831.51062,331
831.629028,321
831.747314,314
831.865662,304
831.984009,306
832.102356,315
832.220642,319
832.338928,324
832.457275,297
832.575623,325
832.693909,313
832.812134,324
832.930481,311
833.048828,314
833.167114,321
833.2854,321
833.403687,313
833.521973,299
833.640259,320
833.758545,311
833.876831,316
833.995056,317
834.113281,304
834.231628,318
834.349915,318
834.468201,320
834.586426,303
834.704651,305
834.822998,315
834.941162,319
835.059448,320
835.177673,314
835.295959,317
835.414246,316
835.53241,306
835.650635,326
835.768921,308
835.887146,326
836.005371,310
836.123596,316
836.241821,316
836.360046,329
836.478271,320
836.596497,328
836.714722,321
836.832886,333
836.95105,321
837.069336,307
837.1875,326
837.305725,320
837.423889,307
837.542053,319
837.660339,308
837.778503,319
837.896667,310
838.014832,317
838.132996,318
838.25116,322
838.369385,315
838.487488,310
838.605713,326
838.723877,311
838.84198,320
838.960205,328
839.078308,322
839.196472,330
839.314636,298
839.4328,326
839.550964,311
839.669067,320
839.787231,305
839.905396,317
840.023499,323
840.141602,337
840.259766,323
840.377869,316
840.495972,330
840.614136,316
840.732239,307
840.850342,318
840.968445,313
841.086548,313
841.204651,326
841.322754,315
841.440918,317
841.55896,326
841.677002,318
841.795166,319
841.913208,313
842.031311,314
842.149353,316
842.267456,319
842.385498,307
842.503601,321
842.621643,313
842.739746,332
842.857788,308
842.97583,307
843.093933,315
843.211975,319
843.330017,311
843.44812,321
843.566101,309
843.684204,325
843.802246,311
843.920227,317
844.038269,326
844.156311,310
844.274292,317
844.392395,316
844.510376,303
844.628357,313
844.74646,316
844.864441,322
844.982422,300
845.100403,308
845.218384,316
845.336426,321
845.454468,320
845.572449,326
845.69043,319
845.808411,312
845.926453,315
846.044373,319
846.162354,312
846.280396,325
846.398315,315
846.516296,307
846.634216,326
846.752197,317
846.870178,315
846.988098,309
847.106079,323
847.22406,305
847.34198,312
847.4599,325
847.577881,313
847.695801,333
847.813782,318
847.931641,314
848.049561,306
848.167603,312
848.285461,306
848.403381,321
848.521362,322
848.639221,315
848.75708,305
848.875,318
848.99292,305
849.110901,323
849.22876,313
849.34668,314
849.464539,309
849.582458,318
849.700317,311
849.818176,306
849.936096,307
850.053955,319
850.171875,310
850.289673,313
850.407593,315
850.525452,307
850.643311,313
850.761169,311
850.878967,319
850.996887,312
851.114746,303
851.232544,314
851.350403,316
851.468262,315
851.58606,316
851.703979,315
851.821777,316
851.939636,313
852.057434,306
852.175232,324
852.293091,320
852.410889,306
852.528687,317
852.646545,316
852.764343,312
852.88208,311
852.999939,311
853.117676,312
853.235535,323
853.353271,319
853.471069,310
853.588928,312
853.706604,306
853.824402,309
853.9422,319
854.059998,320
854.177734,325
854.295532,319
854.413269,311
854.531006,331
854.648804,323
854.766541,327
854.884277,311
855.002014,325
855.119751,315
855.237549,319
855.355225,316
855.473022,320
855.590698,303
855.708435,318
855.826172,329
855.943848,306
856.061646,309
856.179321,324
856.296997,311
856.414795,319
856.53241,317
856.650085,315
856.767822,323
856.885559,326
857.003174,317
857.120911,316
857.238586,307
857.356201,309
857.473938,323
857.591614,314
857.709351,304
857.826965,320
857.944641,317
858.062317,311
858.179993,309
858.297668,317
858.415283,320
858.532959,315
858.650574,314
858.768188,312
858.885803,312
859.003479,324
859.121094,306
859.23877,321
859.356384,319
859.473999,314
859.591675,312
859.709229,321
859.826843,301
859.944458,305
860.062012,306
860.179626,314
860.297302,319
860.414856,309
860.532471,323
860.650024,326
860.767639,311
860.885193,312
861.002808,310
861.120361,324
861.237976,310
861.35553,321
861.473022,317
861.590698,316
861.708191,318
861.825745,310
861.943298,315
862.060852,304
862.178406,315
862.295959,310
862.413513,309
862.531006,325
862.64856,318
862.766113,327
862.883667,306
863.00116,316
863.118713,313
863.236206,319
863.353699,323
863.471252,309
863.588745,314
863.706177,306
863.82373,313
863.941162,311
864.058716,308
864.176208,319
864.29364,318
864.411194,314
864.528687,325
864.646118,319
864.763611,314
864.881042,317
864.998535,303
865.116028,329
865.233459,309
865.350891,309
865.468384,317
865.585754,322
865.703308,312
865.820679,321
865.938171,313
866.055542,324
866.173035,314
866.290466,335
866.407837,308
866.52533,319
866.6427,318
866.760071,322
866.877563,309
866.994934,324
867.112305,310
867.229736,317
867.347107,310
867.464539,318
867.58197,316
867.699341,324
867.81665,305
867.934082,314
868.051453,313
868.168823,305
868.286194,301
868.403564,326
868.520935,310
868.638306,317
868.755676,299
868.872986,317
868.990295,311
869.107727,320
869.225037,306
869.342346,309
869.459717,314
869.577026,320
869.694336,303
869.811707,332
869.929016,314
870.046326,318
870.163635,300
870.280945,318
870.398254,321
870.515564,305
870.632812,305
870.750183,309
870.867432,303
870.984741,317
871.102051,303
871.219299,319
871.336609,302
871.453918,327
871.571106,316
871.688416,312
871.805664,317
871.922852,314
872.040222,324
872.157471,325
872.274719,319
872.391968,317
872.509155,320
872.626465,299
872.743652,326
872.860962,330
872.978149,301
873.095337,336
873.212646,297
873.329834,308
873.44696,325
873.564209,307
873.681396,317
873.798645,307
873.915894,307
874.03302,310
874.150208,315
874.267456,332
874.384583,316
874.501831,322
874.618958,311
874.736145,312
874.853333,319
874.970459,324
875.087646,321
875.204834,308
875.32196,308
875.439148,328
875.556274,301
875.673401,316
875.790527,314
875.907715,324
876.024841,304
876.141968,311
876.259094,313
876.376282,323
876.493347,312
876.610474,322
876.7276,323
876.844727,314
876.961853,319
877.078918,316
877.195984,315
877.313171,314
877.430237,298
877.547302,324
877.664368,314
877.781433,323
877.898499,303
878.015625,329
878.13269,308
878.249695,324
878.366821,322
878.483887,318
878.600952,317
878.717957,310
878.834961,317
878.952087,322
879.069092,313
879.186157,321
879.303162,306
879.420227,318
879.537231,319
879.654236,313
879.77124,302
879.888306,321
880.005249,298
880.122314,323
880.239319,313
880.356323,329
880.473328,318
880.590271,315
880.707275,307
880.824341,327
880.941284,312
881.058228,313
881.175232,323
881.292236,317
881.40918,322
881.526123,328
881.643066,322
881.760071,325
881.877014,312
881.993958,320
882.11084,307
882.227783,323
882.344727,312
882.46167,320
882.578613,311
882.695618,307
882.812439,318
882.929382,314
883.046326,326
883.163208,320
883.280151,315
883.397034,320
883.513916,315
883.630798,326
883.747742,311
883.864563,327
883.981506,310
884.098389,326
884.21521,313
884.332153,322
884.448975,315
884.565796,317
884.682678,302
884.7995,316
884.916443,308
885.033264,329
885.150085,333
885.266968,319
885.383789,333
885.500671,316
885.617493,315
885.734314,313
885.851196,310
885.967896,323
886.084717,312
886.201599,311
886.318359,320
886.435181,315
886.552002,310
886.668762,310
886.785645,318
886.902344,315
887.019165,320
887.135925,317
887.252747,323
887.369446,314
887.486267,319
887.603027,305
887.719788,310
887.836548,338
887.953247,316
888.070068,305
888.186829,306
888.303528,318
888.420288,316
888.536987,312
888.653687,330
888.770447,313
888.887146,312
889.003967,321
889.120667,324
889.237305,307
889.354065,300
889.470703,325
889.587463,312
889.704163,315
889.820862,313
889.937561,317
890.054199,321
890.170837,313
890.287598,314
890.404236,329
890.520874,305
890.637634,325
890.754211,310
890.87085,319
890.987549,304
891.104187,290
891.220886,326
891.337463,317
891.454102,322
891.57074,317
891.687378,305
891.804077,309
891.920654,319
892.037231,316
892.15387,317
892.270447,310
892.387085,307
892.503723,315
892.6203,312
892.736877,318
892.853516,309
892.970032,329
893.08667,311
893.203186,312
893.319763,315
893.43634,306
893.552917,307
893.669556,326
893.786011,299
893.902588,318
894.019165,314
894.135681,320
894.252197,316
894.368835,313
894.485291,316
894.601868,316
894.718384,312
894.8349,320
894.951355,327
895.067932,320
895.184448,314
895.300964,322
895.417419,311
895.533936,315
895.650452,320
895.766907,320
895.883423,303
895.999878,311
896.116333,312
896.232849,325
896.349304,297
896.465759,309
896.582214,310
896.698669,319
896.815125,322
896.931641,319
897.048035,315
897.164551,322
897.280884,319
897.397339,321
897.513794,319
897.630249,304
897.746582,298
897.863098,316
897.979431,321
898.095886,311
898.212341,317
898.328674,312
898.445129,317
898.561462,316
898.677795,304
898.794312,327
898.910645,320
899.026978,317
899.143433,304
899.259766,316
899.37616,307
899.492493,315
899.608765,318
899.725159,325
899.841553,320
899.957947,311
900.07428,317
900.190552,321
900.306946,313
900.423157,312
900.53949,309
900.655884,310
900.772156,314
900.888489,318
901.004822,304
901.121033,330
901.237366,313
901.353699,317
901.46991,320
901.586304,307
901.702515,304
901.818787,328
901.93512,312
902.051331,315
902.167603,298
902.283875,319
902.400085,308
902.516418,313
902.632629,316
902.74884,321
902.865112,303
902.981384,324
903.097595,311
903.213867,328
903.330017,315
903.446289,306
903.5625,306
903.67865,319
903.794922,312
903.911072,308
904.027344,315
904.143494,322
904.259705,314
904.375916,316
904.492065,306
904.608215,327
904.724426,301
904.840576,318
904.956726,324
905.072876,314
905.189087,316
905.305176,319
905.421387,318
905.537537,324
905.653687,312
905.769775,329
905.885925,316
906.002014,319
906.118164,319
906.234314,299
906.350403,308
906.466492,312
906.582642,330
906.69873,307
906.814758,320
906.930908,312
907.046936,310
907.163086,325
907.279175,331
907.395264,325
907.511353,315
907.62738,309
907.743408,312
907.859497,324
907.975525,321
908.091553,320
908.207703,316
908.32373,325
908.439758,317
908.555786,325
908.671814,306
908.787842,323
908.90387,308
909.019775,322
909.135864,306
909.251892,317
909.367859,307
909.483826,316
909.599854,320
909.715881,305
909.831848,312
909.947815,327
910.063782,312
910.179749,325
910.295776,318
910.411743,317
910.527649,321
910.643616,319
910.759583,313
910.875488,301
910.991455,322
911.107361,323
911.223267,308
911.339294,315
911.4552,309
911.571106,323
911.687073,324
911.802979,312
911.918823,309
912.034729,324
912.150635,316
912.266602,306
912.382446,322
912.498352,328
912.614197,294
912.730103,309
912.846008,311
