792.44574,372
792.56488,381
792.68396,435
792.80304,424
792.92218,377
793.041199,350
793.160339,350
793.279419,368
793.398499,372
793.517578,339
793.636658,350
793.755737,373
793.874817,381
793.993896,366
794.112976,353
794.232056,338
794.351074,349
794.470215,347
794.589233,348
794.708313,335
794.827393,334
794.946411,366
795.065552,378
795.18457,349
795.303589,362
795.422668,334
795.541687,351
795.660767,350
795.779846,349
795.898865,336
796.017883,358
796.136963,354
796.255981,355
796.375061,344
796.49408,355
796.613037,351
796.732117,328
796.851135,342
796.970154,338
797.089233,337
797.208191,346
797.327271,347
797.446228,330
797.565186,325
797.684265,343
797.803223,338
797.922241,349
798.04126,346
798.160278,347
798.279297,326
798.398315,327
798.517273,348
798.636292,326
798.75531,342
798.874268,334
798.993286,341
799.112244,336
799.231323,333
799.350281,330
799.469238,335
799.588257,325
799.707153,342
799.826111,335
799.945129,321
800.064087,337
800.183044,342
800.302063,330
800.421021,335
800.539978,328
800.658936,317
800.777893,323
800.896912,336
801.015747,322
801.134705,339
801.253723,323
801.37262,347
801.491638,323
801.610535,329
801.729492,338
801.84845,335
801.967407,333
802.086243,333
802.205261,331
802.324158,341
802.443115,334
802.562073,337
802.680969,322
802.799927,328
802.918762,320
803.037659,330
803.156677,308
803.275574,327
803.39447,334
803.513428,320
803.632263,334
803.751221,327
803.870117,334
803.989014,326
804.107971,327
804.226746,324
804.345642,329
804.4646,336
804.583496,329
804.702393,324
804.821228,331
804.940125,320
805.059021,333
805.177917,343
805.296814,327
805.415649,326
805.534546,336
805.653442,342
805.772278,331
805.891113,344
806.01001,328
806.128906,331
806.247742,318
806.366577,329
806.485413,334
806.604309,316
806.723145,319
806.84198,329
806.960876,340
807.079712,322
807.198486,329
807.317383,315
807.436218,326
807.554993,327
807.673889,327
807.792725,322
807.91156,328
808.030396,329
808.14917,319
808.268005,338
808.386841,325
808.505676,338
808.624451,319
808.743286,336
808.862122,323
808.980896,325
809.099731,339
809.218506,318
809.337341,327
809.456116,326
809.57489,329
809.693726,341
809.8125,328
809.931274,328
810.050049,318
810.168884,326
810.287659,334
810.406372,333
810.525269,326
810.643982,333
810.762756,319
810.881531,332
811.000305,325
811.11908,333
811.237854,318
811.356567,331
811.475403,327
811.594116,329
811.71283,328
811.831604,324
811.950378,316
812.069153,321
812.187927,325
812.30658,333
812.425415,327
812.544128,328
812.662781,335
812.781616,318
812.900269,315
813.019043,329
813.137756,334
813.256531,326
813.375244,319
813.493896,338
813.612671,306
813.731384,336
813.850037,309
813.96875,327
814.087524,314
814.206238,314
814.324951,323
814.443604,316
814.562256,327
814.68103,322
814.799683,325
814.918335,330
815.037109,314
815.155762,345
815.274475,319
815.393188,334
815.511841,329
815.630554,316
815.749146,328
815.867859,318
815.986572,329
816.105164,321
816.223877,316
816.342529,326
816.461182,333
816.579895,318
816.698486,312
816.817139,321
816.935791,326
817.054504,338
817.173096,329
817.291748,340
817.4104,320
817.529053,317
817.647644,321
817.766235,318
817.884949,321
818.00354,323
818.122192,317
818.240845,326
818.359436,330
818.478088,341
818.59668,334
818.715271,332
818.833923,335
818.952515,320
819.071106,315
819.189758,337
819.30835,321
819.426941,334
819.545532,313
819.664124,332
819.782715,316
819.901306,328
820.019897,316
820.138489,317
820.25708,327
820.375671,332
820.494202,323
820.612732,320
820.731384,336
820.849915,325
820.968506,333
821.087097,324
821.205627,320
821.324158,316
821.442749,316
821.561279,320
821.679871,325
821.798401,330
821.916931,332
822.035461,328
822.154053,329
822.272583,328
822.391174,309
822.509583,309
822.628174,322
822.746704,318
822.865234,321
822.983765,334
823.102295,320
823.220825,332
823.339294,331
823.457825,319
823.576355,309
823.694824,328
823.813354,330
823.931885,319
824.050354,314
824.168884,327
824.287354,328
824.405823,332
824.524353,319
824.642822,318
824.761353,323
824.879822,320
824.998291,319
825.116699,319
825.235291,332
825.353699,318
825.472168,321
825.590637,321
825.709106,326
825.827576,339
825.946045,323
826.064453,319
826.182983,326
826.301392,332
826.4198,319
826.53833,322
826.656738,322
826.775208,329
826.893677,314
827.012024,319
827.130493,323
827.248962,322
827.36731,318
827.485779,317
827.604248,328
827.722595,334
827.841064,301
827.959412,326
828.077942,333
828.196289,307
828.314636,326
828.433105,327
828.551514,320
828.669861,315
828.78833,329
828.906677,317
829.025085,311
829.143433,317
829.261841,322
829.38031,310
829.498657,322
829.617004,325
829.735413,321
829.85376,317
829.972107,302
830.090515,316
830.208862,315
830.327209,325
830.445557,313
830.563904,315
830.682312,314
830.800659,319
830.919006,316
831.037354,325
831.155701,324
831.274048,326
831.392395,331
831.51062,316
831.629028,317
831.747314,331
831.865662,325
831.984009,316
832.102356,313
832.220642,314
832.338928,319
832.457275,324
832.575623,315
832.693909,321
832.812134,307
832.930481,317
833.048828,324
833.167114,332
833.2854,303
833.403687,326
833.521973,307
833.640259,321
833.758545,316
833.876831,315
833.995056,330
834.113281,318
834.231628,334
834.349915,325
834.468201,324
834.586426,321
834.704651,312
834.822998,315
834.941162,311
835.059448,314
835.177673,324
835.295959,321
835.414246,315
835.53241,315
835.650635,314
835.768921,323
835.887146,326
836.005371,330
836.123596,318
836.241821,310
836.360046,319
836.478271,320
836.596497,328
836.714722,320
836.832886,325
836.95105,321
837.069336,324
837.1875,316
837.305725,322
837.423889,320
837.542053,330
837.660339,329
837.778503,320
837.896667,322
838.014832,328
838.132996,317
838.25116,319
838.369385,319
838.487488,311
838.605713,321
838.723877,322
838.84198,325
838.960205,329
839.078308,320
839.196472,312
839.314636,324
839.4328,327
839.550964,304
839.669067,320
839.787231,322
839.905396,310
840.023499,317
840.141602,309
840.259766,324
840.377869,319
840.495972,334
840.614136,320
840.732239,328
840.850342,309
840.968445,325
841.086548,310
841.204651,329
841.322754,318
841.440918,334
841.55896,314
841.677002,321
841.795166,325
841.913208,329
842.031311,331
842.149353,326
842.267456,316
842.385498,342
842.503601,322
842.621643,332
842.739746,312
842.857788,317
842.97583,325
843.093933,325
843.211975,310
843.330017,315
843.44812,325
843.566101,317
843.684204,333
843.802246,322
843.920227,316
844.038269,322
844.156311,327
844.274292,323
844.392395,312
844.510376,326
844.628357,321
844.74646,332
844.864441,325
844.982422,328
845.100403,323
845.218384,320
845.336426,323
845.454468,319
845.572449,321
845.69043,316
845.808411,312
845.926453,331
846.044373,323
846.162354,314
846.280396,330
846.398315,319
846.516296,320
846.634216,319
846.752197,311
846.870178,322
846.988098,323
847.106079,330
847.22406,324
847.34198,313
847.4599,331
847.577881,319
847.695801,327
847.813782,322
847.931641,331
848.049561,336
848.167603,329
848.285461,313
848.403381,331
848.521362,333
848.639221,320
848.75708,324
848.875,330
848.99292,323
849.110901,331
849.22876,331
849.34668,322
849.464539,321
849.582458,317
849.700317,320
849.818176,321
849.936096,325
850.053955,335
850.171875,327
850.289673,324
850.407593,314
850.525452,319
850.643311,324
850.761169,306
850.878967,318
850.996887,327
851.114746,323
851.232544,321
851.350403,319
851.468262,319
851.58606,319
851.703979,315
851.821777,321
851.939636,319
852.057434,328
852.175232,327
852.293091,323
852.410889,331
852.528687,327
852.646545,328
852.764343,335
852.88208,334
852.999939,312
853.117676,328
853.235535,311
853.353271,319
853.471069,311
853.588928,315
853.706604,321
853.824402,308
853.9422,321
854.059998,307
854.177734,318
854.295532,328
854.413269,333
854.531006,319
854.648804,309
854.766541,332
854.884277,326
855.002014,321
855.119751,307
855.237549,315
855.355225,312
855.473022,318
855.590698,319
855.708435,331
855.826172,316
855.943848,331
856.061646,329
856.179321,325
856.296997,317
856.414795,326
856.53241,318
856.650085,325
856.767822,325
856.885559,339
857.003174,320
857.120911,328
857.238586,329
857.356201,310
857.473938,325
857.591614,318
857.709351,324
857.826965,320
857.944641,316
858.062317,323
858.179993,325
858.297668,324
858.415283,320
858.532959,323
858.650574,324
858.768188,323
858.885803,326
859.003479,321
859.121094,318
859.23877,330
859.356384,329
859.473999,315
859.591675,325
859.709229,333
859.826843,320
859.944458,321
860.062012,318
860.179626,327
860.297302,325
860.414856,335
860.532471,334
860.650024,326
860.767639,329
860.885193,331
861.002808,318
861.120361,315
861.237976,321
861.35553,325
861.473022,321
861.590698,328
861.708191,323
861.825745,319
861.943298,322
862.060852,317
862.178406,329
862.295959,316
862.413513,333
862.531006,320
862.64856,321
862.766113,314
862.883667,316
863.00116,317
863.118713,311
863.236206,312
863.353699,331
863.471252,318
863.588745,331
863.706177,307
863.82373,310
863.941162,326
864.058716,330
864.176208,325
864.29364,318
864.411194,326
864.528687,330
864.646118,318
864.763611,324
864.881042,324
864.998535,318
865.116028,336
865.233459,337
865.350891,329
865.468384,324
865.585754,319
865.703308,336
865.820679,319
865.938171,318
866.055542,316
866.173035,323
866.290466,329
866.407837,317
866.52533,317
866.6427,320
866.760071,317
866.877563,325
866.994934,321
867.112305,326
867.229736,308
867.347107,318
867.464539,325
867.58197,325
867.699341,322
867.81665,322
867.934082,314
868.051453,320
868.168823,330
868.286194,328
868.403564,307
868.520935,328
868.638306,314
868.755676,331
868.872986,331
868.990295,332
869.107727,323
869.225037,320
869.342346,327
869.459717,321
869.577026,321
869.694336,324
869.811707,321
869.929016,310
870.046326,316
870.163635,336
870.280945,329
870.398254,318
870.515564,321
870.632812,329
870.750183,314
870.867432,328
870.984741,328
871.102051,327
871.219299,326
871.336609,309
871.453918,329
871.571106,335
871.688416,326
871.805664,333
871.922852,319
872.040222,327
872.157471,342
872.274719,315
872.391968,325
872.509155,324
872.626465,326
872.743652,330
872.860962,310
872.978149,322
873.095337,328
873.212646,331
873.329834,330
873.44696,335
873.564209,323
873.681396,325
873.798645,312
873.915894,319
874.03302,313
874.150208,332
874.267456,334
874.384583,321
874.501831,332
874.618958,327
874.736145,327
874.853333,307
874.970459,321
875.087646,330
875.204834,326
875.32196,330
875.439148,321
875.556274,321
875.673401,338
875.790527,336
875.907715,326
876.024841,323
876.141968,330
876.259094,324
876.376282,324
876.493347,335
876.610474,312
876.7276,318
876.844727,313
876.961853,322
877.078918,317
877.195984,317
877.313171,319
877.430237,331
877.547302,330
877.664368,319
877.781433,309
877.898499,321
878.015625,335
878.13269,328
878.249695,329
878.366821,326
878.483887,331
878.600952,321
878.717957,318
878.834961,314
878.952087,315
879.069092,324
879.186157,314
879.303162,320
879.420227,320
879.537231,321
879.654236,326
879.77124,317
879.888306,323
880.005249,328
880.122314,320
880.239319,318
880.356323,307
880.473328,333
880.590271,307
880.707275,320
880.824341,313
880.941284,322
881.058228,308
881.175232,337
881.292236,318
881.40918,318
881.526123,314
881.643066,312
881.760071,320
881.877014,319
881.993958,326
882.11084,317
882.227783,307
882.344727,333
882.46167,325
882.578613,315
882.695618,317
882.812439,329
882.929382,332
883.046326,323
883.163208,298
883.280151,330
883.397034,324
883.513916,325
883.630798,318
883.747742,322
883.864563,321
883.981506,333
884.098389,319
884.21521,324
884.332153,309
884.448975,318
884.565796,320
884.682678,315
884.7995,317
884.916443,326
885.033264,331
885.150085,315
885.266968,344
885.383789,318
885.500671,326
885.617493,329
885.734314,324
885.851196,337
885.967896,316
886.084717,342
886.201599,322
886.318359,331
886.435181,335
886.552002,333
886.668762,323
886.785645,328
886.902344,315
887.019165,328
887.135925,315
887.252747,322
887.369446,332
887.486267,319
887.603027,328
887.719788,331
887.836548,315
887.953247,332
888.070068,325
888.186829,323
888.303528,308
888.420288,332
888.536987,324
888.653687,316
888.770447,322
888.887146,324
889.003967,313
889.120667,318
889.237305,320
889.354065,326
889.470703,326
889.587463,325
889.704163,320
889.820862,306
889.937561,320
890.054199,324
890.170837,324
890.287598,320
890.404236,312
890.520874,323
890.637634,330
890.754211,321
890.87085,322
890.987549,329
891.104187,315
891.220886,320
891.337463,320
891.454102,325
891.57074,316
891.687378,323
891.804077,305
891.920654,319
892.037231,329
892.15387,312
892.270447,331
892.387085,321
892.503723,322
892.6203,337
892.736877,322
892.853516,331
892.970032,322
893.08667,323
893.203186,316
893.319763,325
893.43634,312
893.552917,332
893.669556,305
893.786011,319
893.902588,320
894.019165,343
894.135681,316
894.252197,323
894.368835,308
894.485291,320
894.601868,320
894.718384,332
894.8349,324
894.951355,327
895.067932,320
895.184448,323
895.300964,318
895.417419,335
895.533936,308
895.650452,315
895.766907,315
895.883423,322
895.999878,320
896.116333,312
896.232849,295
896.349304,334
896.465759,315
896.582214,329
896.698669,324
896.815125,331
896.931641,331
897.048035,327
897.164551,326
897.280884,319
897.397339,296
897.513794,309
897.630249,321
897.746582,320
897.863098,328
897.979431,313
898.095886,325
898.212341,319
898.328674,314
898.445129,317
898.561462,299
898.677795,317
898.794312,322
898.910645,311
899.026978,321
899.143433,323
899.259766,321
899.37616,310
899.492493,315
899.608765,318
899.725159,310
899.841553,319
899.957947,311
900.07428,328
900.190552,321
900.306946,336
900.423157,328
900.53949,309
900.655884,320
900.772156,314
900.888489,326
901.004822,324
901.121033,312
901.237366,315
901.353699,326
901.46991,320
901.586304,316
901.702515,322
901.818787,312
901.93512,323
902.051331,325
902.167603,318
902.283875,316
902.400085,321
902.516418,311
902.632629,318
902.74884,341
902.865112,320
902.981384,328
903.097595,323
903.213867,334
903.330017,323
903.446289,336
903.5625,332
903.67865,322
903.794922,321
903.911072,329
904.027344,327
904.143494,323
904.259705,313
904.375916,336
904.492065,325
904.608215,310
904.724426,313
904.840576,318
904.956726,341
905.072876,313
905.189087,316
905.305176,319
905.421387,317
905.537537,319
905.653687,322
905.769775,321
905.885925,323
906.002014,325
906.118164,335
906.234314,309
906.350403,312
906.466492,325
906.582642,315
906.69873,320
906.814758,314
906.930908,316
907.046936,314
907.163086,315
907.279175,316
907.395264,308
907.511353,329
907.62738,312
907.743408,329
907.859497,313
907.975525,312
908.091553,316
908.207703,320
908.32373,326
908.439758,318
908.555786,315
908.671814,333
908.787842,319
908.90387,315
909.019775,323
909.135864,323
909.251892,325
909.367859,315
909.483826,313
909.599854,315
909.715881,318
909.831848,328
909.947815,320
910.063782,314
910.179749,322
910.295776,317
910.411743,327
910.527649,311
910.643616,308
910.759583,307
910.875488,321
910.991455,329
911.107361,309
911.223267,323
911.339294,306
911.4552,315
911.571106,317
911.687073,316
911.802979,315
911.918823,333
912.034729,324
912.150635,321
912.266602,320
912.382446,324
912.498352,308
912.614197,306
912.730103,317
912.846008,327
792.44574,364
792.56488,410
792.68396,429
792.80304,425
792.92218,366
793.041199,342
793.160339,355
793.279419,366
793.398499,350
793.517578,334
793.636658,367
793.755737,365
793.874817,368
793.993896,371
794.112976,360
794.232056,353
794.351074,334
794.470215,357
794.589233,348
794.708313,337
794.827393,341
794.946411,339
795.065552,364
795.18457,364
795.303589,351
795.422668,352
795.541687,346
795.660767,330
795.779846,343
795.898865,344
796.017883,349
796.136963,354
796.255981,344
796.375061,320
796.49408,349
796.613037,336
796.732117,340
796.851135,331
796.970154,349
797.089233,339
797.208191,343
797.327271,328
797.446228,329
797.565186,347
797.684265,341
797.803223,337
797.922241,332
798.04126,340
798.160278,324
798.279297,339
798.398315,340
798.517273,332
798.636292,349
798.75531,330
798.874268,348
798.993286,326
799.112244,343
799.231323,343
799.350281,343
799.469238,331
799.588257,337
799.707153,350
799.826111,331
799.945129,334
800.064087,336
800.183044,322
800.302063,337
800.421021,325
800.539978,329
800.658936,335
800.777893,335
800.896912,331
801.015747,330
801.134705,332
801.253723,324
801.37262,327
801.491638,340
801.610535,337
801.729492,325
801.84845,326
801.967407,329
802.086243,318
802.205261,325
802.324158,337
802.443115,333
802.562073,331
802.680969,326
802.799927,341
802.918762,326
803.037659,339
803.156677,326
803.275574,324
803.39447,329
803.513428,323
803.632263,327
803.751221,328
803.870117,323
803.989014,323
804.107971,331
804.226746,328
804.345642,323
804.4646,341
804.583496,330
804.702393,324
804.821228,335
804.940125,329
805.059021,331
805.177917,321
805.296814,338
805.415649,322
805.534546,325
805.653442,319
805.772278,338
805.891113,341
806.01001,337
806.128906,314
806.247742,311
806.366577,318
806.485413,326
806.604309,328
806.723145,322
806.84198,323
806.960876,316
807.079712,317
807.198486,334
807.317383,333
807.436218,318
807.554993,323
807.673889,328
807.792725,325
807.91156,330
808.030396,332
808.14917,319
808.268005,324
808.386841,317
808.505676,332
808.624451,326
808.743286,319
808.862122,329
808.980896,316
809.099731,325
809.218506,332
809.337341,322
809.456116,328
809.57489,319
809.693726,328
809.8125,315
809.931274,338
810.050049,311
810.168884,333
810.287659,318
810.406372,351
810.525269,335
810.643982,322
810.762756,332
810.881531,320
811.000305,325
811.11908,331
811.237854,320
811.356567,326
811.475403,315
811.594116,325
811.71283,308
811.831604,321
811.950378,328
812.069153,332
812.187927,315
812.30658,317
812.425415,328
812.544128,316
812.662781,330
812.781616,331
812.900269,338
813.019043,315
813.137756,328
813.256531,320
813.375244,329
813.493896,318
813.612671,318
813.731384,334
813.850037,327
813.96875,315
814.087524,321
814.206238,304
814.324951,319
814.443604,335
814.562256,320
814.68103,316
814.799683,327
814.918335,331
815.037109,305
815.155762,326
815.274475,325
815.393188,318
815.511841,326
815.630554,318
815.749146,326
815.867859,335
815.986572,317
816.105164,317
816.223877,311
816.342529,334
816.461182,318
816.579895,313
816.698486,319
816.817139,321
816.935791,325
817.054504,325
817.173096,324
817.291748,326
817.4104,317
817.529053,319
817.647644,324
817.766235,319
817.884949,330
818.00354,327
818.122192,327
818.240845,315
818.359436,329
818.478088,317
818.59668,326
818.715271,327
818.833923,334
818.952515,329
819.071106,312
819.189758,315
819.30835,317
819.426941,329
819.545532,321
819.664124,318
819.782715,330
819.901306,330
820.019897,320
820.138489,322
820.25708,319
820.375671,320
820.494202,310
820.612732,313
820.731384,320
820.849915,317
820.968506,324
821.087097,326
821.205627,311
821.324158,306
821.442749,330
821.561279,313
821.679871,326
821.798401,328
821.916931,317
822.035461,320
822.154053,308
822.272583,336
822.391174,318
822.509583,329
822.628174,311
822.746704,315
822.865234,331
822.983765,322
823.102295,314
823.220825,318
823.339294,317
823.457825,300
823.576355,319
823.694824,318
823.813354,325
823.931885,307
824.050354,306
824.168884,313
824.287354,312
824.405823,304
824.524353,312
824.642822,311
824.761353,309
824.879822,321
824.998291,322
825.116699,326
825.235291,340
825.353699,312
825.472168,311
825.590637,307
825.709106,308
825.827576,319
825.946045,320
826.064453,321
826.182983,319
826.301392,315
826.4198,323
826.53833,313
826.656738,307
826.775208,308
826.893677,313
827.012024,323
827.130493,319
827.248962,320
827.36731,336
827.485779,331
827.604248,324
827.722595,312
827.841064,324
827.959412,320
828.077942,322
828.196289,324
828.314636,316
828.433105,316
828.551514,319
828.669861,310
828.78833,327
828.906677,314
829.025085,319
829.143433,323
829.261841,325
829.38031,312
829.498657,306
829.617004,327
829.735413,324
829.85376,321
829.972107,310
830.090515,323
830.208862,327
830.327209,315
830.445557,323
830.563904,316
830.682312,306
830.800659,303
830.919006,318
831.037354,319
831.155701,330
831.274048,312
831.392395,314
831.51062,316
831.629028,314
831.747314,313
831.865662,313
831.984009,318
832.102356,321
832.220642,311
832.338928,311
832.457275,318
832.575623,313
832.693909,321
832.812134,315
832.930481,323
833.048828,336
833.167114,309
833.2854,321
833.403687,310
833.521973,330
833.640259,323
833.758545,321
833.876831,316
833.995056,313
834.113281,322
834.231628,334
834.349915,320
834.468201,319
834.586426,329
834.704651,304
834.822998,324
834.941162,314
835.059448,314
835.177673,312
835.295959,318
835.414246,321
835.53241,332
835.650635,324
835.768921,314
835.887146,311
836.005371,323
836.123596,322
836.241821,324
836.360046,304
836.478271,325
836.596497,318
836.714722,316
836.832886,320
836.95105,324
837.069336,319
837.1875,321
837.305725,320
837.423889,313
837.542053,317
837.660339,316
837.778503,319
837.896667,320
838.014832,312
838.132996,330
838.25116,322
838.369385,317
838.487488,331
838.605713,327
838.723877,316
838.84198,322
838.960205,315
839.078308,315
839.196472,316
839.314636,326
839.4328,319
839.550964,316
839.669067,318
839.787231,321
839.905396,313
840.023499,323
840.141602,309
840.259766,328
840.377869,324
840.495972,317
840.614136,327
840.732239,337
840.850342,309
840.968445,327
841.086548,323
841.204651,304
841.322754,326
841.440918,329
841.55896,315
841.677002,322
841.795166,330
841.913208,316
842.031311,315
842.149353,328
842.267456,306
842.385498,323
842.503601,320
842.621643,319
842.739746,325
842.857788,328
842.97583,317
843.093933,324
843.211975,309
843.330017,331
843.44812,305
843.566101,330
843.684204,318
843.802246,315
843.920227,328
844.038269,317
844.156311,317
844.274292,326
844.392395,317
844.510376,321
844.628357,315
844.74646,329
844.864441,319
844.982422,308
845.100403,319
845.218384,333
845.336426,307
845.454468,323
845.572449,309
845.69043,317
845.808411,317
845.926453,314
846.044373,308
846.162354,330
846.280396,333
846.398315,322
846.516296,314
846.634216,338
846.752197,303
846.870178,318
846.988098,315
847.106079,321
847.22406,335
847.34198,324
847.4599,331
847.577881,299
847.695801,324
847.813782,316
847.931641,312
848.049561,321
848.167603,308
848.285461,322
848.403381,331
848.521362,318
848.639221,315
848.75708,329
848.875,317
848.99292,323
849.110901,319
849.22876,318
849.34668,326
849.464539,322
849.582458,316
849.700317,321
849.818176,325
849.936096,318
850.053955,316
850.171875,316
850.289673,320
850.407593,333
850.525452,312
850.643311,315
850.761169,310
850.878967,323
850.996887,337
851.114746,318
851.232544,327
851.350403,313
851.468262,321
851.58606,324
851.703979,320
851.821777,322
851.939636,323
852.057434,326
852.175232,326
852.293091,331
852.410889,318
852.528687,324
852.646545,321
852.764343,327
852.88208,315
852.999939,325
853.117676,333
853.235535,313
853.353271,319
853.471069,324
853.588928,312
853.706604,318
853.824402,328
853.9422,332
854.059998,321
854.177734,321
854.295532,319
854.413269,326
854.531006,321
854.648804,303
854.766541,320
854.884277,328
855.002014,314
855.119751,320
855.237549,311
855.355225,329
855.473022,323
855.590698,329
855.708435,308
855.826172,316
855.943848,311
856.061646,318
856.179321,317
856.296997,329
856.414795,338
856.53241,313
856.650085,315
856.767822,316
856.885559,306
857.003174,321
857.120911,329
857.238586,333
857.356201,323
857.473938,323
857.591614,318
857.709351,324
857.826965,332
857.944641,312
858.062317,321
858.179993,316
858.297668,325
858.415283,321
858.532959,310
858.650574,325
858.768188,320
858.885803,332
859.003479,318
859.121094,325
859.23877,321
859.356384,320
859.473999,331
859.591675,331
859.709229,333
859.826843,330
859.944458,310
860.062012,330
860.179626,329
860.297302,324
860.414856,321
860.532471,318
860.650024,326
860.767639,309
860.885193,317
861.002808,320
861.120361,313
861.237976,321
861.35553,320
861.473022,329
861.590698,314
861.708191,325
861.825745,330
861.943298,317
862.060852,312
862.178406,317
862.295959,321
862.413513,329
862.531006,318
862.64856,321
862.766113,321
862.883667,319
863.00116,314
863.118713,333
863.236206,317
863.353699,323
863.471252,318
863.588745,322
863.706177,320
863.82373,326
863.941162,308
864.058716,334
864.176208,315
864.29364,314
864.411194,316
864.528687,313
864.646118,325
864.763611,333
864.881042,324
864.998535,321
865.116028,316
865.233459,320
865.350891,315
865.468384,317
865.585754,325
865.703308,335
865.820679,302
865.938171,328
866.055542,320
866.173035,318
866.290466,309
866.407837,321
866.52533,311
866.6427,313
866.760071,309
866.877563,312
866.994934,323
867.112305,328
867.229736,315
867.347107,323
867.464539,318
867.58197,322
867.699341,324
867.81665,332
867.934082,311
868.051453,318
868.168823,328
868.286194,340
868.403564,315
868.520935,320
868.638306,334
868.755676,320
868.872986,335
868.990295,321
869.107727,326
869.225037,315
869.342346,321
869.459717,320
869.577026,316
869.694336,319
869.811707,328
869.929016,309
870.046326,314
870.163635,331
870.280945,327
870.398254,325
870.515564,319
870.632812,330
870.750183,321
870.867432,318
870.984741,326
871.102051,323
871.219299,332
871.336609,312
871.453918,313
871.571106,341
871.688416,319
871.805664,317
871.922852,316
872.040222,326
872.157471,330
872.274719,325
872.391968,331
872.509155,328
872.626465,314
872.743652,329
872.860962,324
872.978149,324
873.095337,334
873.212646,329
873.329834,318
873.44696,329
873.564209,318
873.681396,325
873.798645,317
873.915894,312
874.03302,319
874.150208,332
874.267456,314
874.384583,328
874.501831,319
874.618958,338
874.736145,343
874.853333,339
874.970459,327
875.087646,328
875.204834,323
875.32196,321
875.439148,320
875.556274,333
875.673401,327
875.790527,329
875.907715,323
876.024841,310
876.141968,332
876.259094,319
876.376282,314
876.493347,329
876.610474,316
876.7276,316
876.844727,321
876.961853,303
877.078918,327
877.195984,330
877.313171,318
877.430237,333
877.547302,311
877.664368,317
877.781433,328
877.898499,314
878.015625,323
878.13269,316
878.249695,326
878.366821,316
878.483887,310
878.600952,318
878.717957,313
878.834961,321
878.952087,321
879.069092,318
879.186157,322
879.303162,319
879.420227,324
879.537231,319
879.654236,308
879.77124,321
879.888306,324
880.005249,325
880.122314,321
880.239319,324
880.356323,324
880.473328,333
880.590271,307
880.707275,323
880.824341,309
880.941284,324
881.058228,315
881.175232,324
881.292236,326
881.40918,318
881.526123,322
881.643066,318
881.760071,323
881.877014,332
881.993958,315
882.11084,312
882.227783,323
882.344727,325
882.46167,311
882.578613,327
882.695618,317
882.812439,322
882.929382,320
883.046326,326
883.163208,318
883.280151,322
883.397034,314
883.513916,317
883.630798,339
883.747742,328
883.864563,311
883.981506,309
884.098389,334
884.21521,317
884.332153,307
884.448975,330
884.565796,323
884.682678,334
884.7995,316
884.916443,337
885.033264,320
885.150085,328
885.266968,333
885.383789,330
885.500671,316
885.617493,341
885.734314,326
885.851196,344
885.967896,330
886.084717,322
886.201599,325
886.318359,333
886.435181,327
886.552002,329
886.668762,321
886.785645,311
886.902344,314
887.019165,315
887.135925,329
887.252747,329
887.369446,325
887.486267,325
887.603027,322
887.719788,329
887.836548,329
887.953247,315
888.070068,322
888.186829,331
888.303528,314
888.420288,324
888.536987,320
888.653687,322
888.770447,328
888.887146,320
889.003967,317
889.120667,320
889.237305,322
889.354065,335
889.470703,312
889.587463,317
889.704163,302
889.820862,315
889.937561,312
890.054199,325
890.170837,314
890.287598,318
890.404236,314
890.520874,313
890.637634,314
890.754211,316
890.87085,329
890.987549,331
891.104187,308
891.220886,327
891.337463,324
891.454102,312
891.57074,324
891.687378,323
891.804077,308
891.920654,308
892.037231,315
892.15387,334
892.270447,314
892.387085,322
892.503723,309
892.6203,324
892.736877,303
892.853516,333
892.970032,304
893.08667,332
893.203186,312
893.319763,316
893.43634,315
893.552917,310
893.669556,327
893.786011,321
893.902588,301
894.019165,319
894.135681,322
894.252197,314
894.368835,310
894.485291,315
894.601868,330
894.718384,325
894.8349,313
894.951355,313
895.067932,325
895.184448,323
895.300964,319
895.417419,308
895.533936,318
895.650452,312
895.766907,309
895.883423,318
895.999878,304
896.116333,318
896.232849,306
896.349304,326
896.465759,313
896.582214,330
896.698669,315
896.815125,326
896.931641,310
897.048035,315
897.164551,317
897.280884,307
897.397339,314
897.513794,321
897.630249,312
897.746582,320
897.863098,308
897.979431,309
898.095886,323
898.212341,311
898.328674,325
898.445129,312
898.561462,315
898.677795,339
898.794312,321
898.910645,329
899.026978,325
899.143433,325
899.259766,327
899.37616,317
899.492493,323
899.608765,321
899.725159,309
899.841553,321
899.957947,318
900.07428,320
900.190552,318
900.306946,312
900.423157,314
900.53949,328
900.655884,317
900.772156,315
900.888489,310
901.004822,327
901.121033,323
901.237366,316
901.353699,303
901.46991,321
901.586304,314
901.702515,322
901.818787,317
901.93512,327
902.051331,316
902.167603,309
902.283875,315
902.400085,309
902.516418,329
902.632629,319
902.74884,334
902.865112,341
902.981384,320
903.097595,338
903.213867,321
903.330017,330
903.446289,321
903.5625,327
903.67865,321
903.794922,323
903.911072,324
904.027344,317
904.143494,320
904.259705,322
904.375916,315
904.492065,320
904.608215,315
904.724426,327
904.840576,333
904.956726,321
905.072876,325
905.189087,316
905.305176,304
905.421387,309
905.537537,310
905.653687,315
905.769775,308
905.885925,317
906.002014,312
906.118164,306
906.234314,325
906.350403,321
906.466492,307
906.582642,314
906.69873,312
906.814758,321
906.930908,321
907.046936,323
907.163086,311
907.279175,305
907.395264,322
907.511353,307
907.62738,320
907.743408,310
907.859497,312
907.975525,306
908.091553,317
908.207703,308
908.32373,308
908.439758,316
908.555786,326
908.671814,323
908.787842,318
908.90387,319
909.019775,323
909.135864,314
909.251892,317
909.367859,322
909.483826,320
909.599854,311
909.715881,309
909.831848,327
909.947815,303
910.063782,316
910.179749,319
910.295776,319
910.411743,314
910.527649,316
910.643616,329
910.759583,322
910.875488,309
910.991455,322
911.107361,309
911.223267,310
911.339294,311
911.4552,325
911.571106,318
911.687073,310
911.802979,317
911.918823,311
912.034729,313
912.150635,313
912.266602,314
912.382446,319
912.498352,305
912.614197,316
912.730103,310
912.846008,317
792.44574,366
792.56488,397
792.68396,431
792.80304,414
792.92218,374
793.041199,357
793.160339,343
793.279419,355
793.398499,358
793.517578,355
793.636658,348
793.755737,366
793.874817,375
793.993896,382
794.112976,356
794.232056,351
794.351074,332
794.470215,361
794.589233,334
794.708313,350
794.827393,332
794.946411,358
795.065552,353
795.18457,353
795.303589,344
795.422668,346
795.541687,360
795.660767,346
795.779846,334
795.898865,334
796.017883,345
796.136963,341
796.255981,348
796.375061,343
796.49408,331
796.613037,333
796.732117,333
796.851135,336
796.970154,341
797.089233,340
797.208191,337
797.327271,334
797.446228,344
797.565186,338
797.684265,341
797.803223,333
797.922241,338
798.04126,316
798.160278,346
798.279297,338
798.398315,334
798.517273,328
798.636292,329
798.75531,339
798.874268,330
798.993286,338
799.112244,336
799.231323,343
799.350281,347
799.469238,329
799.588257,333
799.707153,329
799.826111,330
799.945129,327
800.064087,333
800.183044,327
800.302063,320
800.421021,335
800.539978,333
800.658936,332
800.777893,340
800.896912,335
801.015747,335
801.134705,325
801.253723,334
801.37262,333
801.491638,324
801.610535,315
801.729492,328
801.84845,334
801.967407,338
802.086243,320
802.205261,333
802.324158,341
802.443115,325
802.562073,326
802.680969,335
802.799927,327
802.918762,327
803.037659,319
803.156677,341
803.275574,327
803.39447,337
803.513428,320
803.632263,327
803.751221,326
803.870117,331
803.989014,314
804.107971,313
804.226746,323
804.345642,336
804.4646,311
804.583496,335
804.702393,323
804.821228,327
804.940125,325
805.059021,335
805.177917,321
805.296814,327
805.415649,322
805.534546,323
805.653442,334
805.772278,332
805.891113,322
806.01001,320
806.128906,332
806.247742,333
806.366577,318
806.485413,329
806.604309,322
806.723145,321
806.84198,312
806.960876,310
807.079712,328
807.198486,331
807.317383,341
807.436218,328
807.554993,317
807.673889,331
807.792725,321
807.91156,306
808.030396,320
808.14917,337
808.268005,334
808.386841,318
808.505676,325
808.624451,326
808.743286,332
808.862122,315
808.980896,325
809.099731,319
809.218506,338
809.337341,331
809.456116,319
809.57489,315
809.693726,316
809.8125,322
809.931274,338
810.050049,331
810.168884,323
810.287659,323
810.406372,341
810.525269,322
810.643982,329
810.762756,327
810.881531,325
811.000305,317
811.11908,320
811.237854,322
811.356567,323
811.475403,320
811.594116,331
811.71283,328
811.831604,311
811.950378,340
812.069153,323
812.187927,325
812.30658,316
812.425415,329
812.544128,315
812.662781,331
812.781616,314
812.900269,326
813.019043,327
813.137756,327
813.256531,320
813.375244,336
813.493896,323
813.612671,333
813.731384,316
813.850037,328
813.96875,325
814.087524,312
814.206238,322
814.324951,331
814.443604,316
814.562256,322
814.68103,320
814.799683,325
814.918335,311
815.037109,324
815.155762,314
815.274475,321
815.393188,334
815.511841,314
815.630554,337
815.749146,316
815.867859,314
815.986572,323
816.105164,321
816.223877,325
816.342529,318
816.461182,323
816.579895,323
816.698486,320
816.817139,324
816.935791,329
817.054504,321
817.173096,326
817.291748,313
817.4104,315
817.529053,336
817.647644,314
817.766235,330
817.884949,318
818.00354,321
818.122192,319
818.240845,319
818.359436,318
818.478088,329
818.59668,321
818.715271,331
818.833923,324
818.952515,315
819.071106,317
819.189758,324
819.30835,321
819.426941,325
819.545532,320
819.664124,313
819.782715,322
819.901306,321
820.019897,328
820.138489,336
820.25708,320
820.375671,320
820.494202,320
820.612732,307
820.731384,329
820.849915,327
820.968506,326
821.087097,320
821.205627,320
821.324158,327
821.442749,316
821.561279,310
821.679871,329
821.798401,311
821.916931,318
822.035461,312
822.154053,320
822.272583,320
822.391174,321
822.509583,318
822.628174,315
822.746704,317
822.865234,327
822.983765,316
823.102295,325
823.220825,326
823.339294,328
823.457825,319
823.576355,308
823.694824,302
823.813354,320
823.931885,316
824.050354,322
824.168884,308
824.287354,314
824.405823,323
824.524353,330
824.642822,322
824.761353,330
824.879822,313
824.998291,324
825.116699,321
825.235291,306
825.353699,313
825.472168,319
825.590637,315
825.709106,309
825.827576,318
825.946045,316
826.064453,325
826.182983,319
826.301392,318
826.4198,313
826.53833,323
826.656738,313
826.775208,322
826.893677,320
827.012024,320
827.130493,310
827.248962,322
827.36731,322
827.485779,309
827.604248,327
827.722595,306
827.841064,319
827.959412,303
828.077942,334
828.196289,317
828.314636,318
828.433105,318
828.551514,311
828.669861,317
828.78833,326
828.906677,309
829.025085,317
829.143433,314
829.261841,319
829.38031,322
829.498657,314
829.617004,328
829.735413,317
829.85376,306
829.972107,316
830.090515,307
830.208862,322
830.327209,328
830.445557,328
830.563904,314
830.682312,319
830.800659,318
830.919006,327
831.037354,319
831.155701,310
831.274048,320
831.392395,336
831.51062,321
831.629028,321
831.747314,331
831.865662,321
831.984009,315
832.102356,311
832.220642,323
832.338928,331
832.457275,328
832.575623,322
832.693909,317
832.812134,327
832.930481,307
833.048828,322
833.167114,314
833.2854,322
833.403687,327
833.521973,322
833.640259,312
833.758545,327
833.876831,325
833.995056,320
834.113281,310
834.231628,317
834.349915,301
834.468201,325
834.586426,327
834.704651,307
834.822998,320
834.941162,317
835.059448,324
835.177673,322
835.295959,323
835.414246,322
835.53241,309
835.650635,333
835.768921,323
835.887146,316
836.005371,322
836.123596,315
836.241821,328
836.360046,325
836.478271,321
836.596497,330
836.714722,307
836.832886,316
836.95105,315
837.069336,332
837.1875,325
837.305725,313
837.423889,305
837.542053,312
837.660339,326
837.778503,315
837.896667,316
838.014832,316
838.132996,313
838.25116,323
838.369385,317
838.487488,322
838.605713,321
838.723877,319
838.84198,336
838.960205,318
839.078308,326
839.196472,318
839.314636,308
839.4328,314
839.550964,321
839.669067,327
839.787231,317
839.905396,323
840.023499,313
840.141602,308
840.259766,318
840.377869,318
840.495972,324
840.614136,327
840.732239,328
840.850342,323
840.968445,318
841.086548,307
841.204651,319
841.322754,312
841.440918,314
841.55896,332
841.677002,315
841.795166,318
841.913208,307
842.031311,319
842.149353,307
842.267456,331
842.385498,314
842.503601,316
842.621643,319
842.739746,323
842.857788,327
842.97583,331
843.093933,310
843.211975,325
843.330017,322
843.44812,322
843.566101,326
843.684204,322
843.802246,312
843.920227,307
844.038269,321
844.156311,327
844.274292,321
844.392395,320
844.510376,317
844.628357,322
844.74646,319
844.864441,333
844.982422,320
845.100403,325
845.218384,315
845.336426,326
845.454468,328
845.572449,326
845.69043,332
845.808411,329
845.926453,321
846.044373,331
846.162354,311
846.280396,330
846.398315,306
846.516296,328
846.634216,304
846.752197,326
846.870178,330
846.988098,326
847.106079,327
847.22406,316
847.34198,323
847.4599,321
847.577881,316
847.695801,335
847.813782,300
847.931641,342
848.049561,327
848.167603,312
848.285461,327
848.403381,324
848.521362,320
848.639221,329
848.75708,327
848.875,318
848.99292,321
849.110901,327
849.22876,307
849.34668,328
849.464539,321
849.582458,312
849.700317,331
849.818176,315
849.936096,314
850.053955,330
850.171875,303
850.289673,313
850.407593,322
850.525452,325
850.643311,320
850.761169,319
850.878967,321
850.996887,319
851.114746,316
851.232544,316
851.350403,325
851.468262,330
851.58606,308
851.703979,320
851.821777,307
851.939636,316
852.057434,314
852.175232,311
852.293091,301
852.410889,326
852.528687,320
852.646545,329
852.764343,315
852.88208,333
852.999939,322
853.117676,319
853.235535,323
853.353271,325
853.471069,324
853.588928,328
853.706604,314
853.824402,327
853.9422,305
854.059998,328
854.177734,305
854.295532,318
854.413269,316
854.531006,319
854.648804,312
854.766541,330
854.884277,321
855.002014,317
855.119751,320
855.237549,323
855.355225,325
855.473022,320
855.590698,320
855.708435,325
855.826172,315
855.943848,307
856.061646,326
856.179321,324
856.296997,311
856.414795,322
856.53241,314
856.650085,311
856.767822,322
856.885559,321
857.003174,317
857.120911,317
857.238586,315
857.356201,327
857.473938,315
857.591614,336
857.709351,338
857.826965,324
857.944641,315
858.062317,326
858.179993,328
858.297668,325
858.415283,316
858.532959,332
858.650574,319
858.768188,319
858.885803,308
859.003479,328
859.121094,312
859.23877,321
859.356384,311
859.473999,337
859.591675,311
859.709229,322
859.826843,319
859.944458,325
860.062012,309
860.179626,304
860.297302,312
860.414856,313
860.532471,313
860.650024,334
860.767639,311
860.885193,322
861.002808,320
861.120361,330
861.237976,304
861.35553,335
861.473022,322
861.590698,317
861.708191,329
861.825745,312
861.943298,304
862.060852,325
862.178406,309
862.295959,313
862.413513,309
862.531006,325
862.64856,319
862.766113,323
862.883667,315
863.00116,318
863.118713,327
863.236206,323
863.353699,297
863.471252,327
863.588745,321
863.706177,314
863.82373,323
863.941162,320
864.058716,320
864.176208,323
864.29364,319
864.411194,321
864.528687,319
864.646118,319
864.763611,321
864.881042,329
864.998535,319
865.116028,307
865.233459,321
865.350891,321
865.468384,322
865.585754,329
865.703308,320
865.820679,322
865.938171,314
866.055542,320
866.173035,316
866.290466,324
866.407837,321
866.52533,323
866.6427,309
866.760071,327
866.877563,305
866.994934,316
867.112305,318
867.229736,320
867.347107,314
867.464539,321
867.58197,325
867.699341,322
867.81665,312
867.934082,323
868.051453,316
868.168823,329
868.286194,311
868.403564,321
868.520935,320
868.638306,325
868.755676,313
868.872986,315
868.990295,309
869.107727,325
869.225037,303
869.342346,316
869.459717,307
869.577026,319
869.694336,321
869.811707,323
869.929016,326
870.046326,321
870.163635,329
870.280945,331
870.398254,323
870.515564,337
870.632812,325
870.750183,320
870.867432,320
870.984741,310
871.102051,316
871.219299,330
871.336609,308
871.453918,321
871.571106,332
871.688416,330
871.805664,330
871.922852,327
872.040222,314
872.157471,331
872.274719,315
872.391968,315
872.509155,329
872.626465,324
872.743652,308
872.860962,327
872.978149,323
873.095337,322
873.212646,311
873.329834,337
873.44696,321
873.564209,316
873.681396,320
873.798645,338
873.915894,309
874.03302,323
874.150208,313
874.267456,317
874.384583,311
874.501831,329
874.618958,329
874.736145,337
874.853333,322
874.970459,335
875.087646,319
875.204834,334
875.32196,327
875.439148,311
875.556274,320
875.673401,327
875.790527,327
875.907715,328
876.024841,323
876.141968,320
876.259094,311
876.376282,338
876.493347,327
876.610474,316
876.7276,315
876.844727,323
876.961853,316
877.078918,321
877.195984,317
877.313171,324
877.430237,315
877.547302,321
877.664368,322
877.781433,322
877.898499,318
878.015625,321
878.13269,319
878.249695,321
878.366821,321
878.483887,313
878.600952,311
878.717957,327
878.834961,314
878.952087,319
879.069092,324
879.186157,314
879.303162,331
879.420227,317
879.537231,308
879.654236,321
879.77124,314
879.888306,329
880.005249,306
880.122314,312
880.239319,316
880.356323,311
880.473328,315
880.590271,309
880.707275,312
880.824341,327
880.941284,315
881.058228,318
881.175232,307
881.292236,317
881.40918,309
881.526123,337
881.643066,326
881.760071,318
881.877014,317
881.993958,312
882.11084,320
882.227783,328
882.344727,310
882.46167,324
882.578613,308
882.695618,326
882.812439,319
882.929382,309
883.046326,314
883.163208,317
883.280151,327
883.397034,319
883.513916,317
883.630798,335
883.747742,319
883.864563,329
883.981506,319
884.098389,312
884.21521,328
884.332153,323
884.448975,315
884.565796,329
884.682678,317
884.7995,323
884.916443,341
885.033264,330
885.150085,321
885.266968,326
885.383789,325
885.500671,321
885.617493,325
885.734314,326
885.851196,322
885.967896,338
886.084717,320
886.201599,324
886.318359,335
886.435181,336
886.552002,326
886.668762,329
886.785645,316
886.902344,337
887.019165,317
887.135925,324
887.252747,329
887.369446,324
887.486267,319
887.603027,335
887.719788,314
887.836548,321
887.953247,307
888.070068,326
888.186829,325
888.303528,324
888.420288,317
888.536987,320
888.653687,304
888.770447,321
888.887146,313
889.003967,313
889.120667,317
889.237305,318
889.354065,310
889.470703,327
889.587463,320
889.704163,311
889.820862,321
889.937561,314
890.054199,303
890.170837,318
890.287598,313
890.404236,320
890.520874,306
890.637634,306
890.754211,318
890.87085,306
890.987549,317
891.104187,310
891.220886,307
891.337463,310
891.454102,316
891.57074,311
891.687378,318
891.804077,313
891.920654,315
892.037231,323
892.15387,328
892.270447,305
892.387085,308
892.503723,331
892.6203,330
892.736877,307
892.853516,321
892.970032,331
893.08667,303
893.203186,322
893.319763,303
893.43634,321
893.552917,312
893.669556,315
893.786011,317
893.902588,316
894.019165,311
894.135681,304
894.252197,330
894.368835,317
894.485291,320
894.601868,332
894.718384,319
894.8349,324
894.951355,314
895.067932,309
895.184448,317
895.300964,314
895.417419,324
895.533936,319
895.650452,320
895.766907,306
895.883423,313
895.999878,323
896.116333,316
896.232849,327
896.349304,313
896.465759,327
896.582214,312
896.698669,310
896.815125,313
896.931641,309
897.048035,312
897.164551,318
897.280884,318
897.397339,328
897.513794,316
897.630249,337
897.746582,314
897.863098,315
897.979431,317
898.095886,313
898.212341,307
898.328674,315
898.445129,306
898.561462,326
898.677795,321
898.794312,322
898.910645,317
899.026978,339
899.143433,315
899.259766,326
899.37616,318
899.492493,333
899.608765,310
899.725159,326
899.841553,308
899.957947,325
900.07428,332
900.190552,315
900.306946,310
900.423157,319
900.53949,319
900.655884,324
900.772156,325
900.888489,317
901.004822,320
901.121033,312
901.237366,299
901.353699,322
901.46991,320
901.586304,321
901.702515,320
901.818787,311
901.93512,313
902.051331,327
902.167603,315
902.283875,330
902.400085,315
902.516418,331
902.632629,326
902.74884,327
902.865112,319
902.981384,323
903.097595,320
903.213867,323
903.330017,325
903.446289,315
903.5625,309
903.67865,317
903.794922,324
903.911072,320
904.027344,310
904.143494,332
904.259705,319
904.375916,320
904.492065,323
904.608215,331
904.724426,329
904.840576,316
904.956726,321
905.072876,327
905.189087,322
905.305176,322
905.421387,303
905.537537,333
905.653687,311
905.769775,334
905.885925,309
906.002014,322
906.118164,327
906.234314,315
906.350403,309
906.466492,313
906.582642,308
906.69873,309
906.814758,318
906.930908,323
907.046936,298
907.163086,315
907.279175,314
907.395264,308
907.511353,310
907.62738,318
907.743408,304
907.859497,329
907.975525,317
908.091553,324
908.207703,319
908.32373,314
908.439758,311
908.555786,322
908.671814,305
908.787842,310
908.90387,313
909.019775,308
909.135864,310
909.251892,316
909.367859,316
909.483826,307
909.599854,312
909.715881,312
909.831848,302
909.947815,323
910.063782,318
910.179749,327
910.295776,315
910.411743,323
910.527649,309
910.643616,329
910.759583,305
910.875488,311
910.991455,317
911.107361,324
911.223267,305
911.339294,343
911.4552,334
911.571106,316
911.687073,316
911.802979,313
911.918823,306
912.034729,329
912.150635,300
912.266602,311
912.382446,317
912.498352,317
912.614197,316
912.730103,316
912.846008,302
