792.44574,385
792.56488,385
792.68396,455
792.80304,417
792.92218,394
793.041199,360
793.160339,372
793.279419,365
793.398499,370
793.517578,345
793.636658,354
793.755737,367
793.874817,377
793.993896,387
794.112976,364
794.232056,354
794.351074,360
794.470215,343
794.589233,362
794.708313,351
794.827393,347
794.946411,360
795.065552,358
795.18457,359
795.303589,355
795.422668,347
795.541687,350
795.660767,351
795.779846,361
795.898865,335
796.017883,352
796.136963,344
796.255981,358
796.375061,342
796.49408,340
796.613037,359
796.732117,351
796.851135,341
796.970154,342
797.089233,332
797.208191,336
797.327271,343
797.446228,326
797.565186,340
797.684265,341
797.803223,334
797.922241,339
798.04126,344
798.160278,339
798.279297,328
798.398315,336
798.517273,344
798.636292,349
798.75531,333
798.874268,335
798.993286,346
799.112244,320
799.231323,336
799.350281,355
799.469238,333
799.588257,334
799.707153,325
799.826111,328
799.945129,345
800.064087,330
800.183044,337
800.302063,332
800.421021,323
800.539978,329
800.658936,335
800.777893,340
800.896912,318
801.015747,327
801.134705,345
801.253723,342
801.37262,340
801.491638,322
801.610535,320
801.729492,319
801.84845,321
801.967407,331
802.086243,328
802.205261,325
802.324158,348
802.443115,320
802.562073,335
802.680969,337
802.799927,335
802.918762,342
803.037659,322
803.156677,346
803.275574,327
803.39447,336
803.513428,338
803.632263,328
803.751221,337
803.870117,330
803.989014,331
804.107971,339
804.226746,322
804.345642,329
804.4646,322
804.583496,324
804.702393,321
804.821228,324
804.940125,333
805.059021,319
805.177917,330
805.296814,324
805.415649,333
805.534546,322
805.653442,337
805.772278,325
805.891113,340
806.01001,316
806.128906,329
806.247742,310
806.366577,320
806.485413,331
806.604309,312
806.723145,325
806.84198,332
806.960876,330
807.079712,329
807.198486,319
807.317383,324
807.436218,329
807.554993,319
807.673889,330
807.792725,330
807.91156,341
808.030396,311
808.14917,340
808.268005,324
808.386841,329
808.505676,329
808.624451,307
808.743286,320
808.862122,329
808.980896,313
809.099731,331
809.218506,326
809.337341,339
809.456116,322
809.57489,324
809.693726,328
809.8125,323
809.931274,327
810.050049,329
810.168884,327
810.287659,331
810.406372,325
810.525269,327
810.643982,313
810.762756,324
810.881531,318
811.000305,334
811.11908,317
811.237854,326
811.356567,322
811.475403,328
811.594116,329
811.71283,323
811.831604,329
811.950378,330
812.069153,317
812.187927,325
812.30658,323
812.425415,330
812.544128,318
812.662781,337
812.781616,332
812.900269,317
813.019043,318
813.137756,319
813.256531,335
813.375244,332
813.493896,329
813.612671,321
813.731384,336
813.850037,317
813.96875,328
814.087524,315
814.206238,327
814.324951,337
814.443604,308
814.562256,344
814.68103,330
814.799683,336
814.918335,334
815.037109,332
815.155762,322
815.274475,323
815.393188,319
815.511841,326
815.630554,321
815.749146,321
815.867859,325
815.986572,337
816.105164,328
816.223877,321
816.342529,335
816.461182,327
816.579895,320
816.698486,315
816.817139,337
816.935791,338
817.054504,328
817.173096,337
817.291748,334
817.4104,314
817.529053,323
817.647644,319
817.766235,325
817.884949,333
818.00354,344
818.122192,311
818.240845,328
818.359436,328
818.478088,325
818.59668,338
818.715271,331
818.833923,317
818.952515,314
819.071106,310
819.189758,335
819.30835,331
819.426941,313
819.545532,320
819.664124,317
819.782715,317
819.901306,313
820.019897,329
820.138489,329
820.25708,325
820.375671,324
820.494202,330
820.612732,319
820.731384,322
820.849915,317
820.968506,328
821.087097,318
821.205627,324
821.324158,329
821.442749,320
821.561279,329
821.679871,320
821.798401,322
821.916931,344
822.035461,308
822.154053,332
822.272583,313
822.391174,325
822.509583,322
822.628174,320
822.746704,319
822.865234,318
822.983765,322
823.102295,308
823.220825,316
823.339294,317
823.457825,319
823.576355,329
823.694824,323
823.813354,326
823.931885,327
824.050354,320
824.168884,316
824.287354,334
824.405823,313
824.524353,331
824.642822,312
824.761353,315
824.879822,313
824.998291,321
825.116699,318
825.235291,333
825.353699,321
825.472168,326
825.590637,310
825.709106,322
825.827576,310
825.946045,328
826.064453,318
826.182983,327
826.301392,323
826.4198,323
826.53833,323
826.656738,323
826.775208,317
826.893677,320
827.012024,323
827.130493,328
827.248962,330
827.36731,312
827.485779,321
827.604248,335
827.722595,321
827.841064,334
827.959412,320
828.077942,326
828.196289,317
828.314636,324
828.433105,322
828.551514,311
828.669861,311
828.78833,327
828.906677,320
829.025085,330
829.143433,330
829.261841,329
829.38031,325
829.498657,324
829.617004,317
829.735413,306
829.85376,334
829.972107,323
830.090515,328
830.208862,322
830.327209,318
830.445557,314
830.563904,334
830.682312,317
830.800659,325
830.919006,322
831.037354,312
831.155701,326
831.274048,329
831.392395,326
831.51062,311
831.629028,311
831.747314,307
831.865662,313
831.984009,322
832.102356,316
832.220642,318
832.338928,327
832.457275,321
832.575623,317
832.693909,304
832.812134,329
832.930481,304
833.048828,327
833.167114,316
833.2854,320
833.403687,311
833.521973,324
833.640259,323
833.758545,319
833.876831,325
833.995056,326
834.113281,307
834.231628,323
834.349915,325
834.468201,333
834.586426,319
834.704651,305
834.822998,331
834.941162,322
835.059448,317
835.177673,321
835.295959,317
835.414246,324
835.53241,329
835.650635,316
835.768921,324
835.887146,315
836.005371,317
836.123596,328
836.241821,316
836.360046,336
836.478271,316
836.596497,322
836.714722,309
836.832886,325
836.95105,310
837.069336,322
837.1875,317
837.305725,321
837.423889,317
837.542053,319
837.660339,322
837.778503,310
837.896667,305
838.014832,325
838.132996,310
838.25116,313
838.369385,331
838.487488,320
838.605713,318
838.723877,335
838.84198,314
838.960205,330
839.078308,327
839.196472,336
839.314636,313
839.4328,327
839.550964,311
839.669067,316
839.787231,325
839.905396,331
840.023499,311
840.141602,318
840.259766,326
840.377869,330
840.495972,326
840.614136,323
840.732239,331
840.850342,333
840.968445,315
841.086548,328
841.204651,320
841.322754,333
841.440918,315
841.55896,320
841.677002,310
841.795166,320
841.913208,328
842.031311,320
842.149353,316
842.267456,334
842.385498,309
842.503601,312
842.621643,327
842.739746,330
842.857788,308
842.97583,321
843.093933,327
843.211975,328
843.330017,317
843.44812,321
843.566101,317
843.684204,318
843.802246,324
843.920227,332
844.038269,312
844.156311,324
844.274292,311
844.392395,331
844.510376,326
844.628357,335
844.74646,317
844.864441,324
844.982422,318
845.100403,331
845.218384,320
845.336426,328
845.454468,316
845.572449,319
845.69043,310
845.808411,339
845.926453,324
846.044373,310
846.162354,321
846.280396,318
846.398315,332
846.516296,309
846.634216,325
846.752197,322
846.870178,309
846.988098,327
847.106079,326
847.22406,317
847.34198,309
847.4599,317
847.577881,320
847.695801,335
847.813782,322
847.931641,317
848.049561,322
848.167603,344
848.285461,301
848.403381,323
848.521362,311
848.639221,320
848.75708,325
848.875,330
848.99292,319
849.110901,326
849.22876,322
849.34668,331
849.464539,316
849.582458,314
849.700317,331
849.818176,327
849.936096,324
850.053955,326
850.171875,322
850.289673,325
850.407593,325
850.525452,333
850.643311,323
850.761169,321
850.878967,318
850.996887,325
851.114746,317
851.232544,323
851.350403,315
851.468262,320
851.58606,331
851.703979,333
851.821777,318
851.939636,311
852.057434,327
852.175232,326
852.293091,326
852.410889,309
852.528687,335
852.646545,337
852.764343,336
852.88208,347
852.999939,316
853.117676,335
853.235535,313
853.353271,325
853.471069,319
853.588928,327
853.706604,337
853.824402,316
853.9422,309
854.059998,315
854.177734,319
854.295532,325
854.413269,330
854.531006,336
854.648804,324
854.766541,320
854.884277,318
855.002014,338
855.119751,340
855.237549,330
855.355225,316
855.473022,330
855.590698,321
855.708435,317
855.826172,319
855.943848,323
856.061646,332
856.179321,329
856.296997,324
856.414795,335
856.53241,321
856.650085,315
856.767822,328
856.885559,335
857.003174,309
857.120911,321
857.238586,330
857.356201,326
857.473938,321
857.591614,328
857.709351,328
857.826965,330
857.944641,322
858.062317,327
858.179993,330
858.297668,322
858.415283,325
858.532959,323
858.650574,338
858.768188,325
858.885803,335
859.003479,335
859.121094,327
859.23877,316
859.356384,320
859.473999,327
859.591675,317
859.709229,305
859.826843,322
859.944458,331
860.062012,313
860.179626,328
860.297302,335
860.414856,331
860.532471,323
860.650024,329
860.767639,319
860.885193,322
861.002808,319
861.120361,334
861.237976,316
861.35553,325
861.473022,325
861.590698,328
861.708191,330
861.825745,315
861.943298,321
862.060852,330
862.178406,315
862.295959,340
862.413513,306
862.531006,326
862.64856,320
862.766113,321
862.883667,321
863.00116,332
863.118713,313
863.236206,328
863.353699,309
863.471252,336
863.588745,326
863.706177,306
863.82373,321
863.941162,323
864.058716,315
864.176208,318
864.29364,315
864.411194,329
864.528687,316
864.646118,324
864.763611,306
864.881042,317
864.998535,320
865.116028,321
865.233459,320
865.350891,314
865.468384,321
865.585754,327
865.703308,316
865.820679,316
865.938171,332
866.055542,325
866.173035,317
866.290466,315
866.407837,327
866.52533,305
866.6427,338
866.760071,319
866.877563,333
866.994934,327
867.112305,321
867.229736,314
867.347107,332
867.464539,318
867.58197,324
867.699341,331
867.81665,317
867.934082,324
868.051453,323
868.168823,314
868.286194,328
868.403564,332
868.520935,314
868.638306,315
868.755676,317
868.872986,324
868.990295,326
869.107727,330
869.225037,306
869.342346,318
869.459717,303
869.577026,334
869.694336,315
869.811707,331
869.929016,325
870.046326,324
870.163635,325
870.280945,323
870.398254,334
870.515564,326
870.632812,313
870.750183,324
870.867432,321
870.984741,334
871.102051,320
871.219299,318
871.336609,307
871.453918,309
871.571106,325
871.688416,332
871.805664,317
871.922852,325
872.040222,307
872.157471,329
872.274719,316
872.391968,318
872.509155,333
872.626465,323
872.743652,320
872.860962,328
872.978149,336
873.095337,322
873.212646,333
873.329834,337
873.44696,322
873.564209,324
873.681396,314
873.798645,338
873.915894,316
874.03302,320
874.150208,323
874.267456,334
874.384583,325
874.501831,315
874.618958,313
874.736145,330
874.853333,317
874.970459,339
875.087646,324
875.204834,334
875.32196,333
875.439148,324
875.556274,333
875.673401,326
875.790527,318
875.907715,321
876.024841,319
876.141968,323
876.259094,308
876.376282,324
876.493347,321
876.610474,320
876.7276,323
876.844727,314
876.961853,334
877.078918,337
877.195984,324
877.313171,329
877.430237,316
877.547302,339
877.664368,322
877.781433,322
877.898499,328
878.015625,325
878.13269,320
878.249695,327
878.366821,331
878.483887,334
878.600952,317
878.717957,328
878.834961,314
878.952087,316
879.069092,309
879.186157,310
879.303162,324
879.420227,322
879.537231,337
879.654236,318
879.77124,326
879.888306,326
880.005249,305
880.122314,318
880.239319,324
880.356323,322
880.473328,292
880.590271,327
880.707275,325
880.824341,325
880.941284,326
881.058228,337
881.175232,301
881.292236,323
881.40918,318
881.526123,340
881.643066,320
881.760071,337
881.877014,313
881.993958,328
882.11084,316
882.227783,327
882.344727,308
882.46167,330
882.578613,325
882.695618,311
882.812439,306
882.929382,313
883.046326,321
883.163208,316
883.280151,302
883.397034,335
883.513916,330
883.630798,330
883.747742,318
883.864563,323
883.981506,321
884.098389,325
884.21521,320
884.332153,329
884.448975,314
884.565796,338
884.682678,315
884.7995,323
884.916443,328
885.033264,325
885.150085,331
885.266968,326
885.383789,328
885.500671,337
885.617493,322
885.734314,335
885.851196,324
885.967896,325
886.084717,338
886.201599,338
886.318359,325
886.435181,345
886.552002,320
886.668762,320
886.785645,325
886.902344,334
887.019165,320
887.135925,338
887.252747,326
887.369446,327
887.486267,330
887.603027,314
887.719788,336
887.836548,331
887.953247,317
888.070068,323
888.186829,325
888.303528,323
888.420288,330
888.536987,334
888.653687,323
888.770447,309
888.887146,305
889.003967,306
889.120667,315
889.237305,332
889.354065,320
889.470703,329
889.587463,326
889.704163,333
889.820862,318
889.937561,323
890.054199,310
890.170837,325
890.287598,311
890.404236,312
890.520874,305
890.637634,332
890.754211,308
890.87085,312
890.987549,305
891.104187,325
891.220886,320
891.337463,321
891.454102,325
891.57074,324
891.687378,323
891.804077,323
891.920654,316
892.037231,318
892.15387,324
892.270447,327
892.387085,312
892.503723,330
892.6203,305
892.736877,318
892.853516,313
892.970032,328
893.08667,310
893.203186,324
893.319763,322
893.43634,328
893.552917,330
893.669556,324
893.786011,308
893.902588,315
894.019165,317
894.135681,319
894.252197,311
894.368835,313
894.485291,324
894.601868,330
894.718384,330
894.8349,320
894.951355,312
895.067932,330
895.184448,311
895.300964,320
895.417419,322
895.533936,313
895.650452,308
895.766907,330
895.883423,320
895.999878,322
896.116333,306
896.232849,326
896.349304,305
896.465759,330
896.582214,313
896.698669,313
896.815125,325
896.931641,322
897.048035,313
897.164551,334
897.280884,321
897.397339,320
897.513794,307
897.630249,325
897.746582,312
897.863098,324
897.979431,325
898.095886,314
898.212341,325
898.328674,331
898.445129,317
898.561462,331
898.677795,309
898.794312,323
898.910645,311
899.026978,311
899.143433,314
899.259766,325
899.37616,316
899.492493,331
899.608765,319
899.725159,324
899.841553,317
899.957947,317
900.07428,318
900.190552,335
900.306946,304
900.423157,325
900.53949,329
900.655884,326
900.772156,314
900.888489,313
901.004822,313
901.121033,331
901.237366,311
901.353699,314
901.46991,319
901.586304,305
901.702515,321
901.818787,329
901.93512,326
902.051331,324
902.167603,327
902.283875,324
902.400085,328
902.516418,319
902.632629,330
902.74884,321
902.865112,313
902.981384,333
903.097595,328
903.213867,334
903.330017,322
903.446289,330
903.5625,322
903.67865,326
903.794922,319
903.911072,328
904.027344,326
904.143494,321
904.259705,313
904.375916,328
904.492065,315
904.608215,323
904.724426,317
904.840576,334
904.956726,318
905.072876,335
905.189087,318
905.305176,326
905.421387,333
905.537537,320
905.653687,321
905.769775,330
905.885925,319
906.002014,318
906.118164,335
906.234314,324
906.350403,314
906.466492,321
906.582642,308
906.69873,332
906.814758,309
906.930908,321
907.046936,308
907.163086,318
907.279175,307
907.395264,318
907.511353,321
907.62738,314
907.743408,309
907.859497,340
907.975525,304
908.091553,331
908.207703,316
908.32373,334
908.439758,292
908.555786,321
908.671814,313
908.787842,322
908.90387,314
909.019775,323
909.135864,313
909.251892,317
909.367859,322
909.483826,309
909.599854,312
909.715881,302
909.831848,319
909.947815,309
910.063782,318
910.179749,315
910.295776,307
910.411743,313
910.527649,323
910.643616,324
910.759583,326
910.875488,323
910.991455,320
911.107361,314
911.223267,301
911.339294,321
911.4552,328
911.571106,325
911.687073,313
911.802979,313
911.918823,325
912.034729,332
912.150635,324
912.266602,327
912.382446,298
912.498352,320
912.614197,297
912.730103,328
912.846008,320
792.44574,377
792.56488,405
792.68396,440
792.80304,431
792.92218,378
793.041199,371
793.160339,362
793.279419,372
793.398499,361
793.517578,366
793.636658,354
793.755737,375
793.874817,376
793.993896,388
794.112976,358
794.232056,363
794.351074,356
794.470215,371
794.589233,341
794.708313,350
794.827393,344
794.946411,355
795.065552,360
795.18457,357
795.303589,355
795.422668,351
795.541687,343
795.660767,350
795.779846,361
795.898865,346
796.017883,351
796.136963,338
796.255981,363
796.375061,332
796.49408,352
796.613037,344
796.732117,348
796.851135,354
796.970154,349
797.089233,354
797.208191,342
797.327271,334
797.446228,327
797.565186,349
797.684265,347
797.803223,343
797.922241,319
798.04126,342
798.160278,338
798.279297,335
798.398315,335
798.517273,339
798.636292,342
798.75531,329
798.874268,346
798.993286,320
799.112244,349
799.231323,338
799.350281,346
799.469238,336
799.588257,334
799.707153,334
799.826111,345
799.945129,338
800.064087,336
800.183044,337
800.302063,329
800.421021,343
800.539978,337
800.658936,334
800.777893,339
800.896912,323
801.015747,329
801.134705,333
801.253723,334
801.37262,342
801.491638,329
801.610535,331
801.729492,336
801.84845,334
801.967407,342
802.086243,321
802.205261,338
802.324158,319
802.443115,327
802.562073,337
802.680969,335
802.799927,341
802.918762,328
803.037659,341
803.156677,334
803.275574,335
803.39447,332
803.513428,339
803.632263,337
803.751221,314
803.870117,346
803.989014,318
804.107971,344
804.226746,326
804.345642,337
804.4646,328
804.583496,339
804.702393,338
804.821228,346
804.940125,335
805.059021,329
805.177917,340
805.296814,330
805.415649,334
805.534546,339
805.653442,323
805.772278,339
805.891113,327
806.01001,326
806.128906,332
806.247742,333
806.366577,328
806.485413,319
806.604309,337
806.723145,320
806.84198,330
806.960876,339
807.079712,319
807.198486,343
807.317383,321
807.436218,320
807.554993,339
807.673889,339
807.792725,325
807.91156,340
808.030396,323
808.14917,331
808.268005,335
808.386841,338
808.505676,327
808.624451,342
808.743286,329
808.862122,333
808.980896,336
809.099731,324
809.218506,328
809.337341,328
809.456116,333
809.57489,344
809.693726,324
809.8125,327
809.931274,341
810.050049,324
810.168884,324
810.287659,333
810.406372,327
810.525269,328
810.643982,325
810.762756,346
810.881531,331
811.000305,344
811.11908,323
811.237854,317
811.356567,328
811.475403,325
811.594116,328
811.71283,319
811.831604,334
811.950378,326
812.069153,332
812.187927,327
812.30658,331
812.425415,330
812.544128,316
812.662781,325
812.781616,336
812.900269,330
813.019043,310
813.137756,320
813.256531,333
813.375244,332
813.493896,325
813.612671,322
813.731384,318
813.850037,336
813.96875,330
814.087524,336
814.206238,340
814.324951,331
814.443604,336
814.562256,310
814.68103,330
814.799683,327
814.918335,326
815.037109,329
815.155762,307
815.274475,330
815.393188,314
815.511841,333
815.630554,318
815.749146,330
815.867859,328
815.986572,328
816.105164,320
816.223877,320
816.342529,318
816.461182,325
816.579895,307
816.698486,328
816.817139,338
816.935791,330
817.054504,322
817.173096,336
817.291748,325
817.4104,335
817.529053,327
817.647644,338
817.766235,320
817.884949,323
818.00354,318
818.122192,323
818.240845,318
818.359436,334
818.478088,323
818.59668,317
818.715271,319
818.833923,339
818.952515,320
819.071106,320
819.189758,318
819.30835,330
819.426941,314
819.545532,326
819.664124,323
819.782715,329
819.901306,319
820.019897,321
820.138489,320
820.25708,339
820.375671,339
820.494202,316
820.612732,329
820.731384,331
820.849915,321
820.968506,334
821.087097,320
821.205627,324
821.324158,335
821.442749,338
821.561279,305
821.679871,326
821.798401,320
821.916931,312
822.035461,326
822.154053,325
822.272583,318
822.391174,317
822.509583,323
822.628174,331
822.746704,331
822.865234,322
822.983765,325
823.102295,307
823.220825,324
823.339294,329
823.457825,322
823.576355,331
823.694824,318
823.813354,335
823.931885,319
824.050354,307
824.168884,322
824.287354,330
824.405823,315
824.524353,321
824.642822,325
824.761353,324
824.879822,316
824.998291,318
825.116699,337
825.235291,320
825.353699,329
825.472168,312
825.590637,328
825.709106,348
825.827576,325
825.946045,326
826.064453,320
826.182983,328
826.301392,322
826.4198,320
826.53833,322
826.656738,345
826.775208,333
826.893677,340
827.012024,313
827.130493,336
827.248962,308
827.36731,346
827.485779,328
827.604248,319
827.722595,320
827.841064,330
827.959412,309
828.077942,326
828.196289,328
828.314636,307
828.433105,326
828.551514,336
828.669861,321
828.78833,327
828.906677,317
829.025085,330
829.143433,322
829.261841,334
829.38031,303
829.498657,329
829.617004,315
829.735413,308
829.85376,314
829.972107,324
830.090515,321
830.208862,332
830.327209,314
830.445557,323
830.563904,322
830.682312,335
830.800659,315
830.919006,331
831.037354,320
831.155701,329
831.274048,331
831.392395,330
831.51062,311
831.629028,335
831.747314,317
831.865662,339
831.984009,311
832.102356,333
832.220642,329
832.338928,319
832.457275,326
832.575623,328
832.693909,326
832.812134,328
832.930481,306
833.048828,318
833.167114,321
833.2854,318
833.403687,331
833.521973,327
833.640259,324
833.758545,338
833.876831,321
833.995056,319
834.113281,318
834.231628,310
834.349915,313
834.468201,329
834.586426,319
834.704651,316
834.822998,316
834.941162,325
835.059448,324
835.177673,340
835.295959,322
835.414246,333
835.53241,315
835.650635,315
835.768921,309
835.887146,330
836.005371,320
836.123596,326
836.241821,315
836.360046,325
836.478271,327
836.596497,320
836.714722,325
836.832886,325
836.95105,329
837.069336,331
837.1875,315
837.305725,331
837.423889,325
837.542053,328
837.660339,309
837.778503,332
837.896667,318
838.014832,312
838.132996,327
838.25116,327
838.369385,326
838.487488,310
838.605713,329
838.723877,326
838.84198,319
838.960205,327
839.078308,320
839.196472,328
839.314636,320
839.4328,340
839.550964,331
839.669067,330
839.787231,326
839.905396,339
840.023499,331
840.141602,320
840.259766,333
840.377869,327
840.495972,331
840.614136,322
840.732239,335
840.850342,322
840.968445,316
841.086548,326
841.204651,312
841.322754,330
841.440918,318
841.55896,318
841.677002,323
841.795166,332
841.913208,319
842.031311,322
842.149353,319
842.267456,340
842.385498,331
842.503601,336
842.621643,320
842.739746,342
842.857788,333
842.97583,313
843.093933,330
843.211975,320
843.330017,320
843.44812,342
843.566101,325
843.684204,332
843.802246,304
843.920227,343
844.038269,317
844.156311,332
844.274292,327
844.392395,333
844.510376,325
844.628357,314
844.74646,332
844.864441,322
844.982422,329
845.100403,328
845.218384,331
845.336426,343
845.454468,320
845.572449,332
845.69043,318
845.808411,322
845.926453,319
846.044373,331
846.162354,322
846.280396,328
846.398315,331
846.516296,328
846.634216,331
846.752197,334
846.870178,313
846.988098,332
847.106079,326
847.22406,317
847.34198,331
847.4599,326
847.577881,314
847.695801,331
847.813782,311
847.931641,336
848.049561,325
848.167603,329
848.285461,322
848.403381,316
848.521362,312
848.639221,330
848.75708,331
848.875,324
848.99292,324
849.110901,327
849.22876,318
849.34668,335
849.464539,319
849.582458,313
849.700317,324
849.818176,331
849.936096,326
850.053955,327
850.171875,336
850.289673,327
850.407593,332
850.525452,320
850.643311,322
850.761169,340
850.878967,332
850.996887,332
851.114746,338
851.232544,328
851.350403,313
851.468262,333
851.58606,341
851.703979,320
851.821777,335
851.939636,334
852.057434,332
852.175232,327
852.293091,315
852.410889,328
852.528687,331
852.646545,329
852.764343,334
852.88208,321
852.999939,329
853.117676,330
853.235535,321
853.353271,328
853.471069,326
853.588928,331
853.706604,322
853.824402,340
853.9422,325
854.059998,319
854.177734,325
854.295532,311
854.413269,319
854.531006,333
854.648804,323
854.766541,317
854.884277,318
855.002014,321
855.119751,321
855.237549,332
855.355225,321
855.473022,318
855.590698,317
855.708435,331
855.826172,330
855.943848,344
856.061646,329
856.179321,321
856.296997,328
856.414795,334
856.53241,321
856.650085,318
856.767822,321
856.885559,333
857.003174,318
857.120911,336
857.238586,320
857.356201,333
857.473938,330
857.591614,320
857.709351,324
857.826965,334
857.944641,305
858.062317,339
858.179993,326
858.297668,323
858.415283,326
858.532959,331
858.650574,318
858.768188,324
858.885803,320
859.003479,323
859.121094,322
859.23877,334
859.356384,320
859.473999,344
859.591675,327
859.709229,334
859.826843,335
859.944458,321
860.062012,312
860.179626,327
860.297302,324
860.414856,336
860.532471,324
860.650024,335
860.767639,311
860.885193,332
861.002808,314
861.120361,326
861.237976,316
861.35553,333
861.473022,318
861.590698,337
861.708191,326
861.825745,329
861.943298,320
862.060852,322
862.178406,319
862.295959,335
862.413513,309
862.531006,315
862.64856,325
862.766113,316
862.883667,318
863.00116,331
863.118713,313
863.236206,316
863.353699,317
863.471252,317
863.588745,325
863.706177,321
863.82373,324
863.941162,334
864.058716,319
864.176208,325
864.29364,313
864.411194,323
864.528687,314
864.646118,317
864.763611,323
864.881042,338
864.998535,313
865.116028,338
865.233459,330
865.350891,324
865.468384,326
865.585754,331
865.703308,318
865.820679,322
865.938171,316
866.055542,334
866.173035,319
866.290466,321
866.407837,317
866.52533,315
866.6427,323
866.760071,322
866.877563,323
866.994934,311
867.112305,324
867.229736,324
867.347107,320
867.464539,326
867.58197,315
867.699341,313
867.81665,325
867.934082,338
868.051453,319
868.168823,324
868.286194,322
868.403564,330
868.520935,307
868.638306,331
868.755676,320
868.872986,332
868.990295,321
869.107727,331
869.225037,305
869.342346,342
869.459717,333
869.577026,334
869.694336,319
869.811707,332
869.929016,317
870.046326,327
870.163635,332
870.280945,344
870.398254,335
870.515564,320
870.632812,323
870.750183,335
870.867432,332
870.984741,320
871.102051,328
871.219299,328
871.336609,333
871.453918,331
871.571106,323
871.688416,338
871.805664,316
871.922852,342
872.040222,318
872.157471,346
872.274719,324
872.391968,319
872.509155,325
872.626465,331
872.743652,332
872.860962,335
872.978149,325
873.095337,333
873.212646,325
873.329834,329
873.44696,321
873.564209,316
873.681396,313
873.798645,316
873.915894,328
874.03302,330
874.150208,336
874.267456,333
874.384583,320
874.501831,344
874.618958,321
874.736145,322
874.853333,333
874.970459,320
875.087646,327
875.204834,336
875.32196,322
875.439148,336
875.556274,316
875.673401,323
875.790527,319
875.907715,331
876.024841,331
876.141968,320
876.259094,325
876.376282,326
876.493347,314
876.610474,325
876.7276,311
876.844727,321
876.961853,323
877.078918,323
877.195984,322
877.313171,312
877.430237,313
877.547302,326
877.664368,322
877.781433,326
877.898499,314
878.015625,315
878.13269,321
878.249695,333
878.366821,334
878.483887,329
878.600952,326
878.717957,325
878.834961,319
878.952087,333
879.069092,316
879.186157,340
879.303162,312
879.420227,321
879.537231,319
879.654236,323
879.77124,323
879.888306,323
880.005249,318
880.122314,319
880.239319,323
880.356323,336
880.473328,328
880.590271,312
880.707275,312
880.824341,332
880.941284,322
881.058228,325
881.175232,322
881.292236,337
881.40918,321
881.526123,318
881.643066,314
881.760071,315
881.877014,324
881.993958,318
882.11084,326
882.227783,336
882.344727,320
882.46167,306
882.578613,327
882.695618,324
882.812439,320
882.929382,326
883.046326,321
883.163208,328
883.280151,323
883.397034,323
883.513916,324
883.630798,332
883.747742,321
883.864563,317
883.981506,328
884.098389,314
884.21521,309
884.332153,325
884.448975,333
884.565796,329
884.682678,313
884.7995,327
884.916443,320
885.033264,329
885.150085,322
885.266968,328
885.383789,340
885.500671,332
885.617493,337
885.734314,328
885.851196,322
885.967896,345
886.084717,317
886.201599,326
886.318359,335
886.435181,338
886.552002,328
886.668762,326
886.785645,334
886.902344,339
887.019165,334
887.135925,333
887.252747,331
887.369446,329
887.486267,314
887.603027,334
887.719788,325
887.836548,325
887.953247,325
888.070068,339
888.186829,325
888.303528,331
888.420288,324
888.536987,332
888.653687,308
888.770447,327
888.887146,322
889.003967,325
889.120667,318
889.237305,340
889.354065,310
889.470703,318
889.587463,317
889.704163,331
889.820862,312
889.937561,324
890.054199,304
890.170837,320
890.287598,315
890.404236,318
890.520874,319
890.637634,335
890.754211,309
890.87085,322
890.987549,321
891.104187,317
891.220886,336
891.337463,328
891.454102,311
891.57074,333
891.687378,313
891.804077,316
891.920654,304
892.037231,307
892.15387,305
892.270447,324
892.387085,319
892.503723,315
892.6203,321
892.736877,325
892.853516,313
892.970032,327
893.08667,313
893.203186,322
893.319763,316
893.43634,309
893.552917,323
893.669556,325
893.786011,322
893.902588,340
894.019165,329
894.135681,321
894.252197,315
894.368835,338
894.485291,315
894.601868,316
894.718384,308
894.8349,325
894.951355,304
895.067932,320
895.184448,317
895.300964,329
895.417419,315
895.533936,342
895.650452,310
895.766907,309
895.883423,321
895.999878,326
896.116333,298
896.232849,320
896.349304,316
896.465759,318
896.582214,315
896.698669,311
896.815125,325
896.931641,309
897.048035,311
897.164551,323
897.280884,322
897.397339,325
897.513794,323
897.630249,322
897.746582,320
897.863098,321
897.979431,314
898.095886,325
898.212341,325
898.328674,318
898.445129,327
898.561462,314
898.677795,308
898.794312,330
898.910645,317
899.026978,321
899.143433,325
899.259766,332
899.37616,325
899.492493,315
899.608765,312
899.725159,333
899.841553,308
899.957947,322
900.07428,327
900.190552,320
900.306946,320
900.423157,330
900.53949,337
900.655884,338
900.772156,310
900.888489,313
901.004822,319
901.121033,316
901.237366,313
901.353699,329
901.46991,325
901.586304,321
901.702515,318
901.818787,331
901.93512,327
902.051331,317
902.167603,320
902.283875,338
902.400085,310
902.516418,337
902.632629,318
902.74884,342
902.865112,321
902.981384,315
903.097595,324
903.213867,329
903.330017,315
903.446289,318
903.5625,317
903.67865,319
903.794922,323
903.911072,323
904.027344,321
904.143494,331
904.259705,325
904.375916,328
904.492065,319
904.608215,327
904.724426,313
904.840576,315
904.956726,306
905.072876,318
905.189087,318
905.305176,329
905.421387,331
905.537537,326
905.653687,312
905.769775,329
905.885925,317
906.002014,322
906.118164,312
906.234314,329
906.350403,309
906.466492,339
906.582642,313
906.69873,314
906.814758,325
906.930908,324
907.046936,321
907.163086,328
907.279175,306
907.395264,319
907.511353,316
907.62738,327
907.743408,319
907.859497,315
907.975525,310
908.091553,320
908.207703,322
908.32373,313
908.439758,308
908.555786,319
908.671814,313
908.787842,314
908.90387,320
909.019775,324
909.135864,311
909.251892,313
909.367859,320
909.483826,313
909.599854,319
909.715881,307
909.831848,308
909.947815,317
910.063782,316
910.179749,331
910.295776,319
910.411743,325
910.527649,320
910.643616,333
910.759583,321
910.875488,325
910.991455,327
911.107361,309
911.223267,318
911.339294,332
911.4552,304
911.571106,323
911.687073,321
911.802979,329
911.918823,314
912.034729,315
912.150635,314
912.266602,314
912.382446,319
912.498352,313
912.614197,313
912.730103,325
912.846008,320
792.44574,362
792.56488,392
792.68396,444
792.80304,445
792.92218,378
793.041199,358
793.160339,373
793.279419,373
793.398499,386
793.517578,349
793.636658,370
793.755737,357
793.874817,376
793.993896,375
794.112976,365
794.232056,353
794.351074,356
794.470215,361
794.589233,354
794.708313,354
794.827393,359
794.946411,358
795.065552,365
795.18457,342
795.303589,334
795.422668,354
795.541687,353
795.660767,354
795.779846,354
795.898865,360
796.017883,346
796.136963,348
796.255981,351
796.375061,336
796.49408,336
796.613037,345
796.732117,355
796.851135,348
796.970154,338
797.089233,338
797.208191,348
797.327271,354
797.446228,336
797.565186,340
797.684265,333
797.803223,345
797.922241,349
798.04126,328
798.160278,345
798.279297,340
798.398315,344
798.517273,323
798.636292,353
798.75531,324
798.874268,344
798.993286,347
799.112244,329
799.231323,333
799.350281,339
799.469238,332
799.588257,345
799.707153,326
799.826111,351
799.945129,314
800.064087,359
800.183044,331
800.302063,335
800.421021,323
800.539978,323
800.658936,324
800.777893,334
800.896912,344
801.015747,327
801.134705,311
801.253723,329
801.37262,335
801.491638,331
801.610535,337
801.729492,332
801.84845,309
801.967407,339
802.086243,321
802.205261,340
802.324158,329
802.443115,342
802.562073,329
802.680969,332
802.799927,323
802.918762,327
803.037659,316
803.156677,324
803.275574,316
803.39447,336
803.513428,335
803.632263,333
803.751221,324
803.870117,340
803.989014,340
804.107971,330
804.226746,351
804.345642,320
804.4646,324
804.583496,337
804.702393,330
804.821228,333
804.940125,334
805.059021,323
805.177917,326
805.296814,331
805.415649,325
805.534546,315
805.653442,326
805.772278,330
805.891113,329
806.01001,321
806.128906,336
806.247742,331
806.366577,337
806.485413,322
806.604309,313
806.723145,349
806.84198,319
806.960876,338
807.079712,331
807.198486,338
807.317383,324
807.436218,319
807.554993,328
807.673889,330
807.792725,321
807.91156,326
808.030396,319
808.14917,326
808.268005,325
808.386841,337
808.505676,311
808.624451,339
808.743286,317
808.862122,333
808.980896,331
809.099731,318
809.218506,328
809.337341,340
809.456116,332
809.57489,323
809.693726,342
809.8125,315
809.931274,327
810.050049,327
810.168884,327
810.287659,326
810.406372,313
810.525269,330
810.643982,319
810.762756,328
810.881531,312
811.000305,332
811.11908,324
811.237854,322
811.356567,313
811.475403,333
811.594116,328
811.71283,347
811.831604,308
811.950378,336
812.069153,322
812.187927,319
812.30658,337
812.425415,329
812.544128,331
812.662781,327
812.781616,328
812.900269,340
813.019043,326
813.137756,319
813.256531,324
813.375244,328
813.493896,315
813.612671,319
813.731384,329
813.850037,332
813.96875,324
814.087524,315
814.206238,329
814.324951,318
814.443604,319
814.562256,323
814.68103,328
814.799683,307
814.918335,322
815.037109,325
815.155762,340
815.274475,328
815.393188,321
815.511841,328
815.630554,320
815.749146,326
815.867859,319
815.986572,321
816.105164,321
816.223877,330
816.342529,314
816.461182,326
816.579895,323
816.698486,322
816.817139,324
816.935791,336
817.054504,317
817.173096,321
817.291748,322
817.4104,337
817.529053,327
817.647644,321
817.766235,315
817.884949,316
818.00354,320
818.122192,329
818.240845,321
818.359436,325
818.478088,326
818.59668,304
818.715271,325
818.833923,334
818.952515,310
819.071106,324
819.189758,314
819.30835,331
819.426941,321
819.545532,324
819.664124,330
819.782715,312
819.901306,313
820.019897,323
820.138489,318
820.25708,326
820.375671,323
820.494202,327
820.612732,323
820.731384,317
820.849915,321
820.968506,324
821.087097,316
821.205627,336
821.324158,308
821.442749,336
821.561279,325
821.679871,323
821.798401,322
821.916931,340
822.035461,321
822.154053,320
822.272583,326
822.391174,328
822.509583,315
822.628174,332
822.746704,327
822.865234,332
822.983765,313
823.102295,316
823.220825,315
823.339294,322
823.457825,311
823.576355,323
823.694824,316
823.813354,323
823.931885,315
824.050354,333
824.168884,317
824.287354,312
824.405823,322
824.524353,330
824.642822,326
824.761353,339
824.879822,314
824.998291,335
825.116699,324
825.235291,325
825.353699,329
825.472168,323
825.590637,320
825.709106,313
825.827576,314
825.946045,312
826.064453,315
826.182983,335
826.301392,312
826.4198,321
826.53833,315
826.656738,327
826.775208,322
826.893677,330
827.012024,329
827.130493,320
827.248962,321
827.36731,315
827.485779,320
827.604248,324
827.722595,324
827.841064,315
827.959412,312
828.077942,311
828.196289,315
828.314636,328
828.433105,329
828.551514,327
828.669861,311
828.78833,330
828.906677,316
829.025085,334
829.143433,321
829.261841,320
829.38031,330
829.498657,324
829.617004,315
829.735413,326
829.85376,313
829.972107,335
830.090515,326
830.208862,317
830.327209,330
830.445557,330
830.563904,320
830.682312,315
830.800659,315
830.919006,324
831.037354,313
831.155701,326
831.274048,321
831.392395,318
831.51062,331
831.629028,326
831.747314,325
831.865662,325
831.984009,312
832.102356,324
832.220642,322
832.338928,333
832.457275,332
832.575623,320
832.693909,320
832.812134,315
832.930481,310
833.048828,313
833.167114,341
833.2854,338
833.403687,315
833.521973,315
833.640259,320
833.758545,332
833.876831,325
833.995056,324
834.113281,331
834.231628,335
834.349915,319
834.468201,319
834.586426,333
834.704651,334
834.822998,322
834.941162,326
835.059448,329
835.177673,323
835.295959,315
835.414246,329
835.53241,320
835.650635,321
835.768921,325
835.887146,318
836.005371,320
836.123596,315
836.241821,322
836.360046,313
836.478271,313
836.596497,321
836.714722,308
836.832886,333
836.95105,315
837.069336,317
837.1875,316
837.305725,306
837.423889,331
837.542053,315
837.660339,302
837.778503,310
837.896667,321
838.014832,320
838.132996,316
838.25116,336
838.369385,330
838.487488,326
838.605713,312
838.723877,319
838.84198,318
838.960205,327
839.078308,314
839.196472,325
839.314636,318
839.4328,328
839.550964,320
839.669067,331
839.787231,325
839.905396,322
840.023499,314
840.141602,316
840.259766,325
840.377869,323
840.495972,329
840.614136,328
840.732239,318
840.850342,335
840.968445,321
841.086548,328
841.204651,323
841.322754,310
841.440918,327
841.55896,316
841.677002,315
841.795166,329
841.913208,312
842.031311,334
842.149353,331
842.267456,338
842.385498,323
842.503601,317
842.621643,320
842.739746,327
842.857788,324
842.97583,331
843.093933,310
843.211975,343
843.330017,329
843.44812,317
843.566101,325
843.684204,325
843.802246,317
843.920227,326
844.038269,322
844.156311,320
844.274292,332
844.392395,326
844.510376,328
844.628357,329
844.74646,333
844.864441,328
844.982422,328
845.100403,315
845.218384,321
845.336426,331
845.454468,325
845.572449,335
845.69043,322
845.808411,331
845.926453,321
846.044373,323
846.162354,314
846.280396,325
846.398315,330
846.516296,318
846.634216,330
846.752197,327
846.870178,325
846.988098,336
847.106079,314
847.22406,338
847.34198,326
847.4599,325
847.577881,322
847.695801,328
847.813782,332
847.931641,319
848.049561,326
848.167603,325
848.285461,330
848.403381,334
848.521362,321
848.639221,328
848.75708,318
848.875,324
848.99292,319
849.110901,324
849.22876,330
849.34668,324
849.464539,333
849.582458,323
849.700317,314
849.818176,329
849.936096,326
850.053955,325
850.171875,321
850.289673,316
850.407593,318
850.525452,323
850.643311,304
850.761169,339
850.878967,319
850.996887,319
851.114746,331
851.232544,330
851.350403,310
851.468262,324
851.58606,325
851.703979,328
851.821777,329
851.939636,337
852.057434,322
852.175232,313
852.293091,322
852.410889,333
852.528687,322
852.646545,325
852.764343,325
852.88208,326
852.999939,326
853.117676,335
853.235535,314
853.353271,323
853.471069,326
853.588928,325
853.706604,327
853.824402,343
853.9422,327
854.059998,330
854.177734,323
854.295532,331
854.413269,320
854.531006,331
854.648804,315
854.766541,328
854.884277,321
855.002014,325
855.119751,336
855.237549,329
855.355225,312
855.473022,338
855.590698,331
855.708435,320
855.826172,312
855.943848,327
856.061646,321
856.179321,319
856.296997,320
856.414795,331
856.53241,340
856.650085,337
856.767822,312
856.885559,325
857.003174,320
857.120911,340
857.238586,323
857.356201,334
857.473938,320
857.591614,316
857.709351,319
857.826965,330
857.944641,305
858.062317,313
858.179993,320
858.297668,336
858.415283,321
858.532959,345
858.650574,323
858.768188,319
858.885803,317
859.003479,321
859.121094,338
859.23877,333
859.356384,323
859.473999,342
859.591675,328
859.709229,318
859.826843,326
859.944458,328
860.062012,338
860.179626,313
860.297302,322
860.414856,320
860.532471,305
860.650024,321
860.767639,333
860.885193,332
861.002808,320
861.120361,329
861.237976,326
861.35553,336
861.473022,320
861.590698,312
861.708191,321
861.825745,321
861.943298,327
862.060852,311
862.178406,313
862.295959,323
862.413513,330
862.531006,322
862.64856,322
862.766113,323
862.883667,305
863.00116,325
863.118713,314
863.236206,319
863.353699,318
863.471252,326
863.588745,320
863.706177,313
863.82373,322
863.941162,320
864.058716,309
864.176208,332
864.29364,317
864.411194,330
864.528687,307
864.646118,318
864.763611,328
864.881042,317
864.998535,322
865.116028,317
865.233459,328
865.350891,328
865.468384,311
865.585754,308
865.703308,312
865.820679,328
865.938171,323
866.055542,334
866.173035,326
866.290466,315
866.407837,323
866.52533,335
866.6427,311
866.760071,313
866.877563,322
866.994934,328
867.112305,327
867.229736,327
867.347107,305
867.464539,334
867.58197,327
867.699341,325
867.81665,329
867.934082,325
868.051453,307
868.168823,325
868.286194,328
868.403564,319
868.520935,319
868.638306,328
868.755676,317
868.872986,327
868.990295,315
869.107727,323
869.225037,320
869.342346,323
869.459717,314
869.577026,319
869.694336,333
869.811707,327
869.929016,323
870.046326,330
870.163635,322
870.280945,334
870.398254,340
870.515564,321
870.632812,337
870.750183,337
870.867432,319
870.984741,328
871.102051,310
871.219299,332
871.336609,318
871.453918,338
871.571106,321
871.688416,319
871.805664,323
871.922852,330
872.040222,322
872.157471,326
872.274719,328
872.391968,332
872.509155,331
872.626465,323
872.743652,326
872.860962,327
872.978149,335
873.095337,334
873.212646,327
873.329834,321
873.44696,319
873.564209,328
873.681396,317
873.798645,335
873.915894,330
874.03302,327
874.150208,318
874.267456,332
874.384583,330
874.501831,324
874.618958,319
874.736145,323
874.853333,318
874.970459,330
875.087646,334
875.204834,325
875.32196,331
875.439148,333
875.556274,333
875.673401,324
875.790527,302
875.907715,333
876.024841,313
876.141968,315
876.259094,328
876.376282,338
876.493347,320
876.610474,333
876.7276,321
876.844727,316
876.961853,311
877.078918,332
877.195984,331
877.313171,332
877.430237,321
877.547302,318
877.664368,320
877.781433,331
877.898499,326
878.015625,328
878.13269,318
878.249695,324
878.366821,316
878.483887,337
878.600952,317
878.717957,321
878.834961,322
878.952087,323
879.069092,321
879.186157,331
879.303162,315
879.420227,329
879.537231,319
879.654236,322
879.77124,318
879.888306,322
880.005249,323
880.122314,321
880.239319,316
880.356323,327
880.473328,319
880.590271,319
880.707275,314
880.824341,323
880.941284,320
881.058228,318
881.175232,317
881.292236,310
881.40918,317
881.526123,312
881.643066,324
881.760071,339
881.877014,312
881.993958,304
882.11084,311
882.227783,315
882.344727,329
882.46167,314
882.578613,318
882.695618,331
882.812439,325
882.929382,321
883.046326,316
883.163208,320
883.280151,318
883.397034,320
883.513916,320
883.630798,330
883.747742,322
883.864563,321
883.981506,324
884.098389,331
884.21521,328
884.332153,320
884.448975,312
884.565796,327
884.682678,324
884.7995,333
884.916443,328
885.033264,338
885.150085,319
885.266968,334
885.383789,316
885.500671,332
885.617493,332
885.734314,330
885.851196,332
885.967896,336
886.084717,338
886.201599,332
886.318359,332
886.435181,324
886.552002,326
886.668762,329
886.785645,332
886.902344,334
887.019165,331
887.135925,331
887.252747,320
887.369446,329
887.486267,315
887.603027,332
887.719788,331
887.836548,321
887.953247,332
888.070068,342
888.186829,331
888.303528,317
888.420288,316
888.536987,303
888.653687,310
888.770447,315
888.887146,312
889.003967,330
889.120667,325
889.237305,308
889.354065,320
889.470703,328
889.587463,309
889.704163,328
889.820862,309
889.937561,334
890.054199,322
890.170837,312
890.287598,328
890.404236,320
890.520874,316
890.637634,321
890.754211,312
890.87085,319
890.987549,313
891.104187,332
891.220886,312
891.337463,298
891.454102,333
891.57074,325
891.687378,326
891.804077,312
891.920654,323
892.037231,315
892.15387,316
892.270447,321
892.387085,311
892.503723,323
892.6203,323
892.736877,309
892.853516,304
892.970032,318
893.08667,323
893.203186,328
893.319763,320
893.43634,316
893.552917,318
893.669556,305
893.786011,328
893.902588,321
894.019165,325
894.135681,323
894.252197,318
894.368835,320
894.485291,319
894.601868,318
894.718384,319
894.8349,325
894.951355,312
895.067932,334
895.184448,301
895.300964,327
895.417419,317
895.533936,315
895.650452,328
895.766907,338
895.883423,313
895.999878,310
896.116333,316
896.232849,321
896.349304,309
896.465759,324
896.582214,326
896.698669,331
896.815125,317
896.931641,316
897.048035,316
897.164551,323
897.280884,325
897.397339,323
897.513794,328
897.630249,316
897.746582,314
897.863098,326
897.979431,318
898.095886,323
898.212341,313
898.328674,310
898.445129,321
898.561462,323
898.677795,332
898.794312,322
898.910645,328
899.026978,323
899.143433,312
899.259766,315
899.37616,311
899.492493,315
899.608765,309
899.725159,325
899.841553,315
899.957947,315
900.07428,304
900.190552,318
900.306946,314
900.423157,313
900.53949,328
900.655884,324
900.772156,309
900.888489,315
901.004822,319
901.121033,332
901.237366,314
901.353699,330
901.46991,310
901.586304,322
901.702515,323
901.818787,306
901.93512,318
902.051331,329
902.167603,323
902.283875,330
902.400085,303
902.516418,335
902.632629,323
902.74884,320
902.865112,333
902.981384,322
903.097595,329
903.213867,326
903.330017,324
903.446289,334
903.5625,329
903.67865,329
903.794922,321
903.911072,325
904.027344,324
904.143494,332
904.259705,334
904.375916,313
904.492065,327
904.608215,321
904.724426,321
904.840576,321
904.956726,312
905.072876,318
905.189087,314
905.305176,312
905.421387,324
905.537537,332
905.653687,322
905.769775,317
905.885925,301
906.002014,322
906.118164,306
906.234314,325
906.350403,311
906.466492,308
906.582642,313
906.69873,315
906.814758,321
906.930908,309
907.046936,318
907.163086,324
907.279175,307
907.395264,327
907.511353,320
907.62738,324
907.743408,327
907.859497,320
907.975525,324
908.091553,326
908.207703,321
908.32373,327
908.439758,307
908.555786,327
908.671814,305
908.787842,329
908.90387,312
909.019775,311
909.135864,319
909.251892,322
909.367859,323
909.483826,327
909.599854,319
909.715881,331
909.831848,307
909.947815,321
910.063782,304
910.179749,328
910.295776,323
910.411743,312
910.527649,319
910.643616,308
910.759583,324
910.875488,316
910.991455,304
911.107361,317
911.223267,317
911.339294,326
911.4552,317
911.571106,324
911.687073,319
911.802979,316
911.918823,318
912.034729,309
912.150635,314
912.266602,309
912.382446,305
912.498352,318
912.614197,314
912.730103,320
912.846008,329
