792.44574,309
792.56488,347
792.68396,379
792.80304,377
792.92218,339
793.041199,317
793.160339,322
793.279419,352
793.398499,330
793.517578,329
793.636658,312
793.755737,354
793.874817,348
793.993896,345
794.112976,337
794.232056,330
794.351074,341
794.470215,336
794.589233,332
794.708313,324
794.827393,322
794.946411,332
795.065552,344
795.18457,329
795.303589,323
795.422668,337
795.541687,336
795.660767,334
795.779846,329
795.898865,340
796.017883,342
796.136963,325
796.255981,334
796.375061,327
796.49408,333
796.613037,330
796.732117,322
796.851135,352
796.970154,320
797.089233,329
797.208191,337
797.327271,330
797.446228,321
797.565186,318
797.684265,330
797.803223,314
797.922241,322
798.04126,333
798.160278,330
798.279297,333
798.398315,338
798.517273,328
798.636292,338
798.75531,334
798.874268,339
798.993286,326
799.112244,336
799.231323,320
799.350281,330
799.469238,344
799.588257,330
799.707153,336
799.826111,325
799.945129,324
800.064087,331
800.183044,333
800.302063,331
800.421021,336
800.539978,333
800.658936,330
800.777893,341
800.896912,329
801.015747,318
801.134705,325
801.253723,347
801.37262,338
801.491638,320
801.610535,341
801.729492,338
801.84845,328
801.967407,337
802.086243,323
802.205261,339
802.324158,332
802.443115,323
802.562073,325
802.680969,318
802.799927,318
802.918762,333
803.037659,326
803.156677,323
803.275574,340
803.39447,336
803.513428,323
803.632263,330
803.751221,324
803.870117,319
803.989014,322
804.107971,328
804.226746,340
804.345642,330
804.4646,333
804.583496,346
804.702393,322
804.821228,329
804.940125,323
805.059021,334
805.177917,316
805.296814,325
805.415649,337
805.534546,340
805.653442,323
805.772278,337
805.891113,340
806.01001,330
806.128906,336
806.247742,329
806.366577,324
806.485413,330
806.604309,327
806.723145,337
806.84198,339
806.960876,336
807.079712,341
807.198486,340
807.317383,333
807.436218,344
807.554993,335
807.673889,326
807.792725,320
807.91156,334
808.030396,342
808.14917,344
808.268005,317
808.386841,332
808.505676,330
808.624451,339
808.743286,348
808.862122,333
808.980896,345
809.099731,329
809.218506,336
809.337341,329
809.456116,340
809.57489,317
809.693726,327
809.8125,331
809.931274,327
810.050049,338
810.168884,341
810.287659,338
810.406372,354
810.525269,331
810.643982,337
810.762756,335
810.881531,325
811.000305,321
811.11908,344
811.237854,328
811.356567,335
811.475403,338
811.594116,335
811.71283,332
811.831604,332
811.950378,340
812.069153,336
812.187927,341
812.30658,343
812.425415,319
812.544128,342
812.662781,326
812.781616,339
812.900269,347
813.019043,334
813.137756,341
813.256531,338
813.375244,331
813.493896,329
813.612671,330
813.731384,333
813.850037,332
813.96875,323
814.087524,334
814.206238,320
814.324951,335
814.443604,316
814.562256,337
814.68103,333
814.799683,328
814.918335,325
815.037109,333
815.155762,338
815.274475,342
815.393188,322
815.511841,335
815.630554,333
815.749146,333
815.867859,331
815.986572,342
816.105164,323
816.223877,336
816.342529,330
816.461182,335
816.579895,333
816.698486,326
816.817139,351
816.935791,332
817.054504,317
817.173096,334
817.291748,335
817.4104,328
817.529053,335
817.647644,332
817.766235,332
817.884949,350
818.00354,328
818.122192,320
818.240845,337
818.359436,319
818.478088,322
818.59668,320
818.715271,327
818.833923,326
818.952515,321
819.071106,314
819.189758,329
819.30835,328
819.426941,315
819.545532,316
819.664124,324
819.782715,311
819.901306,322
820.019897,334
820.138489,329
820.25708,322
820.375671,327
820.494202,326
820.612732,308
820.731384,339
820.849915,316
820.968506,321
821.087097,316
821.205627,321
821.324158,311
821.442749,310
821.561279,329
821.679871,318
821.798401,318
821.916931,318
822.035461,321
822.154053,325
822.272583,310
822.391174,307
822.509583,322
822.628174,327
822.746704,332
822.865234,310
822.983765,323
823.102295,310
823.220825,309
823.339294,310
823.457825,309
823.576355,317
823.694824,315
823.813354,316
823.931885,314
824.050354,327
824.168884,320
824.287354,313
824.405823,315
824.524353,326
824.642822,335
824.761353,321
824.879822,312
824.998291,319
825.116699,320
825.235291,314
825.353699,340
825.472168,314
825.590637,314
825.709106,316
825.827576,323
825.946045,327
826.064453,309
826.182983,317
826.301392,311
826.4198,328
826.53833,323
826.656738,313
826.775208,311
826.893677,311
827.012024,320
827.130493,311
827.248962,309
827.36731,318
827.485779,306
827.604248,320
827.722595,306
827.841064,333
827.959412,311
828.077942,322
828.196289,319
828.314636,304
828.433105,318
828.551514,312
828.669861,318
828.78833,312
828.906677,319
829.025085,314
829.143433,306
829.261841,323
829.38031,328
829.498657,319
829.617004,314
829.735413,306
829.85376,322
829.972107,308
830.090515,315
830.208862,325
830.327209,326
830.445557,316
830.563904,301
830.682312,312
830.800659,312
830.919006,330
831.037354,324
831.155701,303
831.274048,320
831.392395,323
831.51062,300
831.629028,310
831.747314,330
831.865662,319
831.984009,321
832.102356,315
832.220642,332
832.338928,306
832.457275,322
832.575623,305
832.693909,317
832.812134,312
832.930481,331
833.048828,320
833.167114,309
833.2854,313
833.403687,316
833.521973,324
833.640259,324
833.758545,319
833.876831,319
833.995056,320
834.113281,319
834.231628,315
834.349915,307
834.468201,325
834.586426,315
834.704651,321
834.822998,312
834.941162,328
835.059448,312
835.177673,305
835.295959,319
835.414246,323
835.53241,305
835.650635,322
835.768921,317
835.887146,325
836.005371,318
836.123596,316
836.241821,319
836.360046,314
836.478271,315
836.596497,313
836.714722,326
836.832886,309
836.95105,320
837.069336,312
837.1875,314
837.305725,317
837.423889,314
837.542053,317
837.660339,324
837.778503,306
837.896667,320
838.014832,320
838.132996,312
838.25116,326
838.369385,317
838.487488,322
838.605713,326
838.723877,320
838.84198,329
838.960205,316
839.078308,319
839.196472,313
839.314636,339
839.4328,312
839.550964,308
839.669067,316
839.787231,317
839.905396,331
840.023499,313
840.141602,327
840.259766,315
840.377869,314
840.495972,324
840.614136,322
840.732239,328
840.850342,325
840.968445,330
841.086548,311
841.204651,315
841.322754,325
841.440918,312
841.55896,324
841.677002,302
841.795166,321
841.913208,309
842.031311,305
842.149353,314
842.267456,316
842.385498,326
842.503601,301
842.621643,328
842.739746,326
842.857788,317
842.97583,327
843.093933,307
843.211975,322
843.330017,307
843.44812,315
843.566101,334
843.684204,317
843.802246,306
843.920227,327
844.038269,306
844.156311,319
844.274292,329
844.392395,319
844.510376,315
844.628357,315
844.74646,317
844.864441,313
844.982422,305
845.100403,299
845.218384,316
845.336426,320
845.454468,309
845.572449,325
845.69043,322
845.808411,318
845.926453,307
846.044373,321
846.162354,307
846.280396,314
846.398315,313
846.516296,322
846.634216,307
846.752197,319
846.870178,325
846.988098,312
847.106079,319
847.22406,316
847.34198,318
847.4599,306
847.577881,325
847.695801,310
847.813782,320
847.931641,311
848.049561,317
848.167603,312
848.285461,307
848.403381,318
848.521362,317
848.639221,318
848.75708,328
848.875,314
848.99292,313
849.110901,314
849.22876,319
849.34668,317
849.464539,328
849.582458,311
849.700317,305
849.818176,320
849.936096,317
850.053955,320
850.171875,319
850.289673,307
850.407593,308
850.525452,318
850.643311,318
850.761169,318
850.878967,318
850.996887,318
851.114746,309
851.232544,325
851.350403,316
851.468262,326
851.58606,323
851.703979,317
851.821777,317
851.939636,324
852.057434,303
852.175232,317
852.293091,317
852.410889,318
852.528687,313
852.646545,305
852.764343,316
852.88208,311
852.999939,323
853.117676,335
853.235535,312
853.353271,325
853.471069,316
853.588928,326
853.706604,316
853.824402,313
853.9422,310
854.059998,302
854.177734,310
854.295532,314
854.413269,311
854.531006,332
854.648804,321
854.766541,322
854.884277,291
855.002014,321
855.119751,289
855.237549,333
855.355225,324
855.473022,308
855.590698,309
855.708435,303
855.826172,311
855.943848,310
856.061646,331
856.179321,306
856.296997,317
856.414795,322
856.53241,313
856.650085,317
856.767822,319
856.885559,298
857.003174,321
857.120911,315
857.238586,306
857.356201,319
857.473938,323
857.591614,316
857.709351,330
857.826965,313
857.944641,315
858.062317,319
858.179993,294
858.297668,310
858.415283,311
858.532959,305
858.650574,310
858.768188,325
858.885803,319
859.003479,306
859.121094,314
859.23877,312
859.356384,305
859.473999,316
859.591675,320
859.709229,302
859.826843,324
859.944458,307
860.062012,329
860.179626,319
860.297302,312
860.414856,318
860.532471,315
860.650024,311
860.767639,301
860.885193,309
861.002808,321
861.120361,316
861.237976,319
861.35553,312
861.473022,323
861.590698,307
861.708191,315
861.825745,302
861.943298,320
862.060852,303
862.178406,327
862.295959,321
862.413513,323
862.531006,311
862.64856,301
862.766113,319
862.883667,319
863.00116,315
863.118713,323
863.236206,321
863.353699,318
863.471252,306
863.588745,323
863.706177,322
863.82373,308
863.941162,311
864.058716,328
864.176208,324
864.29364,320
864.411194,323
864.528687,322
864.646118,315
864.763611,327
864.881042,311
864.998535,315
865.116028,312
865.233459,300
865.350891,321
865.468384,308
865.585754,329
865.703308,323
865.820679,317
865.938171,313
866.055542,320
866.173035,301
866.290466,319
866.407837,320
866.52533,321
866.6427,314
866.760071,325
866.877563,316
866.994934,318
867.112305,317
867.229736,328
867.347107,300
867.464539,313
867.58197,320
867.699341,307
867.81665,309
867.934082,313
868.051453,319
868.168823,311
868.286194,318
868.403564,316
868.520935,323
868.638306,310
868.755676,325
868.872986,318
868.990295,316
869.107727,298
869.225037,312
869.342346,310
869.459717,325
869.577026,321
869.694336,335
869.811707,308
869.929016,316
870.046326,323
870.163635,320
870.280945,319
870.398254,325
870.515564,307
870.632812,315
870.750183,316
870.867432,310
870.984741,314
871.102051,321
871.219299,317
871.336609,311
871.453918,313
871.571106,318
871.688416,329
871.805664,317
871.922852,326
872.040222,319
872.157471,321
872.274719,321
872.391968,328
872.509155,315
872.626465,303
872.743652,324
872.860962,321
872.978149,312
873.095337,309
873.212646,330
873.329834,321
873.44696,316
873.564209,316
873.681396,314
873.798645,307
873.915894,316
874.03302,317
874.150208,312
874.267456,312
874.384583,317
874.501831,306
874.618958,328
874.736145,314
874.853333,311
874.970459,312
875.087646,314
875.204834,328
875.32196,317
875.439148,312
875.556274,314
875.673401,322
875.790527,321
875.907715,302
876.024841,301
876.141968,307
876.259094,333
876.376282,319
876.493347,306
876.610474,316
876.7276,318
876.844727,307
876.961853,311
877.078918,317
877.195984,316
877.313171,312
877.430237,322
877.547302,317
877.664368,315
877.781433,311
877.898499,324
878.015625,320
878.13269,311
878.249695,305
878.366821,324
878.483887,314
878.600952,326
878.717957,299
878.834961,305
878.952087,314
879.069092,316
879.186157,313
879.303162,313
879.420227,310
879.537231,312
879.654236,309
879.77124,311
879.888306,312
880.005249,321
880.122314,309
880.239319,317
880.356323,314
880.473328,309
880.590271,325
880.707275,300
880.824341,314
880.941284,319
881.058228,309
881.175232,314
881.292236,314
881.40918,316
881.526123,316
881.643066,321
881.760071,328
881.877014,317
881.993958,307
882.11084,307
882.227783,303
882.344727,324
882.46167,313
882.578613,312
882.695618,312
882.812439,321
882.929382,310
883.046326,319
883.163208,320
883.280151,306
883.397034,324
883.513916,308
883.630798,318
883.747742,319
883.864563,324
883.981506,326
884.098389,301
884.21521,306
884.332153,323
884.448975,319
884.565796,307
884.682678,318
884.7995,321
884.916443,318
885.033264,315
885.150085,319
885.266968,316
885.383789,325
885.500671,325
885.617493,311
885.734314,316
885.851196,321
885.967896,311
886.084717,316
886.201599,310
886.318359,319
886.435181,323
886.552002,318
886.668762,306
886.785645,310
886.902344,307
887.019165,313
887.135925,309
887.252747,320
887.369446,323
887.486267,325
887.603027,319
887.719788,316
887.836548,307
887.953247,326
888.070068,311
888.186829,318
888.303528,315
888.420288,313
888.536987,316
888.653687,314
888.770447,320
888.887146,323
889.003967,293
889.120667,324
889.237305,324
889.354065,315
889.470703,321
889.587463,310
889.704163,311
889.820862,329
889.937561,306
890.054199,313
890.170837,322
890.287598,312
890.404236,309
890.520874,321
890.637634,318
890.754211,314
890.87085,308
890.987549,314
891.104187,326
891.220886,311
891.337463,320
891.454102,316
891.57074,297
891.687378,307
891.804077,314
891.920654,322
892.037231,317
892.15387,318
892.270447,314
892.387085,319
892.503723,309
892.6203,321
892.736877,307
892.853516,325
892.970032,338
893.08667,311
893.203186,321
893.319763,326
893.43634,321
893.552917,312
893.669556,301
893.786011,319
893.902588,313
894.019165,314
894.135681,312
894.252197,310
894.368835,309
894.485291,310
894.601868,323
894.718384,319
894.8349,303
894.951355,318
895.067932,323
895.184448,320
895.300964,325
895.417419,322
895.533936,311
895.650452,312
895.766907,307
895.883423,318
895.999878,307
896.116333,320
896.232849,311
896.349304,328
896.465759,329
896.582214,317
896.698669,314
896.815125,322
896.931641,319
897.048035,317
897.164551,316
897.280884,325
897.397339,318
897.513794,318
897.630249,325
897.746582,322
897.863098,322
897.979431,316
898.095886,315
898.212341,326
898.328674,325
898.445129,323
898.561462,319
898.677795,319
898.794312,314
898.910645,315
899.026978,322
899.143433,317
899.259766,322
899.37616,317
899.492493,309
899.608765,308
899.725159,308
899.841553,319
899.957947,314
900.07428,321
900.190552,299
900.306946,321
900.423157,301
900.53949,311
900.655884,307
900.772156,324
900.888489,312
901.004822,301
901.121033,328
901.237366,309
901.353699,311
901.46991,315
901.586304,300
901.702515,318
901.818787,306
901.93512,328
902.051331,323
902.167603,316
902.283875,313
902.400085,311
902.516418,310
902.632629,312
902.74884,323
902.865112,321
902.981384,308
903.097595,307
903.213867,326
903.330017,326
903.446289,317
903.5625,319
903.67865,314
903.794922,315
903.911072,323
904.027344,320
904.143494,320
904.259705,328
904.375916,307
904.492065,317
904.608215,321
904.724426,320
904.840576,311
904.956726,317
905.072876,306
905.189087,325
905.305176,320
905.421387,318
905.537537,316
905.653687,322
905.769775,321
905.885925,308
906.002014,322
906.118164,314
906.234314,316
906.350403,323
906.466492,322
906.582642,324
906.69873,313
906.814758,316
906.930908,310
907.046936,319
907.163086,314
907.279175,329
907.395264,305
907.511353,339
907.62738,312
907.743408,314
907.859497,304
907.975525,322
908.091553,310
908.207703,328
908.32373,309
908.439758,316
908.555786,320
908.671814,318
908.787842,317
908.90387,313
909.019775,309
909.135864,317
909.251892,319
909.367859,320
909.483826,310
909.599854,320
909.715881,308
909.831848,322
909.947815,310
910.063782,316
910.179749,298
910.295776,318
910.411743,312
910.527649,321
910.643616,313
910.759583,316
910.875488,318
910.991455,322
911.107361,318
911.223267,321
911.339294,330
911.4552,322
911.571106,329
911.687073,325
911.802979,319
911.918823,316
912.034729,317
912.150635,321
912.266602,307
912.382446,320
912.498352,318
912.614197,320
912.730103,305
912.846008,318
792.44574,307
792.56488,347
792.68396,401
792.80304,369
792.92218,337
793.041199,324
793.160339,341
793.279419,345
793.398499,330
793.517578,323
793.636658,316
793.755737,328
793.874817,342
793.993896,350
794.112976,350
794.232056,340
794.351074,321
794.470215,335
794.589233,344
794.708313,344
794.827393,323
794.946411,325
795.065552,327
795.18457,337
795.303589,340
795.422668,338
795.541687,330
795.660767,344
795.779846,337
795.898865,327
796.017883,346
796.136963,329
796.255981,342
796.375061,346
796.49408,343
796.613037,340
796.732117,326
796.851135,329
796.970154,332
797.089233,332
797.208191,329
797.327271,315
797.446228,337
797.565186,326
797.684265,349
797.803223,337
797.922241,331
798.04126,335
798.160278,336
798.279297,324
798.398315,342
798.517273,333
798.636292,330
798.75531,326
798.874268,335
798.993286,321
799.112244,338
799.231323,328
799.350281,326
799.469238,337
799.588257,333
799.707153,335
799.826111,338
799.945129,333
800.064087,340
800.183044,327
800.302063,334
800.421021,316
800.539978,334
800.658936,323
800.777893,327
800.896912,337
801.015747,346
801.134705,322
801.253723,319
801.37262,329
801.491638,326
801.610535,343
801.729492,330
801.84845,323
801.967407,325
802.086243,319
802.205261,328
802.324158,334
802.443115,333
802.562073,336
802.680969,340
802.799927,322
802.918762,319
803.037659,334
803.156677,319
803.275574,334
803.39447,331
803.513428,328
803.632263,332
803.751221,324
803.870117,327
803.989014,331
804.107971,333
804.226746,309
804.345642,337
804.4646,343
804.583496,332
804.702393,331
804.821228,352
804.940125,335
805.059021,327
805.177917,333
805.296814,328
805.415649,341
805.534546,348
805.653442,337
805.772278,337
805.891113,333
806.01001,318
806.128906,334
806.247742,335
806.366577,334
806.485413,325
806.604309,333
806.723145,341
806.84198,320
806.960876,343
807.079712,336
807.198486,339
807.317383,325
807.436218,324
807.554993,326
807.673889,345
807.792725,345
807.91156,325
808.030396,322
808.14917,326
808.268005,322
808.386841,336
808.505676,326
808.624451,328
808.743286,333
808.862122,352
808.980896,331
809.099731,345
809.218506,315
809.337341,337
809.456116,332
809.57489,333
809.693726,335
809.8125,340
809.931274,328
810.050049,331
810.168884,329
810.287659,327
810.406372,336
810.525269,329
810.643982,332
810.762756,330
810.881531,334
811.000305,335
811.11908,335
811.237854,340
811.356567,322
811.475403,332
811.594116,327
811.71283,334
811.831604,339
811.950378,324
812.069153,337
812.187927,330
812.30658,334
812.425415,344
812.544128,340
812.662781,353
812.781616,331
812.900269,334
813.019043,331
813.137756,358
813.256531,319
813.375244,331
813.493896,340
813.612671,338
813.731384,337
813.850037,337
813.96875,326
814.087524,328
814.206238,333
814.324951,350
814.443604,332
814.562256,325
814.68103,339
814.799683,344
814.918335,336
815.037109,348
815.155762,329
815.274475,328
815.393188,339
815.511841,338
815.630554,337
815.749146,318
815.867859,346
815.986572,322
816.105164,344
816.223877,327
816.342529,338
816.461182,337
816.579895,335
816.698486,338
816.817139,334
816.935791,340
817.054504,333
817.173096,343
817.291748,324
817.4104,340
817.529053,341
817.647644,343
817.766235,338
817.884949,322
818.00354,317
818.122192,312
818.240845,324
818.359436,328
818.478088,317
818.59668,322
818.715271,318
818.833923,327
818.952515,323
819.071106,333
819.189758,322
819.30835,324
819.426941,315
819.545532,324
819.664124,323
819.782715,321
819.901306,324
820.019897,314
820.138489,323
820.25708,329
820.375671,314
820.494202,325
820.612732,312
820.731384,324
820.849915,318
820.968506,318
821.087097,310
821.205627,324
821.324158,310
821.442749,318
821.561279,309
821.679871,322
821.798401,313
821.916931,324
822.035461,314
822.154053,321
822.272583,313
822.391174,304
822.509583,300
822.628174,328
822.746704,319
822.865234,324
822.983765,312
823.102295,326
823.220825,328
823.339294,325
823.457825,309
823.576355,320
823.694824,313
823.813354,327
823.931885,327
824.050354,319
824.168884,316
824.287354,326
824.405823,322
824.524353,329
824.642822,314
824.761353,333
824.879822,325
824.998291,318
825.116699,313
825.235291,308
825.353699,314
825.472168,304
825.590637,324
825.709106,315
825.827576,316
825.946045,328
826.064453,313
826.182983,330
826.301392,319
826.4198,329
826.53833,305
826.656738,321
826.775208,323
826.893677,312
827.012024,314
827.130493,310
827.248962,317
827.36731,331
827.485779,325
827.604248,317
827.722595,313
827.841064,306
827.959412,313
828.077942,309
828.196289,321
828.314636,309
828.433105,312
828.551514,312
828.669861,327
828.78833,318
828.906677,315
829.025085,325
829.143433,326
829.261841,326
829.38031,309
829.498657,324
829.617004,315
829.735413,313
829.85376,315
829.972107,312
830.090515,321
830.208862,309
830.327209,314
830.445557,322
830.563904,317
830.682312,323
830.800659,324
830.919006,313
831.037354,310
831.155701,315
831.274048,331
831.392395,327
831.51062,320
831.629028,321
831.747314,313
831.865662,312
831.984009,315
832.102356,318
832.220642,316
832.338928,324
832.457275,301
832.575623,326
832.693909,323
832.812134,316
832.930481,338
833.048828,317
833.167114,313
833.2854,333
833.403687,315
833.521973,311
833.640259,317
833.758545,320
833.876831,322
833.995056,303
834.113281,324
834.231628,320
834.349915,312
834.468201,322
834.586426,311
834.704651,297
834.822998,314
834.941162,313
835.059448,327
835.177673,317
835.295959,313
835.414246,317
835.53241,314
835.650635,318
835.768921,321
835.887146,328
836.005371,309
836.123596,319
836.241821,322
836.360046,324
836.478271,316
836.596497,328
836.714722,322
836.832886,313
836.95105,330
837.069336,325
837.1875,336
837.305725,330
837.423889,321
837.542053,322
837.660339,303
837.778503,327
837.896667,311
838.014832,330
838.132996,318
838.25116,333
838.369385,329
838.487488,323
838.605713,312
838.723877,324
838.84198,317
838.960205,312
839.078308,319
839.196472,317
839.314636,310
839.4328,314
839.550964,312
839.669067,317
839.787231,323
839.905396,324
840.023499,308
840.141602,325
840.259766,320
840.377869,306
840.495972,319
840.614136,304
840.732239,310
840.850342,327
840.968445,316
841.086548,315
841.204651,313
841.322754,312
841.440918,313
841.55896,322
841.677002,317
841.795166,329
841.913208,313
842.031311,329
842.149353,317
842.267456,317
842.385498,319
842.503601,330
842.621643,307
842.739746,303
842.857788,312
842.97583,320
843.093933,304
843.211975,324
843.330017,318
843.44812,327
843.566101,310
843.684204,334
843.802246,312
843.920227,317
844.038269,318
844.156311,312
844.274292,326
844.392395,305
844.510376,322
844.628357,328
844.74646,307
844.864441,319
844.982422,309
845.100403,323
845.218384,314
845.336426,321
845.454468,309
845.572449,317
845.69043,313
845.808411,312
845.926453,307
846.044373,307
846.162354,321
846.280396,330
846.398315,321
846.516296,309
846.634216,314
846.752197,319
846.870178,319
846.988098,305
847.106079,310
847.22406,314
847.34198,322
847.4599,317
847.577881,305
847.695801,321
847.813782,318
847.931641,329
848.049561,320
848.167603,307
848.285461,301
848.403381,321
848.521362,324
848.639221,323
848.75708,321
848.875,312
848.99292,315
849.110901,308
849.22876,320
849.34668,319
849.464539,323
849.582458,323
849.700317,304
849.818176,326
849.936096,319
850.053955,323
850.171875,300
850.289673,336
850.407593,306
850.525452,317
850.643311,315
850.761169,319
850.878967,311
850.996887,314
851.114746,310
851.232544,319
851.350403,319
851.468262,319
851.58606,321
851.703979,312
851.821777,329
851.939636,313
852.057434,314
852.175232,315
852.293091,310
852.410889,317
852.528687,318
852.646545,325
852.764343,313
852.88208,319
852.999939,298
853.117676,326
853.235535,321
853.353271,324
853.471069,324
853.588928,323
853.706604,324
853.824402,308
853.9422,316
854.059998,317
854.177734,312
854.295532,319
854.413269,326
854.531006,328
854.648804,310
854.766541,318
854.884277,308
855.002014,321
855.119751,316
855.237549,314
855.355225,306
855.473022,313
855.590698,320
855.708435,322
855.826172,324
855.943848,329
856.061646,294
856.179321,316
856.296997,327
856.414795,326
856.53241,307
856.650085,316
856.767822,310
856.885559,320
857.003174,326
857.120911,316
857.238586,331
857.356201,325
857.473938,311
857.591614,316
857.709351,311
857.826965,312
857.944641,314
858.062317,321
858.179993,314
858.297668,324
858.415283,319
858.532959,326
858.650574,306
858.768188,322
858.885803,306
859.003479,321
859.121094,310
859.23877,329
859.356384,302
859.473999,335
859.591675,320
859.709229,311
859.826843,324
859.944458,324
860.062012,322
860.179626,322
860.297302,314
860.414856,321
860.532471,322
860.650024,326
860.767639,303
860.885193,317
861.002808,334
861.120361,319
861.237976,313
861.35553,309
861.473022,324
861.590698,317
861.708191,315
861.825745,309
861.943298,310
862.060852,335
862.178406,306
862.295959,327
862.413513,307
862.531006,329
862.64856,308
862.766113,321
862.883667,312
863.00116,313
863.118713,307
863.236206,316
863.353699,316
863.471252,319
863.588745,308
863.706177,329
863.82373,318
863.941162,324
864.058716,327
864.176208,303
864.29364,319
864.411194,326
864.528687,323
864.646118,321
864.763611,304
864.881042,314
864.998535,299
865.116028,318
865.233459,321
865.350891,307
865.468384,313
865.585754,328
865.703308,311
865.820679,332
865.938171,304
866.055542,319
866.173035,305
866.290466,330
866.407837,311
866.52533,307
866.6427,309
866.760071,320
866.877563,310
866.994934,311
867.112305,314
867.229736,317
867.347107,302
867.464539,322
867.58197,323
867.699341,331
867.81665,317
867.934082,329
868.051453,312
868.168823,312
868.286194,309
868.403564,312
868.520935,311
868.638306,318
868.755676,304
868.872986,332
868.990295,299
869.107727,324
869.225037,312
869.342346,319
869.459717,307
869.577026,323
869.694336,312
869.811707,322
869.929016,313
870.046326,313
870.163635,320
870.280945,311
870.398254,312
870.515564,314
870.632812,316
870.750183,324
870.867432,316
870.984741,319
871.102051,319
871.219299,321
871.336609,330
871.453918,318
871.571106,318
871.688416,320
871.805664,309
871.922852,320
872.040222,308
872.157471,323
872.274719,323
872.391968,316
872.509155,315
872.626465,331
872.743652,319
872.860962,313
872.978149,319
873.095337,314
873.212646,316
873.329834,302
873.44696,316
873.564209,322
873.681396,320
873.798645,319
873.915894,302
874.03302,325
874.150208,305
874.267456,335
874.384583,308
874.501831,310
874.618958,322
874.736145,303
874.853333,323
874.970459,309
875.087646,327
875.204834,320
875.32196,310
875.439148,310
875.556274,299
875.673401,319
875.790527,311
875.907715,322
876.024841,318
876.141968,328
876.259094,331
876.376282,314
876.493347,317
876.610474,320
876.7276,299
876.844727,331
876.961853,328
877.078918,315
877.195984,312
877.313171,326
877.430237,313
877.547302,315
877.664368,300
877.781433,332
877.898499,320
878.015625,321
878.13269,313
878.249695,316
878.366821,309
878.483887,311
878.600952,328
878.717957,321
878.834961,309
878.952087,320
879.069092,306
879.186157,328
879.303162,305
879.420227,310
879.537231,319
879.654236,317
879.77124,311
879.888306,311
880.005249,326
880.122314,316
880.239319,311
880.356323,324
880.473328,305
880.590271,316
880.707275,316
880.824341,321
880.941284,318
881.058228,308
881.175232,315
881.292236,315
881.40918,310
881.526123,312
881.643066,307
881.760071,327
881.877014,316
881.993958,321
882.11084,321
882.227783,328
882.344727,316
882.46167,311
882.578613,309
882.695618,319
882.812439,324
882.929382,318
883.046326,320
883.163208,308
883.280151,311
883.397034,309
883.513916,306
883.630798,308
883.747742,311
883.864563,319
883.981506,299
884.098389,303
884.21521,326
884.332153,312
884.448975,320
884.565796,319
884.682678,304
884.7995,317
884.916443,316
885.033264,329
885.150085,323
885.266968,317
885.383789,324
885.500671,319
885.617493,324
885.734314,315
885.851196,308
885.967896,315
886.084717,301
886.201599,312
886.318359,307
886.435181,326
886.552002,323
886.668762,311
886.785645,311
886.902344,325
887.019165,304
887.135925,324
887.252747,295
887.369446,320
887.486267,324
887.603027,312
887.719788,322
887.836548,326
887.953247,310
888.070068,325
888.186829,322
888.303528,320
888.420288,320
888.536987,337
888.653687,332
888.770447,322
888.887146,303
889.003967,329
889.120667,319
889.237305,324
889.354065,314
889.470703,311
889.587463,315
889.704163,319
889.820862,314
889.937561,328
890.054199,316
890.170837,311
890.287598,318
890.404236,330
890.520874,311
890.637634,329
890.754211,320
890.87085,328
890.987549,310
891.104187,326
891.220886,304
891.337463,313
891.454102,309
891.57074,309
891.687378,307
891.804077,324
891.920654,306
892.037231,321
892.15387,319
892.270447,316
892.387085,318
892.503723,318
892.6203,321
892.736877,326
892.853516,312
892.970032,312
893.08667,299
893.203186,319
893.319763,320
893.43634,310
893.552917,320
893.669556,323
893.786011,327
893.902588,319
894.019165,319
894.135681,317
894.252197,318
894.368835,324
894.485291,312
894.601868,318
894.718384,316
894.8349,309
894.951355,313
895.067932,306
895.184448,307
895.300964,318
895.417419,305
895.533936,323
895.650452,307
895.766907,322
895.883423,308
895.999878,322
896.116333,328
896.232849,328
896.349304,301
896.465759,323
896.582214,315
896.698669,318
896.815125,308
896.931641,329
897.048035,326
897.164551,320
897.280884,303
897.397339,316
897.513794,312
897.630249,313
897.746582,314
897.863098,329
897.979431,318
898.095886,322
898.212341,316
898.328674,321
898.445129,312
898.561462,324
898.677795,302
898.794312,314
898.910645,316
899.026978,312
899.143433,307
899.259766,311
899.37616,320
899.492493,334
899.608765,311
899.725159,319
899.841553,306
899.957947,317
900.07428,322
900.190552,318
900.306946,317
900.423157,316
900.53949,315
900.655884,320
900.772156,321
900.888489,315
901.004822,310
901.121033,325
901.237366,304
901.353699,321
901.46991,315
901.586304,318
901.702515,324
901.818787,319
901.93512,310
902.051331,320
902.167603,311
902.283875,323
902.400085,317
902.516418,322
902.632629,333
902.74884,327
902.865112,311
902.981384,310
903.097595,308
903.213867,321
903.330017,299
903.446289,314
903.5625,317
903.67865,327
903.794922,308
903.911072,309
904.027344,314
904.143494,327
904.259705,315
904.375916,320
904.492065,314
904.608215,327
904.724426,313
904.840576,327
904.956726,305
905.072876,313
905.189087,311
905.305176,313
905.421387,326
905.537537,321
905.653687,315
905.769775,307
905.885925,306
906.002014,338
906.118164,324
906.234314,314
906.350403,316
906.466492,307
906.582642,322
906.69873,310
906.814758,324
906.930908,322
907.046936,307
907.163086,320
907.279175,311
907.395264,318
907.511353,315
907.62738,308
907.743408,308
907.859497,322
907.975525,312
908.091553,319
908.207703,330
908.32373,320
908.439758,312
908.555786,313
908.671814,306
908.787842,314
908.90387,322
909.019775,329
909.135864,325
909.251892,316
909.367859,323
909.483826,322
909.599854,308
909.715881,324
909.831848,306
909.947815,325
910.063782,318
910.179749,317
910.295776,315
910.411743,315
910.527649,316
910.643616,320
910.759583,308
910.875488,323
910.991455,325
911.107361,314
911.223267,307
911.339294,312
911.4552,314
911.571106,317
911.687073,323
911.802979,328
911.918823,298
912.034729,313
912.150635,310
912.266602,326
912.382446,315
912.498352,322
912.614197,312
912.730103,325
912.846008,308
792.44574,321
792.56488,331
792.68396,409
792.80304,372
792.92218,332
793.041199,320
793.160339,327
793.279419,329
793.398499,330
793.517578,334
793.636658,321
793.755737,341
793.874817,357
793.993896,342
794.112976,330
794.232056,334
794.351074,335
794.470215,331
794.589233,338
794.708313,330
794.827393,321
794.946411,336
795.065552,342
795.18457,352
795.303589,340
795.422668,331
795.541687,328
795.660767,329
795.779846,321
795.898865,316
796.017883,334
796.136963,337
796.255981,346
796.375061,330
796.49408,330
796.613037,326
796.732117,322
796.851135,325
796.970154,336
797.089233,331
797.208191,327
797.327271,326
797.446228,334
797.565186,351
797.684265,328
797.803223,342
797.922241,340
798.04126,323
798.160278,340
798.279297,337
798.398315,327
798.517273,340
798.636292,330
798.75531,334
798.874268,336
798.993286,322
799.112244,342
799.231323,330
799.350281,337
799.469238,327
799.588257,328
799.707153,330
799.826111,334
799.945129,326
800.064087,342
800.183044,327
800.302063,344
800.421021,345
800.539978,322
800.658936,345
800.777893,325
800.896912,325
801.015747,323
801.134705,317
801.253723,331
801.37262,329
801.491638,335
801.610535,347
801.729492,330
801.84845,344
801.967407,331
802.086243,335
802.205261,326
802.324158,311
802.443115,338
802.562073,330
802.680969,334
802.799927,337
802.918762,327
803.037659,334
803.156677,329
803.275574,315
803.39447,329
803.513428,335
803.632263,331
803.751221,324
803.870117,348
803.989014,336
804.107971,335
804.226746,330
804.345642,325
804.4646,336
804.583496,324
804.702393,331
804.821228,335
804.940125,330
805.059021,319
805.177917,340
805.296814,331
805.415649,320
805.534546,336
805.653442,338
805.772278,337
805.891113,329
806.01001,342
806.128906,340
806.247742,333
806.366577,330
806.485413,328
806.604309,342
806.723145,339
806.84198,330
806.960876,338
807.079712,343
807.198486,341
807.317383,343
807.436218,330
807.554993,348
807.673889,335
807.792725,351
807.91156,330
808.030396,318
808.14917,336
808.268005,327
808.386841,339
808.505676,319
808.624451,334
808.743286,331
808.862122,328
808.980896,349
809.099731,337
809.218506,339
809.337341,329
809.456116,338
809.57489,324
809.693726,336
809.8125,355
809.931274,328
810.050049,346
810.168884,321
810.287659,358
810.406372,329
810.525269,335
810.643982,340
810.762756,329
810.881531,343
811.000305,343
811.11908,336
811.237854,327
811.356567,343
811.475403,334
811.594116,349
811.71283,336
811.831604,330
811.950378,334
812.069153,339
812.187927,339
812.30658,342
812.425415,327
812.544128,341
812.662781,334
812.781616,344
812.900269,328
813.019043,324
813.137756,347
813.256531,345
813.375244,352
813.493896,344
813.612671,336
813.731384,342
813.850037,335
813.96875,339
814.087524,331
814.206238,339
814.324951,333
814.443604,328
814.562256,347
814.68103,336
814.799683,338
814.918335,339
815.037109,330
815.155762,345
815.274475,320
815.393188,326
815.511841,343
815.630554,333
815.749146,341
815.867859,346
815.986572,319
816.105164,326
816.223877,332
816.342529,337
816.461182,341
816.579895,327
816.698486,329
816.817139,344
816.935791,335
817.054504,344
817.173096,336
817.291748,333
817.4104,342
817.529053,351
817.647644,339
817.766235,341
817.884949,328
818.00354,321
818.122192,331
818.240845,316
818.359436,324
818.478088,331
818.59668,330
818.715271,330
818.833923,313
818.952515,328
819.071106,324
819.189758,326
819.30835,320
819.426941,317
819.545532,325
819.664124,325
819.782715,309
819.901306,340
820.019897,331
820.138489,328
820.25708,311
820.375671,325
820.494202,320
820.612732,340
820.731384,316
820.849915,330
820.968506,324
821.087097,323
821.205627,339
821.324158,316
821.442749,318
821.561279,321
821.679871,331
821.798401,323
821.916931,320
822.035461,327
822.154053,333
822.272583,310
822.391174,332
822.509583,306
822.628174,330
822.746704,328
822.865234,327
822.983765,323
823.102295,320
823.220825,313
823.339294,335
823.457825,321
823.576355,309
823.694824,324
823.813354,322
823.931885,309
824.050354,328
824.168884,328
824.287354,304
824.405823,322
824.524353,331
824.642822,323
824.761353,327
824.879822,326
824.998291,325
825.116699,331
825.235291,307
825.353699,314
825.472168,326
825.590637,322
825.709106,324
825.827576,324
825.946045,318
826.064453,325
826.182983,325
826.301392,310
826.4198,332
826.53833,321
826.656738,323
826.775208,319
826.893677,312
827.012024,321
827.130493,318
827.248962,321
827.36731,313
827.485779,328
827.604248,330
827.722595,309
827.841064,317
827.959412,307
828.077942,314
828.196289,334
828.314636,323
828.433105,322
828.551514,317
828.669861,318
828.78833,330
828.906677,323
829.025085,316
829.143433,316
829.261841,315
829.38031,332
829.498657,318
829.617004,317
829.735413,321
829.85376,324
829.972107,327
830.090515,301
830.208862,312
830.327209,312
830.445557,313
830.563904,333
830.682312,321
830.800659,334
830.919006,326
831.037354,319
831.155701,314
831.274048,329
831.392395,324
831.51062,322
831.629028,317
831.747314,316
831.865662,331
831.984009,317
832.102356,329
832.220642,318
832.338928,331
832.457275,311
832.575623,307
832.693909,320
832.812134,323
832.930481,318
833.048828,329
833.167114,320
833.2854,329
833.403687,324
833.521973,316
833.640259,325
833.758545,309
833.876831,311
833.995056,304
834.113281,313
834.231628,343
834.349915,318
834.468201,316
834.586426,315
834.704651,323
834.822998,340
834.941162,316
835.059448,315
835.177673,294
835.295959,321
835.414246,329
835.53241,307
835.650635,327
835.768921,328
835.887146,321
836.005371,312
836.123596,311
836.241821,307
836.360046,316
836.478271,318
836.596497,312
836.714722,316
836.832886,321
836.95105,308
837.069336,322
837.1875,325
837.305725,312
837.423889,325
837.542053,323
837.660339,322
837.778503,319
837.896667,321
838.014832,320
838.132996,305
838.25116,321
838.369385,325
838.487488,325
838.605713,327
838.723877,322
838.84198,328
838.960205,321
839.078308,321
839.196472,315
839.314636,328
839.4328,327
839.550964,326
839.669067,302
839.787231,326
839.905396,327
840.023499,326
840.141602,323
840.259766,330
840.377869,319
840.495972,331
840.614136,315
840.732239,334
840.850342,322
840.968445,319
841.086548,318
841.204651,322
841.322754,329
841.440918,320
841.55896,323
841.677002,328
841.795166,310
841.913208,316
842.031311,312
842.149353,324
842.267456,308
842.385498,325
842.503601,325
842.621643,308
842.739746,319
842.857788,321
842.97583,321
843.093933,318
843.211975,299
843.330017,313
843.44812,315
843.566101,327
843.684204,332
843.802246,322
843.920227,317
844.038269,325
844.156311,317
844.274292,308
844.392395,314
844.510376,321
844.628357,323
844.74646,308
844.864441,309
844.982422,318
845.100403,315
845.218384,307
845.336426,311
845.454468,307
845.572449,319
845.69043,315
845.808411,315
845.926453,323
846.044373,306
846.162354,323
846.280396,320
846.398315,304
846.516296,309
846.634216,312
846.752197,307
846.870178,312
846.988098,320
847.106079,317
847.22406,313
847.34198,333
847.4599,311
847.577881,313
847.695801,314
847.813782,313
847.931641,319
848.049561,319
848.167603,325
848.285461,323
848.403381,319
848.521362,326
848.639221,309
848.75708,315
848.875,320
848.99292,323
849.110901,312
849.22876,313
849.34668,313
849.464539,324
849.582458,301
849.700317,303
849.818176,334
849.936096,314
850.053955,319
850.171875,318
850.289673,318
850.407593,329
850.525452,302
850.643311,326
850.761169,325
850.878967,326
850.996887,327
851.114746,309
851.232544,328
851.350403,305
851.468262,316
851.58606,315
851.703979,323
851.821777,311
851.939636,319
852.057434,319
852.175232,331
852.293091,319
852.410889,304
852.528687,319
852.646545,318
852.764343,317
852.88208,317
852.999939,315
853.117676,319
853.235535,313
853.353271,320
853.471069,319
853.588928,323
853.706604,329
853.824402,317
853.9422,325
854.059998,306
854.177734,318
854.295532,314
854.413269,323
854.531006,302
854.648804,317
854.766541,311
854.884277,316
855.002014,321
855.119751,311
855.237549,322
855.355225,309
855.473022,317
855.590698,311
855.708435,316
855.826172,318
855.943848,315
856.061646,314
856.179321,303
856.296997,316
856.414795,321
856.53241,323
856.650085,324
856.767822,310
856.885559,318
857.003174,318
857.120911,313
857.238586,306
857.356201,315
857.473938,323
857.591614,303
857.709351,311
857.826965,316
857.944641,317
858.062317,320
858.179993,322
858.297668,306
858.415283,329
858.532959,312
858.650574,326
858.768188,315
858.885803,320
859.003479,313
859.121094,316
859.23877,308
859.356384,318
859.473999,327
859.591675,323
859.709229,320
859.826843,331
859.944458,314
860.062012,321
860.179626,331
860.297302,327
860.414856,322
860.532471,326
860.650024,321
860.767639,313
860.885193,315
861.002808,312
861.120361,318
861.237976,321
861.35553,307
861.473022,318
861.590698,319
861.708191,315
861.825745,310
861.943298,316
862.060852,310
862.178406,309
862.295959,311
862.413513,315
862.531006,326
862.64856,302
862.766113,307
862.883667,332
863.00116,327
863.118713,316
863.236206,321
863.353699,314
863.471252,317
863.588745,323
863.706177,319
863.82373,308
863.941162,303
864.058716,316
864.176208,319
864.29364,340
864.411194,322
864.528687,307
864.646118,308
864.763611,317
864.881042,316
864.998535,315
865.116028,318
865.233459,328
865.350891,323
865.468384,319
865.585754,314
865.703308,330
865.820679,324
865.938171,317
866.055542,324
866.173035,315
866.290466,313
866.407837,317
866.52533,323
866.6427,322
866.760071,319
866.877563,326
866.994934,325
867.112305,332
867.229736,322
867.347107,321
867.464539,317
867.58197,306
867.699341,323
867.81665,316
867.934082,323
868.051453,312
868.168823,318
868.286194,322
868.403564,321
868.520935,331
868.638306,307
868.755676,307
868.872986,318
868.990295,302
869.107727,324
869.225037,323
869.342346,308
869.459717,335
869.577026,314
869.694336,316
869.811707,323
869.929016,316
870.046326,324
870.163635,313
870.280945,309
870.398254,318
870.515564,313
870.632812,320
870.750183,331
870.867432,321
870.984741,322
871.102051,319
871.219299,322
871.336609,319
871.453918,323
871.571106,319
871.688416,316
871.805664,316
871.922852,322
872.040222,322
872.157471,312
872.274719,322
872.391968,324
872.509155,315
872.626465,329
872.743652,315
872.860962,310
872.978149,315
873.095337,311
873.212646,319
873.329834,320
873.44696,316
873.564209,320
873.681396,319
873.798645,309
873.915894,317
874.03302,316
874.150208,327
874.267456,314
874.384583,323
874.501831,321
874.618958,322
874.736145,315
874.853333,317
874.970459,323
875.087646,323
875.204834,331
875.32196,310
875.439148,325
875.556274,311
875.673401,315
875.790527,310
875.907715,313
876.024841,319
876.141968,311
876.259094,313
876.376282,332
876.493347,320
876.610474,319
876.7276,321
876.844727,313
876.961853,326
877.078918,317
877.195984,334
877.313171,311
877.430237,312
877.547302,308
877.664368,331
877.781433,315
877.898499,318
878.015625,317
878.13269,307
878.249695,310
878.366821,316
878.483887,334
878.600952,308
878.717957,325
878.834961,336
878.952087,315
879.069092,314
879.186157,316
879.303162,315
879.420227,322
879.537231,320
879.654236,314
879.77124,320
879.888306,322
880.005249,313
880.122314,313
880.239319,323
880.356323,319
880.473328,313
880.590271,325
880.707275,306
880.824341,324
880.941284,318
881.058228,320
881.175232,325
881.292236,329
881.40918,320
881.526123,316
881.643066,317
881.760071,316
881.877014,319
881.993958,321
882.11084,315
882.227783,318
882.344727,323
882.46167,315
882.578613,323
882.695618,319
882.812439,326
882.929382,329
883.046326,320
883.163208,311
883.280151,320
883.397034,325
883.513916,327
883.630798,327
883.747742,321
883.864563,309
883.981506,321
884.098389,315
884.21521,324
884.332153,324
884.448975,308
884.565796,320
884.682678,321
884.7995,316
884.916443,329
885.033264,319
885.150085,322
885.266968,328
885.383789,320
885.500671,324
885.617493,298
885.734314,329
885.851196,320
885.967896,323
886.084717,321
886.201599,312
886.318359,318
886.435181,320
886.552002,317
886.668762,313
886.785645,319
886.902344,316
887.019165,319
887.135925,314
887.252747,317
887.369446,316
887.486267,322
887.603027,319
887.719788,314
887.836548,312
887.953247,318
888.070068,319
888.186829,317
888.303528,319
888.420288,317
888.536987,325
888.653687,322
888.770447,313
888.887146,315
889.003967,319
889.120667,323
889.237305,323
889.354065,312
889.470703,322
889.587463,319
889.704163,311
889.820862,309
889.937561,334
890.054199,320
890.170837,303
890.287598,320
890.404236,326
890.520874,322
890.637634,319
890.754211,309
890.87085,316
890.987549,313
891.104187,321
891.220886,314
891.337463,310
891.454102,312
891.57074,309
891.687378,329
891.804077,311
891.920654,322
892.037231,315
892.15387,325
892.270447,307
892.387085,321
892.503723,315
892.6203,310
892.736877,308
892.853516,328
892.970032,309
893.08667,308
893.203186,312
893.319763,324
893.43634,316
893.552917,323
893.669556,300
893.786011,331
893.902588,324
894.019165,326
894.135681,319
894.252197,316
894.368835,317
894.485291,318
894.601868,322
894.718384,325
894.8349,317
894.951355,316
895.067932,314
895.184448,320
895.300964,322
895.417419,312
895.533936,331
895.650452,318
895.766907,322
895.883423,313
895.999878,322
896.116333,317
896.232849,316
896.349304,318
896.465759,313
896.582214,326
896.698669,314
896.815125,324
896.931641,322
897.048035,329
897.164551,322
897.280884,322
897.397339,323
897.513794,322
897.630249,327
897.746582,326
897.863098,322
897.979431,320
898.095886,322
898.212341,325
898.328674,318
898.445129,311
898.561462,319
898.677795,310
898.794312,325
898.910645,314
899.026978,312
899.143433,317
899.259766,316
899.37616,325
899.492493,321
899.608765,329
899.725159,300
899.841553,320
899.957947,315
900.07428,315
900.190552,320
900.306946,311
900.423157,318
900.53949,313
900.655884,315
900.772156,317
900.888489,326
901.004822,323
901.121033,323
901.237366,323
901.353699,307
901.46991,316
901.586304,334
901.702515,323
901.818787,310
901.93512,314
902.051331,319
902.167603,322
902.283875,325
902.400085,316
902.516418,321
902.632629,309
902.74884,323
902.865112,327
902.981384,313
903.097595,315
903.213867,316
903.330017,324
903.446289,310
903.5625,335
903.67865,309
903.794922,317
903.911072,325
904.027344,318
904.143494,312
904.259705,322
904.375916,309
904.492065,319
904.608215,315
904.724426,313
904.840576,313
904.956726,321
905.072876,317
905.189087,315
905.305176,313
905.421387,316
905.537537,322
905.653687,331
905.769775,321
905.885925,322
906.002014,318
906.118164,317
906.234314,335
906.350403,306
906.466492,326
906.582642,328
906.69873,316
906.814758,325
906.930908,312
907.046936,317
907.163086,320
907.279175,320
907.395264,320
907.511353,322
907.62738,316
907.743408,324
907.859497,319
907.975525,315
908.091553,316
908.207703,331
908.32373,306
908.439758,316
908.555786,325
908.671814,324
908.787842,327
908.90387,329
909.019775,313
909.135864,318
909.251892,307
909.367859,334
909.483826,325
909.599854,325
909.715881,317
909.831848,319
909.947815,313
910.063782,331
910.179749,324
910.295776,312
910.411743,320
910.527649,325
910.643616,320
910.759583,323
910.875488,321
910.991455,320
911.107361,315
911.223267,315
911.339294,329
911.4552,327
911.571106,325
911.687073,323
911.802979,323
911.918823,325
912.034729,322
912.150635,324
912.266602,318
912.382446,311
912.498352,311
912.614197,304
912.730103,312
912.846008,321
