792.44574,307
792.56488,355
792.68396,397
792.80304,389
792.92218,338
793.041199,322
793.160339,316
793.279419,334
793.398499,324
793.517578,324
793.636658,324
793.755737,344
793.874817,345
793.993896,353
794.112976,333
794.232056,315
794.351074,314
794.470215,339
794.589233,340
794.708313,339
794.827393,324
794.946411,327
795.065552,333
795.18457,334
795.303589,336
795.422668,331
795.541687,318
795.660767,331
795.779846,335
795.898865,338
796.017883,339
796.136963,353
796.255981,323
796.375061,346
796.49408,332
796.613037,340
796.732117,333
796.851135,332
796.970154,338
797.089233,327
797.208191,341
797.327271,318
797.446228,332
797.565186,333
797.684265,340
797.803223,326
797.922241,326
798.04126,328
798.160278,346
798.279297,333
798.398315,339
798.517273,334
798.636292,332
798.75531,339
798.874268,327
798.993286,330
799.112244,311
799.231323,342
799.350281,343
799.469238,341
799.588257,334
799.707153,331
799.826111,319
799.945129,333
800.064087,329
800.183044,333
800.302063,318
800.421021,337
800.539978,334
800.658936,315
800.777893,327
800.896912,337
801.015747,315
801.134705,325
801.253723,340
801.37262,327
801.491638,329
801.610535,322
801.729492,318
801.84845,338
801.967407,324
802.086243,325
802.205261,333
802.324158,337
802.443115,339
802.562073,329
802.680969,339
802.799927,338
802.918762,331
803.037659,319
803.156677,318
803.275574,331
803.39447,316
803.513428,334
803.632263,332
803.751221,328
803.870117,318
803.989014,348
804.107971,318
804.226746,346
804.345642,341
804.4646,326
804.583496,324
804.702393,326
804.821228,337
804.940125,331
805.059021,328
805.177917,328
805.296814,340
805.415649,332
805.534546,341
805.653442,336
805.772278,322
805.891113,324
806.01001,335
806.128906,324
806.247742,343
806.366577,325
806.485413,319
806.604309,322
806.723145,324
806.84198,329
806.960876,324
807.079712,333
807.198486,319
807.317383,342
807.436218,325
807.554993,317
807.673889,336
807.792725,340
807.91156,345
808.030396,336
808.14917,336
808.268005,346
808.386841,329
808.505676,343
808.624451,328
808.743286,328
808.862122,324
808.980896,334
809.099731,327
809.218506,321
809.337341,325
809.456116,327
809.57489,340
809.693726,330
809.8125,329
809.931274,319
810.050049,333
810.168884,333
810.287659,332
810.406372,333
810.525269,323
810.643982,324
810.762756,342
810.881531,331
811.000305,332
811.11908,318
811.237854,324
811.356567,338
811.475403,327
811.594116,334
811.71283,339
811.831604,334
811.950378,336
812.069153,328
812.187927,330
812.30658,335
812.425415,330
812.544128,334
812.662781,332
812.781616,338
812.900269,340
813.019043,324
813.137756,326
813.256531,342
813.375244,349
813.493896,327
813.612671,353
813.731384,332
813.850037,332
813.96875,336
814.087524,329
814.206238,338
814.324951,327
814.443604,328
814.562256,330
814.68103,341
814.799683,317
814.918335,346
815.037109,326
815.155762,335
815.274475,343
815.393188,331
815.511841,333
815.630554,339
815.749146,346
815.867859,342
815.986572,324
816.105164,335
816.223877,337
816.342529,343
816.461182,328
816.579895,333
816.698486,330
816.817139,325
816.935791,324
817.054504,336
817.173096,326
817.291748,336
817.4104,329
817.529053,341
817.647644,326
817.766235,330
817.884949,312
818.00354,327
818.122192,326
818.240845,327
818.359436,322
818.478088,340
818.59668,328
818.715271,319
818.833923,318
818.952515,321
819.071106,322
819.189758,308
819.30835,311
819.426941,308
819.545532,328
819.664124,334
819.782715,324
819.901306,322
820.019897,323
820.138489,329
820.25708,325
820.375671,323
820.494202,300
820.612732,322
820.731384,329
820.849915,325
820.968506,316
821.087097,326
821.205627,328
821.324158,331
821.442749,306
821.561279,334
821.679871,307
821.798401,339
821.916931,322
822.035461,321
822.154053,322
822.272583,315
822.391174,320
822.509583,317
822.628174,319
822.746704,318
822.865234,315
822.983765,330
823.102295,325
823.220825,320
823.339294,302
823.457825,327
823.576355,319
823.694824,313
823.813354,327
823.931885,310
824.050354,318
824.168884,313
824.287354,314
824.405823,322
824.524353,323
824.642822,323
824.761353,340
824.879822,320
824.998291,318
825.116699,318
825.235291,318
825.353699,318
825.472168,327
825.590637,320
825.709106,326
825.827576,324
825.946045,316
826.064453,317
826.182983,316
826.301392,319
826.4198,323
826.53833,328
826.656738,316
826.775208,305
826.893677,319
827.012024,316
827.130493,322
827.248962,311
827.36731,316
827.485779,314
827.604248,301
827.722595,323
827.841064,308
827.959412,319
828.077942,311
828.196289,310
828.314636,314
828.433105,318
828.551514,321
828.669861,318
828.78833,315
828.906677,320
829.025085,320
829.143433,317
829.261841,311
829.38031,320
829.498657,319
829.617004,318
829.735413,311
829.85376,325
829.972107,320
830.090515,320
830.208862,312
830.327209,324
830.445557,306
830.563904,331
830.682312,330
830.800659,320
830.919006,328
831.037354,312
831.155701,307
831.274048,319
831.392395,327
831.51062,316
831.629028,331
831.747314,319
831.865662,326
831.984009,330
832.102356,333
832.220642,323
832.338928,320
832.457275,319
832.575623,306
832.693909,333
832.812134,316
832.930481,323
833.048828,320
833.167114,312
833.2854,329
833.403687,314
833.521973,315
833.640259,316
833.758545,323
833.876831,327
833.995056,316
834.113281,321
834.231628,320
834.349915,308
834.468201,309
834.586426,326
834.704651,326
834.822998,315
834.941162,308
835.059448,336
835.177673,316
835.295959,318
835.414246,316
835.53241,317
835.650635,310
835.768921,316
835.887146,303
836.005371,314
836.123596,326
836.241821,320
836.360046,311
836.478271,316
836.596497,313
836.714722,321
836.832886,328
836.95105,317
837.069336,324
837.1875,312
837.305725,311
837.423889,325
837.542053,321
837.660339,327
837.778503,327
837.896667,309
838.014832,326
838.132996,326
838.25116,323
838.369385,324
838.487488,312
838.605713,329
838.723877,319
838.84198,323
838.960205,324
839.078308,324
839.196472,313
839.314636,332
839.4328,313
839.550964,320
839.669067,317
839.787231,320
839.905396,321
840.023499,316
840.141602,324
840.259766,305
840.377869,340
840.495972,323
840.614136,310
840.732239,313
840.850342,324
840.968445,320
841.086548,324
841.204651,314
841.322754,310
841.440918,313
841.55896,326
841.677002,326
841.795166,312
841.913208,334
842.031311,324
842.149353,316
842.267456,338
842.385498,316
842.503601,329
842.621643,321
842.739746,315
842.857788,315
842.97583,300
843.093933,322
843.211975,323
843.330017,328
843.44812,307
843.566101,322
843.684204,321
843.802246,306
843.920227,310
844.038269,307
844.156311,320
844.274292,320
844.392395,319
844.510376,325
844.628357,315
844.74646,317
844.864441,318
844.982422,326
845.100403,317
845.218384,327
845.336426,327
845.454468,313
845.572449,303
845.69043,317
845.808411,316
845.926453,311
846.044373,317
846.162354,324
846.280396,308
846.398315,322
846.516296,317
846.634216,317
846.752197,318
846.870178,309
846.988098,323
847.106079,320
847.22406,328
847.34198,323
847.4599,313
847.577881,322
847.695801,308
847.813782,323
847.931641,319
848.049561,313
848.167603,312
848.285461,323
848.403381,317
848.521362,319
848.639221,310
848.75708,317
848.875,314
848.99292,314
849.110901,318
849.22876,310
849.34668,312
849.464539,326
849.582458,318
849.700317,312
849.818176,323
849.936096,305
850.053955,319
850.171875,307
850.289673,314
850.407593,323
850.525452,315
850.643311,311
850.761169,309
850.878967,316
850.996887,308
851.114746,322
851.232544,321
851.350403,308
851.468262,301
851.58606,328
851.703979,318
851.821777,308
851.939636,309
852.057434,316
852.175232,313
852.293091,315
852.410889,309
852.528687,309
852.646545,328
852.764343,323
852.88208,328
852.999939,310
853.117676,310
853.235535,314
853.353271,311
853.471069,312
853.588928,320
853.706604,319
853.824402,308
853.9422,320
854.059998,313
854.177734,325
854.295532,322
854.413269,317
854.531006,321
854.648804,329
854.766541,323
854.884277,316
855.002014,314
855.119751,327
855.237549,333
855.355225,324
855.473022,303
855.590698,326
855.708435,305
855.826172,327
855.943848,317
856.061646,323
856.179321,312
856.296997,331
856.414795,302
856.53241,312
856.650085,313
856.767822,316
856.885559,318
857.003174,324
857.120911,327
857.238586,317
857.356201,316
857.473938,314
857.591614,317
857.709351,316
857.826965,318
857.944641,310
858.062317,325
858.179993,318
858.297668,287
858.415283,323
858.532959,306
858.650574,329
858.768188,325
858.885803,320
859.003479,308
859.121094,319
859.23877,322
859.356384,324
859.473999,312
859.591675,320
859.709229,322
859.826843,334
859.944458,322
860.062012,310
860.179626,319
860.297302,311
860.414856,328
860.532471,306
860.650024,327
860.767639,318
860.885193,307
861.002808,328
861.120361,314
861.237976,316
861.35553,321
861.473022,316
861.590698,316
861.708191,306
861.825745,321
861.943298,314
862.060852,316
862.178406,323
862.295959,326
862.413513,314
862.531006,318
862.64856,302
862.766113,301
862.883667,304
863.00116,317
863.118713,335
863.236206,319
863.353699,318
863.471252,318
863.588745,321
863.706177,312
863.82373,305
863.941162,316
864.058716,324
864.176208,312
864.29364,314
864.411194,323
864.528687,324
864.646118,315
864.763611,317
864.881042,316
864.998535,316
865.116028,328
865.233459,327
865.350891,309
865.468384,312
865.585754,327
865.703308,314
865.820679,313
865.938171,328
866.055542,310
866.173035,337
866.290466,313
866.407837,316
866.52533,304
866.6427,313
866.760071,324
866.877563,319
866.994934,323
867.112305,320
867.229736,324
867.347107,302
867.464539,314
867.58197,311
867.699341,308
867.81665,314
867.934082,289
868.051453,328
868.168823,321
868.286194,308
868.403564,326
868.520935,305
868.638306,325
868.755676,306
868.872986,300
868.990295,322
869.107727,309
869.225037,316
869.342346,309
869.459717,321
869.577026,312
869.694336,325
869.811707,315
869.929016,324
870.046326,311
870.163635,326
870.280945,314
870.398254,303
870.515564,317
870.632812,317
870.750183,308
870.867432,316
870.984741,305
871.102051,326
871.219299,319
871.336609,326
871.453918,315
871.571106,317
871.688416,304
871.805664,317
871.922852,321
872.040222,321
872.157471,313
872.274719,319
872.391968,314
872.509155,307
872.626465,321
872.743652,327
872.860962,318
872.978149,315
873.095337,312
873.212646,311
873.329834,317
873.44696,326
873.564209,318
873.681396,318
873.798645,314
873.915894,324
874.03302,331
874.150208,322
874.267456,311
874.384583,311
874.501831,322
874.618958,328
874.736145,299
874.853333,307
874.970459,318
875.087646,328
875.204834,309
875.32196,313
875.439148,319
875.556274,322
875.673401,312
875.790527,311
875.907715,318
876.024841,327
876.141968,308
876.259094,321
876.376282,306
876.493347,324
876.610474,320
876.7276,308
876.844727,316
876.961853,326
877.078918,328
877.195984,315
877.313171,302
877.430237,329
877.547302,309
877.664368,331
877.781433,316
877.898499,319
878.015625,306
878.13269,320
878.249695,322
878.366821,324
878.483887,305
878.600952,329
878.717957,303
878.834961,308
878.952087,311
879.069092,308
879.186157,310
879.303162,322
879.420227,314
879.537231,322
879.654236,313
879.77124,322
879.888306,317
880.005249,323
880.122314,313
880.239319,317
880.356323,309
880.473328,322
880.590271,326
880.707275,317
880.824341,311
880.941284,321
881.058228,316
881.175232,323
881.292236,317
881.40918,317
881.526123,315
881.643066,308
881.760071,308
881.877014,308
881.993958,307
882.11084,313
882.227783,317
882.344727,321
882.46167,317
882.578613,324
882.695618,305
882.812439,324
882.929382,303
883.046326,332
883.163208,308
883.280151,307
883.397034,321
883.513916,329
883.630798,321
883.747742,308
883.864563,323
883.981506,321
884.098389,305
884.21521,315
884.332153,298
884.448975,317
884.565796,318
884.682678,317
884.7995,313
884.916443,315
885.033264,316
885.150085,308
885.266968,329
885.383789,321
885.500671,310
885.617493,321
885.734314,323
885.851196,316
885.967896,311
886.084717,319
886.201599,323
886.318359,329
886.435181,319
886.552002,321
886.668762,302
886.785645,326
886.902344,313
887.019165,309
887.135925,311
887.252747,320
887.369446,312
887.486267,319
887.603027,301
887.719788,323
887.836548,318
887.953247,329
888.070068,319
888.186829,329
888.303528,311
888.420288,326
888.536987,312
888.653687,303
888.770447,318
888.887146,319
889.003967,312
889.120667,321
889.237305,315
889.354065,334
889.470703,314
889.587463,303
889.704163,311
889.820862,325
889.937561,324
890.054199,323
890.170837,311
890.287598,313
890.404236,317
890.520874,319
890.637634,314
890.754211,331
890.87085,305
890.987549,324
891.104187,327
891.220886,317
891.337463,312
891.454102,328
891.57074,322
891.687378,326
891.804077,321
891.920654,319
892.037231,313
892.15387,316
892.270447,316
892.387085,319
892.503723,329
892.6203,310
892.736877,319
892.853516,319
892.970032,315
893.08667,317
893.203186,323
893.319763,327
893.43634,318
893.552917,313
893.669556,315
893.786011,327
893.902588,317
894.019165,311
894.135681,314
894.252197,320
894.368835,309
894.485291,332
894.601868,317
894.718384,321
894.8349,312
894.951355,322
895.067932,313
895.184448,313
895.300964,314
895.417419,329
895.533936,317
895.650452,323
895.766907,310
895.883423,317
895.999878,307
896.116333,333
896.232849,301
896.349304,309
896.465759,311
896.582214,317
896.698669,324
896.815125,308
896.931641,305
897.048035,331
897.164551,315
897.280884,316
897.397339,324
897.513794,323
897.630249,322
897.746582,331
897.863098,311
897.979431,316
898.095886,321
898.212341,336
898.328674,329
898.445129,334
898.561462,323
898.677795,314
898.794312,316
898.910645,308
899.026978,326
899.143433,323
899.259766,305
899.37616,311
899.492493,306
899.608765,319
899.725159,319
899.841553,322
899.957947,314
900.07428,326
900.190552,310
900.306946,308
900.423157,310
900.53949,321
900.655884,323
900.772156,312
900.888489,299
901.004822,312
901.121033,308
901.237366,309
901.353699,309
901.46991,315
901.586304,304
901.702515,330
901.818787,320
901.93512,320
902.051331,313
902.167603,324
902.283875,318
902.400085,326
902.516418,324
902.632629,327
902.74884,316
902.865112,327
902.981384,314
903.097595,328
903.213867,318
903.330017,323
903.446289,312
903.5625,310
903.67865,311
903.794922,332
903.911072,318
904.027344,339
904.143494,320
904.259705,323
904.375916,312
904.492065,314
904.608215,314
904.724426,317
904.840576,320
904.956726,325
905.072876,311
905.189087,329
905.305176,308
905.421387,311
905.537537,316
905.653687,308
905.769775,309
905.885925,324
906.002014,318
906.118164,313
906.234314,311
906.350403,323
906.466492,316
906.582642,315
906.69873,316
906.814758,307
906.930908,310
907.046936,322
907.163086,305
907.279175,318
907.395264,309
907.511353,321
907.62738,309
907.743408,325
907.859497,301
907.975525,328
908.091553,322
908.207703,315
908.32373,326
908.439758,333
908.555786,309
908.671814,327
908.787842,317
908.90387,320
909.019775,324
909.135864,323
909.251892,304
909.367859,328
909.483826,319
909.599854,308
909.715881,304
909.831848,319
909.947815,313
910.063782,331
910.179749,331
910.295776,306
910.411743,325
910.527649,319
910.643616,326
910.759583,324
910.875488,324
910.991455,307
911.107361,321
911.223267,319
911.339294,302
911.4552,324
911.571106,313
911.687073,322
911.802979,309
911.918823,321
912.034729,321
912.150635,316
912.266602,315
912.382446,319
912.498352,319
912.614197,310
912.730103,312
912.846008,307
792.44574,314
792.56488,357
792.68396,402
792.80304,387
792.92218,338
793.041199,322
793.160339,334
793.279419,338
793.398499,315
793.517578,315
793.636658,322
793.755737,341
793.874817,350
793.993896,349
794.112976,336
794.232056,313
794.351074,345
794.470215,327
794.589233,324
794.708313,332
794.827393,326
794.946411,333
795.065552,337
795.18457,350
795.303589,336
795.422668,320
795.541687,335
795.660767,316
795.779846,343
795.898865,326
796.017883,317
796.136963,335
796.255981,327
796.375061,337
796.49408,312
796.613037,332
796.732117,322
796.851135,328
796.970154,332
797.089233,327
797.208191,334
797.327271,335
797.446228,323
797.565186,328
797.684265,351
797.803223,332
797.922241,330
798.04126,319
798.160278,331
798.279297,330
798.398315,332
798.517273,337
798.636292,338
798.75531,329
798.874268,343
798.993286,329
799.112244,345
799.231323,320
799.350281,331
799.469238,324
799.588257,333
799.707153,329
799.826111,333
799.945129,322
800.064087,332
800.183044,330
800.302063,337
800.421021,347
800.539978,325
800.658936,334
800.777893,340
800.896912,326
801.015747,331
801.134705,348
801.253723,332
801.37262,328
801.491638,325
801.610535,329
801.729492,335
801.84845,322
801.967407,340
802.086243,329
802.205261,343
802.324158,331
802.443115,330
802.562073,325
802.680969,326
802.799927,333
802.918762,325
803.037659,324
803.156677,340
803.275574,322
803.39447,322
803.513428,338
803.632263,348
803.751221,320
803.870117,328
803.989014,340
804.107971,330
804.226746,329
804.345642,337
804.4646,325
804.583496,329
804.702393,331
804.821228,326
804.940125,323
805.059021,338
805.177917,337
805.296814,340
805.415649,349
805.534546,327
805.653442,333
805.772278,317
805.891113,338
806.01001,341
806.128906,328
806.247742,335
806.366577,321
806.485413,351
806.604309,333
806.723145,342
806.84198,336
806.960876,339
807.079712,333
807.198486,339
807.317383,339
807.436218,338
807.554993,325
807.673889,329
807.792725,322
807.91156,324
808.030396,336
808.14917,335
808.268005,329
808.386841,340
808.505676,319
808.624451,331
808.743286,316
808.862122,337
808.980896,323
809.099731,344
809.218506,326
809.337341,333
809.456116,340
809.57489,325
809.693726,328
809.8125,332
809.931274,335
810.050049,326
810.168884,335
810.287659,333
810.406372,342
810.525269,327
810.643982,333
810.762756,321
810.881531,340
811.000305,334
811.11908,324
811.237854,340
811.356567,339
811.475403,344
811.594116,321
811.71283,320
811.831604,348
811.950378,335
812.069153,332
812.187927,330
812.30658,333
812.425415,334
812.544128,351
812.662781,333
812.781616,329
812.900269,323
813.019043,325
813.137756,345
813.256531,337
813.375244,340
813.493896,327
813.612671,335
813.731384,328
813.850037,336
813.96875,332
814.087524,339
814.206238,325
814.324951,341
814.443604,335
814.562256,332
814.68103,345
814.799683,332
814.918335,342
815.037109,321
815.155762,338
815.274475,350
815.393188,334
815.511841,324
815.630554,342
815.749146,334
815.867859,319
815.986572,339
816.105164,346
816.223877,329
816.342529,335
816.461182,330
816.579895,336
816.698486,345
816.817139,337
816.935791,321
817.054504,333
817.173096,331
817.291748,325
817.4104,339
817.529053,327
817.647644,321
817.766235,332
817.884949,322
818.00354,324
818.122192,326
818.240845,335
818.359436,332
818.478088,335
818.59668,323
818.715271,326
818.833923,318
818.952515,329
819.071106,325
819.189758,318
819.30835,340
819.426941,307
819.545532,330
819.664124,324
819.782715,328
819.901306,316
820.019897,321
820.138489,317
820.25708,320
820.375671,305
820.494202,330
820.612732,314
820.731384,347
820.849915,313
820.968506,319
821.087097,327
821.205627,313
821.324158,323
821.442749,317
821.561279,304
821.679871,324
821.798401,321
821.916931,318
822.035461,313
822.154053,313
822.272583,317
822.391174,317
822.509583,317
822.628174,317
822.746704,308
822.865234,337
822.983765,303
823.102295,315
823.220825,320
823.339294,308
823.457825,335
823.576355,319
823.694824,330
823.813354,321
823.931885,321
824.050354,311
824.168884,325
824.287354,323
824.405823,324
824.524353,313
824.642822,326
824.761353,323
824.879822,320
824.998291,318
825.116699,311
825.235291,321
825.353699,323
825.472168,328
825.590637,315
825.709106,319
825.827576,319
825.946045,318
826.064453,306
826.182983,322
826.301392,311
826.4198,323
826.53833,320
826.656738,310
826.775208,315
826.893677,323
827.012024,322
827.130493,316
827.248962,323
827.36731,318
827.485779,309
827.604248,325
827.722595,330
827.841064,319
827.959412,313
828.077942,305
828.196289,318
828.314636,323
828.433105,318
828.551514,312
828.669861,309
828.78833,310
828.906677,320
829.025085,325
829.143433,310
829.261841,314
829.38031,314
829.498657,323
829.617004,318
829.735413,311
829.85376,302
829.972107,311
830.090515,318
830.208862,324
830.327209,311
830.445557,310
830.563904,311
830.682312,328
830.800659,330
830.919006,312
831.037354,308
831.155701,318
831.274048,333
831.392395,320
831.51062,316
831.629028,317
831.747314,338
831.865662,311
831.984009,331
832.102356,316
832.220642,325
832.338928,320
832.457275,321
832.575623,331
832.693909,311
832.812134,322
832.930481,302
833.048828,330
833.167114,323
833.2854,321
833.403687,308
833.521973,318
833.640259,303
833.758545,317
833.876831,308
833.995056,330
834.113281,321
834.231628,321
834.349915,326
834.468201,327
834.586426,313
834.704651,322
834.822998,311
834.941162,311
835.059448,315
835.177673,310
835.295959,320
835.414246,322
835.53241,314
835.650635,298
835.768921,318
835.887146,327
836.005371,311
836.123596,332
836.241821,318
836.360046,330
836.478271,311
836.596497,316
836.714722,310
836.832886,323
836.95105,319
837.069336,324
837.1875,309
837.305725,330
837.423889,310
837.542053,322
837.660339,323
837.778503,315
837.896667,312
838.014832,311
838.132996,316
838.25116,331
838.369385,309
838.487488,317
838.605713,307
838.723877,325
838.84198,316
838.960205,333
839.078308,309
839.196472,335
839.314636,323
839.4328,332
839.550964,315
839.669067,309
839.787231,309
839.905396,320
840.023499,308
840.141602,310
840.259766,310
840.377869,319
840.495972,305
840.614136,322
840.732239,329
840.850342,336
840.968445,323
841.086548,316
841.204651,308
841.322754,321
841.440918,325
841.55896,317
841.677002,313
841.795166,316
841.913208,302
842.031311,315
842.149353,314
842.267456,323
842.385498,314
842.503601,320
842.621643,330
842.739746,309
842.857788,318
842.97583,324
843.093933,305
843.211975,321
843.330017,310
843.44812,330
843.566101,317
843.684204,312
843.802246,311
843.920227,313
844.038269,314
844.156311,322
844.274292,306
844.392395,305
844.510376,319
844.628357,308
844.74646,319
844.864441,316
844.982422,312
845.100403,319
845.218384,312
845.336426,326
845.454468,324
845.572449,317
845.69043,314
845.808411,312
845.926453,315
846.044373,322
846.162354,304
846.280396,317
846.398315,318
846.516296,319
846.634216,310
846.752197,321
846.870178,318
846.988098,328
847.106079,309
847.22406,318
847.34198,311
847.4599,328
847.577881,317
847.695801,305
847.813782,313
847.931641,326
848.049561,327
848.167603,321
848.285461,311
848.403381,320
848.521362,316
848.639221,315
848.75708,308
848.875,319
848.99292,315
849.110901,319
849.22876,317
849.34668,328
849.464539,308
849.582458,323
849.700317,322
849.818176,324
849.936096,300
850.053955,320
850.171875,316
850.289673,317
850.407593,315
850.525452,311
850.643311,309
850.761169,313
850.878967,325
850.996887,327
851.114746,306
851.232544,321
851.350403,312
851.468262,322
851.58606,316
851.703979,322
851.821777,314
851.939636,307
852.057434,309
852.175232,310
852.293091,311
852.410889,326
852.528687,312
852.646545,335
852.764343,322
852.88208,334
852.999939,302
853.117676,326
853.235535,308
853.353271,319
853.471069,322
853.588928,321
853.706604,315
853.824402,332
853.9422,307
854.059998,312
854.177734,332
854.295532,321
854.413269,317
854.531006,307
854.648804,306
854.766541,324
854.884277,311
855.002014,314
855.119751,302
855.237549,324
855.355225,318
855.473022,323
855.590698,320
855.708435,316
855.826172,302
855.943848,313
856.061646,314
856.179321,326
856.296997,314
856.414795,315
856.53241,321
856.650085,323
856.767822,329
856.885559,321
857.003174,314
857.120911,319
857.238586,309
857.356201,322
857.473938,315
857.591614,310
857.709351,314
857.826965,340
857.944641,323
858.062317,308
858.179993,324
858.297668,333
858.415283,317
858.532959,324
858.650574,314
858.768188,308
858.885803,322
859.003479,313
859.121094,310
859.23877,330
859.356384,314
859.473999,315
859.591675,312
859.709229,327
859.826843,309
859.944458,310
860.062012,325
860.179626,323
860.297302,315
860.414856,305
860.532471,316
860.650024,329
860.767639,310
860.885193,325
861.002808,299
861.120361,328
861.237976,316
861.35553,327
861.473022,312
861.590698,328
861.708191,315
861.825745,315
861.943298,310
862.060852,309
862.178406,319
862.295959,309
862.413513,307
862.531006,327
862.64856,308
862.766113,323
862.883667,317
863.00116,327
863.118713,316
863.236206,308
863.353699,320
863.471252,312
863.588745,318
863.706177,330
863.82373,314
863.941162,326
864.058716,318
864.176208,314
864.29364,319
864.411194,316
864.528687,315
864.646118,308
864.763611,318
864.881042,320
864.998535,309
865.116028,336
865.233459,311
865.350891,324
865.468384,318
865.585754,320
865.703308,319
865.820679,319
865.938171,316
866.055542,313
866.173035,320
866.290466,318
866.407837,310
866.52533,312
866.6427,315
866.760071,327
866.877563,315
866.994934,308
867.112305,318
867.229736,306
867.347107,320
867.464539,312
867.58197,309
867.699341,315
867.81665,291
867.934082,327
868.051453,315
868.168823,326
868.286194,321
868.403564,321
868.520935,316
868.638306,312
868.755676,326
868.872986,326
868.990295,333
869.107727,315
869.225037,310
869.342346,320
869.459717,321
869.577026,318
869.694336,323
869.811707,314
869.929016,321
870.046326,316
870.163635,314
870.280945,323
870.398254,318
870.515564,318
870.632812,321
870.750183,315
870.867432,313
870.984741,332
871.102051,316
871.219299,311
871.336609,301
871.453918,317
871.571106,312
871.688416,317
871.805664,307
871.922852,315
872.040222,325
872.157471,319
872.274719,299
872.391968,326
872.509155,311
872.626465,323
872.743652,316
872.860962,320
872.978149,313
873.095337,308
873.212646,315
873.329834,316
873.44696,319
873.564209,311
873.681396,320
873.798645,308
873.915894,311
874.03302,312
874.150208,329
874.267456,316
874.384583,335
874.501831,310
874.618958,310
874.736145,324
874.853333,324
874.970459,330
875.087646,322
875.204834,324
875.32196,302
875.439148,308
875.556274,308
875.673401,321
875.790527,304
875.907715,313
876.024841,309
876.141968,321
876.259094,312
876.376282,310
876.493347,312
876.610474,320
876.7276,314
876.844727,323
876.961853,305
877.078918,325
877.195984,305
877.313171,320
877.430237,329
877.547302,299
877.664368,310
877.781433,317
877.898499,324
878.015625,335
878.13269,306
878.249695,322
878.366821,315
878.483887,330
878.600952,322
878.717957,316
878.834961,315
878.952087,308
879.069092,320
879.186157,318
879.303162,314
879.420227,319
879.537231,297
879.654236,320
879.77124,322
879.888306,325
880.005249,323
880.122314,315
880.239319,317
880.356323,322
880.473328,300
880.590271,317
880.707275,316
880.824341,324
880.941284,317
881.058228,308
881.175232,313
881.292236,320
881.40918,311
881.526123,320
881.643066,295
881.760071,305
881.877014,307
881.993958,325
882.11084,312
882.227783,314
882.344727,309
882.46167,313
882.578613,332
882.695618,311
882.812439,317
882.929382,311
883.046326,310
883.163208,321
883.280151,313
883.397034,323
883.513916,317
883.630798,320
883.747742,308
883.864563,311
883.981506,318
884.098389,321
884.21521,305
884.332153,328
884.448975,308
884.565796,315
884.682678,315
884.7995,320
884.916443,308
885.033264,323
885.150085,302
885.266968,323
885.383789,318
885.500671,336
885.617493,326
885.734314,318
885.851196,305
885.967896,318
886.084717,311
886.201599,334
886.318359,300
886.435181,310
886.552002,319
886.668762,320
886.785645,305
886.902344,314
887.019165,309
887.135925,319
887.252747,314
887.369446,311
887.486267,314
887.603027,314
887.719788,302
887.836548,335
887.953247,317
888.070068,312
888.186829,298
888.303528,324
888.420288,315
888.536987,323
888.653687,310
888.770447,320
888.887146,299
889.003967,319
889.120667,324
889.237305,329
889.354065,313
889.470703,324
889.587463,324
889.704163,319
889.820862,315
889.937561,305
890.054199,326
890.170837,317
890.287598,312
890.404236,324
890.520874,326
890.637634,324
890.754211,319
890.87085,320
890.987549,318
891.104187,327
891.220886,322
891.337463,321
891.454102,326
891.57074,318
891.687378,316
891.804077,315
891.920654,303
892.037231,328
892.15387,302
892.270447,326
892.387085,306
892.503723,325
892.6203,326
892.736877,298
892.853516,312
892.970032,304
893.08667,312
893.203186,337
893.319763,322
893.43634,331
893.552917,310
893.669556,307
893.786011,308
893.902588,315
894.019165,312
894.135681,322
894.252197,320
894.368835,320
894.485291,322
894.601868,320
894.718384,317
894.8349,323
894.951355,314
895.067932,328
895.184448,323
895.300964,315
895.417419,313
895.533936,335
895.650452,305
895.766907,313
895.883423,307
895.999878,328
896.116333,307
896.232849,320
896.349304,321
896.465759,317
896.582214,320
896.698669,327
896.815125,315
896.931641,313
897.048035,314
897.164551,314
897.280884,306
897.397339,320
897.513794,320
897.630249,316
897.746582,324
897.863098,316
897.979431,305
898.095886,321
898.212341,314
898.328674,321
898.445129,307
898.561462,319
898.677795,319
898.794312,316
898.910645,308
899.026978,320
899.143433,311
899.259766,322
899.37616,311
899.492493,314
899.608765,314
899.725159,312
899.841553,313
899.957947,331
900.07428,330
900.190552,321
900.306946,312
900.423157,325
900.53949,327
900.655884,315
900.772156,321
900.888489,321
901.004822,315
901.121033,317
901.237366,311
901.353699,324
901.46991,309
901.586304,317
901.702515,315
901.818787,328
901.93512,329
902.051331,325
902.167603,327
902.283875,326
902.400085,325
902.516418,321
902.632629,306
902.74884,315
902.865112,313
902.981384,317
903.097595,314
903.213867,328
903.330017,315
903.446289,312
903.5625,311
903.67865,325
903.794922,314
903.911072,325
904.027344,337
904.143494,323
904.259705,314
904.375916,332
904.492065,313
904.608215,321
904.724426,312
904.840576,326
904.956726,319
905.072876,320
905.189087,322
905.305176,323
905.421387,323
905.537537,325
905.653687,321
905.769775,321
905.885925,316
906.002014,319
906.118164,307
906.234314,318
906.350403,298
906.466492,330
906.582642,323
906.69873,314
906.814758,313
906.930908,322
907.046936,323
907.163086,325
907.279175,313
907.395264,323
907.511353,311
907.62738,333
907.743408,322
907.859497,312
907.975525,310
908.091553,311
908.207703,314
908.32373,327
908.439758,312
908.555786,310
908.671814,311
908.787842,323
908.90387,326
909.019775,312
909.135864,318
909.251892,326
909.367859,310
909.483826,326
909.599854,312
909.715881,313
909.831848,306
909.947815,316
910.063782,316
910.179749,325
910.295776,304
910.411743,320
910.527649,299
910.643616,319
910.759583,313
910.875488,329
910.991455,299
911.107361,338
911.223267,323
911.339294,323
911.4552,320
911.571106,327
911.687073,307
911.802979,327
911.918823,320
912.034729,315
912.150635,306
912.266602,324
912.382446,319
912.498352,330
912.614197,303
912.730103,308
912.846008,330
792.44574,311
792.56488,358
792.68396,406
792.80304,382
792.92218,326
793.041199,323
793.160339,331
793.279419,348
793.398499,347
793.517578,325
793.636658,337
793.755737,336
793.874817,361
793.993896,340
794.112976,336
794.232056,328
794.351074,331
794.470215,333
794.589233,332
794.708313,329
794.827393,332
794.946411,333
795.065552,326
795.18457,338
795.303589,344
795.422668,341
795.541687,339
795.660767,332
795.779846,322
795.898865,321
796.017883,338
796.136963,343
796.255981,324
796.375061,317
796.49408,337
796.613037,332
796.732117,335
796.851135,326
796.970154,320
797.089233,337
797.208191,325
797.327271,334
797.446228,342
797.565186,335
797.684265,332
797.803223,333
797.922241,333
798.04126,317
798.160278,321
798.279297,346
798.398315,328
798.517273,337
798.636292,335
798.75531,338
798.874268,321
798.993286,327
799.112244,313
799.231323,321
799.350281,342
799.469238,332
799.588257,336
799.707153,328
799.826111,330
799.945129,335
800.064087,329
800.183044,340
800.302063,319
800.421021,345
800.539978,329
800.658936,327
800.777893,319
800.896912,336
801.015747,333
801.134705,334
801.253723,326
801.37262,332
801.491638,316
801.610535,333
801.729492,329
801.84845,327
801.967407,328
802.086243,336
802.205261,339
802.324158,329
802.443115,327
802.562073,332
802.680969,331
802.799927,327
802.918762,334
803.037659,336
803.156677,323
803.275574,332
803.39447,336
803.513428,336
803.632263,332
803.751221,332
803.870117,334
803.989014,336
804.107971,331
804.226746,333
804.345642,319
804.4646,313
804.583496,329
804.702393,338
804.821228,330
804.940125,329
805.059021,326
805.177917,346
805.296814,324
805.415649,334
805.534546,336
805.653442,341
805.772278,324
805.891113,340
806.01001,331
806.128906,333
806.247742,319
806.366577,329
806.485413,330
806.604309,336
806.723145,327
806.84198,328
806.960876,334
807.079712,328
807.198486,315
807.317383,327
807.436218,330
807.554993,339
807.673889,340
807.792725,337
807.91156,350
808.030396,335
808.14917,330
808.268005,332
808.386841,338
808.505676,334
808.624451,337
808.743286,339
808.862122,325
808.980896,338
809.099731,330
809.218506,349
809.337341,336
809.456116,342
809.57489,342
809.693726,333
809.8125,335
809.931274,334
810.050049,328
810.168884,333
810.287659,332
810.406372,353
810.525269,331
810.643982,329
810.762756,345
810.881531,346
811.000305,340
811.11908,341
811.237854,342
811.356567,335
811.475403,351
811.594116,321
811.71283,342
811.831604,330
811.950378,334
812.069153,323
812.187927,348
812.30658,323
812.425415,338
812.544128,333
812.662781,330
812.781616,337
812.900269,329
813.019043,320
813.137756,321
813.256531,340
813.375244,329
813.493896,349
813.612671,345
813.731384,336
813.850037,337
813.96875,328
814.087524,331
814.206238,343
814.324951,326
814.443604,318
814.562256,327
814.68103,348
814.799683,338
814.918335,339
815.037109,340
815.155762,352
815.274475,335
815.393188,337
815.511841,330
815.630554,319
815.749146,328
815.867859,334
815.986572,341
816.105164,332
816.223877,325
816.342529,343
816.461182,340
816.579895,329
816.698486,324
816.817139,338
816.935791,319
817.054504,339
817.173096,333
817.291748,334
817.4104,353
817.529053,333
817.647644,325
817.766235,340
817.884949,324
818.00354,319
818.122192,327
818.240845,316
818.359436,316
818.478088,323
818.59668,332
818.715271,315
818.833923,325
818.952515,317
819.071106,332
819.189758,319
819.30835,323
819.426941,336
819.545532,323
819.664124,329
819.782715,309
819.901306,332
820.019897,329
820.138489,323
820.25708,305
820.375671,332
820.494202,316
820.612732,327
820.731384,337
820.849915,328
820.968506,325
821.087097,319
821.205627,339
821.324158,318
821.442749,330
821.561279,323
821.679871,331
821.798401,321
821.916931,327
822.035461,314
822.154053,318
822.272583,319
822.391174,327
822.509583,306
822.628174,320
822.746704,313
822.865234,314
822.983765,319
823.102295,324
823.220825,317
823.339294,325
823.457825,311
823.576355,329
823.694824,325
823.813354,328
823.931885,315
824.050354,319
824.168884,315
824.287354,328
824.405823,318
824.524353,329
824.642822,330
824.761353,327
824.879822,318
824.998291,313
825.116699,319
825.235291,302
825.353699,317
825.472168,320
825.590637,317
825.709106,323
825.827576,336
825.946045,332
826.064453,320
826.182983,303
826.301392,320
826.4198,331
826.53833,317
826.656738,311
826.775208,319
826.893677,320
827.012024,309
827.130493,320
827.248962,315
827.36731,310
827.485779,321
827.604248,326
827.722595,301
827.841064,325
827.959412,320
828.077942,314
828.196289,316
828.314636,316
828.433105,308
828.551514,309
828.669861,326
828.78833,311
828.906677,305
829.025085,320
829.143433,320
829.261841,319
829.38031,324
829.498657,306
829.617004,316
829.735413,323
829.85376,309
829.972107,315
830.090515,315
830.208862,324
830.327209,320
830.445557,317
830.563904,320
830.682312,323
830.800659,314
830.919006,328
831.037354,331
831.155701,327
831.274048,314
831.392395,318
831.51062,321
831.629028,304
831.747314,324
831.865662,311
831.984009,312
832.102356,301
832.220642,332
832.338928,311
832.457275,327
832.575623,323
832.693909,320
832.812134,311
832.930481,317
833.048828,314
833.167114,315
833.2854,316
833.403687,324
833.521973,312
833.640259,300
833.758545,311
833.876831,315
833.995056,313
834.113281,332
834.231628,309
834.349915,324
834.468201,318
834.586426,305
834.704651,316
834.822998,321
834.941162,328
835.059448,308
835.177673,307
835.295959,313
835.414246,321
835.53241,302
835.650635,314
835.768921,327
835.887146,324
836.005371,326
836.123596,307
836.241821,317
836.360046,316
836.478271,314
836.596497,306
836.714722,323
836.832886,312
836.95105,320
837.069336,309
837.1875,312
837.305725,324
837.423889,316
837.542053,308
837.660339,322
837.778503,313
837.896667,315
838.014832,323
838.132996,321
838.25116,321
838.369385,321
838.487488,327
838.605713,318
838.723877,315
838.84198,318
838.960205,306
839.078308,322
839.196472,322
839.314636,320
839.4328,311
839.550964,312
839.669067,328
839.787231,317
839.905396,310
840.023499,319
840.141602,314
840.259766,327
840.377869,312
840.495972,321
840.614136,311
840.732239,321
840.850342,316
840.968445,320
841.086548,313
841.204651,322
841.322754,327
841.440918,325
841.55896,313
841.677002,330
841.795166,303
841.913208,328
842.031311,329
842.149353,317
842.267456,321
842.385498,321
842.503601,317
842.621643,324
842.739746,318
842.857788,316
842.97583,308
843.093933,315
843.211975,321
843.330017,307
843.44812,320
843.566101,326
843.684204,315
843.802246,320
843.920227,302
844.038269,316
844.156311,307
844.274292,329
844.392395,321
844.510376,323
844.628357,303
844.74646,324
844.864441,315
844.982422,310
845.100403,310
845.218384,317
845.336426,313
845.454468,322
845.572449,321
845.69043,319
845.808411,315
845.926453,313
846.044373,320
846.162354,311
846.280396,321
846.398315,315
846.516296,330
846.634216,308
846.752197,326
846.870178,322
846.988098,305
847.106079,316
847.22406,315
847.34198,311
847.4599,317
847.577881,314
847.695801,319
847.813782,334
847.931641,301
848.049561,319
848.167603,306
848.285461,311
848.403381,312
848.521362,312
848.639221,308
848.75708,313
848.875,314
848.99292,317
849.110901,315
849.22876,323
849.34668,309
849.464539,313
849.582458,313
849.700317,331
849.818176,307
849.936096,325
850.053955,323
850.171875,319
850.289673,311
850.407593,320
850.525452,315
850.643311,326
850.761169,325
850.878967,311
850.996887,318
851.114746,317
851.232544,308
851.350403,319
851.468262,297
851.58606,308
851.703979,323
851.821777,316
851.939636,316
852.057434,311
852.175232,309
852.293091,308
852.410889,320
852.528687,328
852.646545,318
852.764343,319
852.88208,318
852.999939,310
853.117676,331
853.235535,312
853.353271,318
853.471069,314
853.588928,319
853.706604,319
853.824402,309
853.9422,311
854.059998,315
854.177734,315
854.295532,322
854.413269,329
854.531006,318
854.648804,321
854.766541,312
854.884277,329
855.002014,330
855.119751,307
855.237549,310
855.355225,309
855.473022,314
855.590698,309
855.708435,323
855.826172,317
855.943848,304
856.061646,318
856.179321,327
856.296997,316
856.414795,323
856.53241,328
856.650085,310
856.767822,310
856.885559,319
857.003174,312
857.120911,323
857.238586,324
857.356201,326
857.473938,326
857.591614,330
857.709351,315
857.826965,314
857.944641,322
858.062317,317
858.179993,336
858.297668,307
858.415283,319
858.532959,314
858.650574,326
858.768188,310
858.885803,315
859.003479,324
859.121094,313
859.23877,308
859.356384,317
859.473999,309
859.591675,326
859.709229,311
859.826843,307
859.944458,312
860.062012,322
860.179626,309
860.297302,309
860.414856,321
860.532471,318
860.650024,321
860.767639,329
860.885193,323
861.002808,320
861.120361,305
861.237976,334
861.35553,316
861.473022,331
861.590698,311
861.708191,330
861.825745,313
861.943298,316
862.060852,308
862.178406,315
862.295959,305
862.413513,318
862.531006,314
862.64856,317
862.766113,302
862.883667,312
863.00116,315
863.118713,308
863.236206,323
863.353699,310
863.471252,307
863.588745,330
863.706177,308
863.82373,319
863.941162,314
864.058716,309
864.176208,311
864.29364,305
864.411194,324
864.528687,314
864.646118,299
864.763611,320
864.881042,309
864.998535,314
865.116028,313
865.233459,320
865.350891,313
865.468384,330
865.585754,321
865.703308,313
865.820679,304
865.938171,323
866.055542,310
866.173035,314
866.290466,303
866.407837,321
866.52533,326
866.6427,311
866.760071,320
866.877563,320
866.994934,317
867.112305,314
867.229736,321
867.347107,322
867.464539,307
867.58197,307
867.699341,327
867.81665,314
867.934082,314
868.051453,317
868.168823,317
868.286194,319
868.403564,315
868.520935,315
868.638306,295
868.755676,326
868.872986,314
868.990295,304
869.107727,315
869.225037,310
869.342346,336
869.459717,311
869.577026,320
869.694336,316
869.811707,319
869.929016,311
870.046326,341
870.163635,321
870.280945,327
870.398254,306
870.515564,314
870.632812,316
870.750183,314
870.867432,313
870.984741,309
871.102051,327
871.219299,308
871.336609,323
871.453918,308
871.571106,299
871.688416,314
871.805664,322
871.922852,316
872.040222,321
872.157471,316
872.274719,312
872.391968,325
872.509155,321
872.626465,309
872.743652,307
872.860962,307
872.978149,316
873.095337,324
873.212646,313
873.329834,293
873.44696,317
873.564209,316
873.681396,313
873.798645,309
873.915894,305
874.03302,317
874.150208,319
874.267456,315
874.384583,334
874.501831,310
874.618958,313
874.736145,305
874.853333,307
874.970459,310
875.087646,323
875.204834,307
875.32196,304
875.439148,308
875.556274,315
875.673401,317
875.790527,317
875.907715,322
876.024841,315
876.141968,311
876.259094,310
876.376282,312
876.493347,325
876.610474,322
876.7276,320
876.844727,311
876.961853,310
877.078918,310
877.195984,311
877.313171,330
877.430237,316
877.547302,314
877.664368,308
877.781433,313
877.898499,312
878.015625,316
878.13269,311
878.249695,305
878.366821,314
878.483887,318
878.600952,315
878.717957,313
878.834961,316
878.952087,307
879.069092,332
879.186157,314
879.303162,316
879.420227,313
879.537231,319
879.654236,310
879.77124,324
879.888306,321
880.005249,313
880.122314,323
880.239319,324
880.356323,307
880.473328,325
880.590271,315
880.707275,318
880.824341,322
880.941284,319
881.058228,304
881.175232,321
881.292236,318
881.40918,320
881.526123,298
881.643066,306
881.760071,319
881.877014,323
881.993958,312
882.11084,328
882.227783,317
882.344727,308
882.46167,302
882.578613,309
882.695618,302
882.812439,326
882.929382,323
883.046326,314
883.163208,315
883.280151,309
883.397034,329
883.513916,318
883.630798,332
883.747742,315
883.864563,321
883.981506,318
884.098389,304
884.21521,319
884.332153,308
884.448975,324
884.565796,320
884.682678,315
884.7995,323
884.916443,308
885.033264,315
885.150085,319
885.266968,333
885.383789,331
885.500671,316
885.617493,314
885.734314,309
885.851196,327
885.967896,319
886.084717,306
886.201599,318
886.318359,318
886.435181,306
886.552002,309
886.668762,317
886.785645,315
886.902344,311
887.019165,326
887.135925,317
887.252747,323
887.369446,327
887.486267,314
887.603027,307
887.719788,299
887.836548,319
887.953247,304
888.070068,311
888.186829,311
888.303528,331
888.420288,313
888.536987,293
888.653687,317
888.770447,327
888.887146,320
889.003967,315
889.120667,316
889.237305,316
889.354065,331
889.470703,306
889.587463,297
889.704163,318
889.820862,319
889.937561,317
890.054199,313
890.170837,317
890.287598,311
890.404236,321
890.520874,325
890.637634,329
890.754211,317
890.87085,310
890.987549,323
891.104187,312
891.220886,333
891.337463,319
891.454102,321
891.57074,327
891.687378,327
891.804077,322
891.920654,317
892.037231,321
892.15387,310
892.270447,326
892.387085,308
892.503723,331
892.6203,324
892.736877,320
892.853516,314
892.970032,320
893.08667,309
893.203186,314
893.319763,324
893.43634,315
893.552917,327
893.669556,307
893.786011,309
893.902588,319
894.019165,314
894.135681,324
894.252197,292
894.368835,319
894.485291,319
894.601868,314
894.718384,323
894.8349,321
894.951355,319
895.067932,309
895.184448,322
895.300964,325
895.417419,329
895.533936,319
895.650452,322
895.766907,325
895.883423,326
895.999878,312
896.116333,323
896.232849,311
896.349304,338
896.465759,320
896.582214,320
896.698669,316
896.815125,330
896.931641,321
897.048035,325
897.164551,322
897.280884,312
897.397339,318
897.513794,305
897.630249,309
897.746582,314
897.863098,308
897.979431,322
898.095886,315
898.212341,324
898.328674,327
898.445129,319
898.561462,318
898.677795,324
898.794312,334
898.910645,324
899.026978,305
899.143433,329
899.259766,315
899.37616,333
899.492493,318
899.608765,318
899.725159,300
899.841553,332
899.957947,331
900.07428,318
900.190552,319
900.306946,305
900.423157,302
900.53949,312
900.655884,334
900.772156,319
900.888489,316
901.004822,316
901.121033,319
901.237366,320
901.353699,314
901.46991,310
901.586304,309
901.702515,325
901.818787,319
901.93512,318
902.051331,313
902.167603,338
902.283875,324
902.400085,316
902.516418,316
902.632629,335
902.74884,319
902.865112,330
902.981384,312
903.097595,324
903.213867,331
903.330017,320
903.446289,316
903.5625,320
903.67865,328
903.794922,323
903.911072,301
904.027344,314
904.143494,321
904.259705,317
904.375916,316
904.492065,313
904.608215,310
904.724426,308
904.840576,317
904.956726,321
905.072876,321
905.189087,314
905.305176,310
905.421387,301
905.537537,315
905.653687,316
905.769775,316
905.885925,316
906.002014,306
906.118164,304
906.234314,309
906.350403,325
906.466492,309
906.582642,321
906.69873,315
906.814758,328
906.930908,309
907.046936,318
907.163086,317
907.279175,331
907.395264,317
907.511353,328
907.62738,306
907.743408,317
907.859497,314
907.975525,323
908.091553,327
908.207703,320
908.32373,305
908.439758,320
908.555786,312
908.671814,327
908.787842,311
908.90387,330
909.019775,311
909.135864,326
909.251892,328
909.367859,327
909.483826,316
909.599854,310
909.715881,307
909.831848,329
909.947815,320
910.063782,317
910.179749,313
910.295776,320
910.411743,313
910.527649,333
910.643616,314
910.759583,328
910.875488,315
910.991455,314
911.107361,306
911.223267,309
911.339294,318
911.4552,320
911.571106,329
911.687073,333
911.802979,329
911.918823,312
912.034729,330
912.150635,337
912.266602,329
912.382446,328
912.498352,309
912.614197,313
912.730103,321
912.846008,325
