792.44574,322
792.56488,342
792.68396,394
792.80304,375
792.92218,334
793.041199,317
793.160339,323
793.279419,336
793.398499,330
793.517578,306
793.636658,335
793.755737,324
793.874817,348
793.993896,337
794.112976,330
794.232056,339
794.351074,332
794.470215,319
794.589233,333
794.708313,317
794.827393,325
794.946411,322
795.065552,347
795.18457,337
795.303589,342
795.422668,323
795.541687,335
795.660767,329
795.779846,328
795.898865,326
796.017883,334
796.136963,348
796.255981,338
796.375061,323
796.49408,352
796.613037,336
796.732117,343
796.851135,318
796.970154,330
797.089233,341
797.208191,330
797.327271,325
797.446228,323
797.565186,309
797.684265,337
797.803223,322
797.922241,327
798.04126,332
798.160278,323
798.279297,321
798.398315,339
798.517273,328
798.636292,337
798.75531,326
798.874268,337
798.993286,336
799.112244,330
799.231323,332
799.350281,331
799.469238,342
799.588257,328
799.707153,330
799.826111,326
799.945129,324
800.064087,328
800.183044,340
800.302063,314
800.421021,329
800.539978,331
800.658936,332
800.777893,330
800.896912,324
801.015747,322
801.134705,327
801.253723,339
801.37262,324
801.491638,334
801.610535,332
801.729492,330
801.84845,326
801.967407,338
802.086243,331
802.205261,329
802.324158,332
802.443115,329
802.562073,330
802.680969,339
802.799927,330
802.918762,334
803.037659,318
803.156677,334
803.275574,335
803.39447,331
803.513428,329
803.632263,330
803.751221,330
803.870117,344
803.989014,341
804.107971,335
804.226746,338
804.345642,342
804.4646,332
804.583496,342
804.702393,325
804.821228,332
804.940125,339
805.059021,324
805.177917,327
805.296814,330
805.415649,331
805.534546,333
805.653442,335
805.772278,326
805.891113,346
806.01001,326
806.128906,337
806.247742,334
806.366577,319
806.485413,324
806.604309,354
806.723145,331
806.84198,332
806.960876,337
807.079712,326
807.198486,330
807.317383,326
807.436218,323
807.554993,341
807.673889,336
807.792725,324
807.91156,332
808.030396,323
808.14917,341
808.268005,324
808.386841,336
808.505676,321
808.624451,319
808.743286,332
808.862122,331
808.980896,346
809.099731,320
809.218506,328
809.337341,334
809.456116,346
809.57489,340
809.693726,331
809.8125,323
809.931274,341
810.050049,341
810.168884,338
810.287659,340
810.406372,348
810.525269,321
810.643982,329
810.762756,336
810.881531,342
811.000305,330
811.11908,341
811.237854,317
811.356567,343
811.475403,338
811.594116,329
811.71283,340
811.831604,325
811.950378,342
812.069153,337
812.187927,328
812.30658,309
812.425415,353
812.544128,341
812.662781,326
812.781616,330
812.900269,342
813.019043,330
813.137756,337
813.256531,330
813.375244,325
813.493896,330
813.612671,338
813.731384,347
813.850037,340
813.96875,332
814.087524,339
814.206238,343
814.324951,343
814.443604,338
814.562256,331
814.68103,328
814.799683,328
814.918335,334
815.037109,332
815.155762,353
815.274475,336
815.393188,346
815.511841,347
815.630554,342
815.749146,336
815.867859,317
815.986572,318
816.105164,315
816.223877,342
816.342529,337
816.461182,350
816.579895,347
816.698486,354
816.817139,325
816.935791,319
817.054504,333
817.173096,333
817.291748,337
817.4104,325
817.529053,328
817.647644,332
817.766235,336
817.884949,321
818.00354,326
818.122192,324
818.240845,326
818.359436,327
818.478088,315
818.59668,309
818.715271,316
818.833923,318
818.952515,308
819.071106,320
819.189758,312
819.30835,327
819.426941,325
819.545532,315
819.664124,328
819.782715,318
819.901306,316
820.019897,313
820.138489,320
820.25708,319
820.375671,332
820.494202,314
820.612732,331
820.731384,314
820.849915,325
820.968506,334
821.087097,313
821.205627,324
821.324158,316
821.442749,321
821.561279,323
821.679871,311
821.798401,323
821.916931,327
822.035461,327
822.154053,314
822.272583,308
822.391174,318
822.509583,319
822.628174,310
822.746704,312
822.865234,301
822.983765,317
823.102295,331
823.220825,328
823.339294,325
823.457825,322
823.576355,315
823.694824,321
823.813354,312
823.931885,321
824.050354,313
824.168884,327
824.287354,314
824.405823,311
824.524353,327
824.642822,320
824.761353,327
824.879822,323
824.998291,329
825.116699,322
825.235291,330
825.353699,318
825.472168,315
825.590637,320
825.709106,318
825.827576,312
825.946045,327
826.064453,320
826.182983,319
826.301392,322
826.4198,315
826.53833,315
826.656738,315
826.775208,327
826.893677,306
827.012024,329
827.130493,308
827.248962,337
827.36731,327
827.485779,312
827.604248,318
827.722595,318
827.841064,304
827.959412,315
828.077942,324
828.196289,313
828.314636,312
828.433105,314
828.551514,311
828.669861,310
828.78833,313
828.906677,321
829.025085,304
829.143433,309
829.261841,323
829.38031,322
829.498657,310
829.617004,312
829.735413,316
829.85376,310
829.972107,303
830.090515,319
830.208862,310
830.327209,307
830.445557,315
830.563904,304
830.682312,309
830.800659,314
830.919006,320
831.037354,317
831.155701,310
831.274048,314
831.392395,328
831.51062,317
831.629028,316
831.747314,329
831.865662,315
831.984009,309
832.102356,306
832.220642,310
832.338928,316
832.457275,318
832.575623,307
832.693909,317
832.812134,312
832.930481,300
833.048828,317
833.167114,322
833.2854,315
833.403687,311
833.521973,315
833.640259,317
833.758545,308
833.876831,316
833.995056,312
834.113281,312
834.231628,324
834.349915,322
834.468201,319
834.586426,319
834.704651,321
834.822998,322
834.941162,313
835.059448,326
835.177673,308
835.295959,321
835.414246,316
835.53241,322
835.650635,318
835.768921,327
835.887146,305
836.005371,316
836.123596,312
836.241821,323
836.360046,307
836.478271,313
836.596497,315
836.714722,308
836.832886,313
836.95105,323
837.069336,321
837.1875,314
837.305725,316
837.423889,334
837.542053,331
837.660339,325
837.778503,323
837.896667,313
838.014832,316
838.132996,324
838.25116,315
838.369385,307
838.487488,321
838.605713,320
838.723877,317
838.84198,322
838.960205,325
839.078308,317
839.196472,322
839.314636,321
839.4328,306
839.550964,325
839.669067,305
839.787231,315
839.905396,313
840.023499,317
840.141602,336
840.259766,317
840.377869,312
840.495972,313
840.614136,311
840.732239,313
840.850342,321
840.968445,336
841.086548,318
841.204651,322
841.322754,326
841.440918,306
841.55896,312
841.677002,311
841.795166,320
841.913208,327
842.031311,327
842.149353,311
842.267456,318
842.385498,308
842.503601,315
842.621643,321
842.739746,321
842.857788,325
842.97583,313
843.093933,320
843.211975,318
843.330017,323
843.44812,315
843.566101,319
843.684204,315
843.802246,326
843.920227,319
844.038269,332
844.156311,305
844.274292,322
844.392395,306
844.510376,322
844.628357,309
844.74646,315
844.864441,319
844.982422,309
845.100403,329
845.218384,327
845.336426,312
845.454468,317
845.572449,311
845.69043,311
845.808411,324
845.926453,312
846.044373,308
846.162354,307
846.280396,320
846.398315,306
846.516296,310
846.634216,313
846.752197,323
846.870178,325
846.988098,312
847.106079,311
847.22406,330
847.34198,316
847.4599,300
847.577881,330
847.695801,311
847.813782,334
847.931641,309
848.049561,325
848.167603,318
848.285461,318
848.403381,312
848.521362,302
848.639221,311
848.75708,310
848.875,302
848.99292,304
849.110901,308
849.22876,319
849.34668,312
849.464539,304
849.582458,314
849.700317,323
849.818176,320
849.936096,324
850.053955,316
850.171875,332
850.289673,322
850.407593,319
850.525452,319
850.643311,315
850.761169,310
850.878967,316
850.996887,309
851.114746,316
851.232544,319
851.350403,307
851.468262,316
851.58606,323
851.703979,315
851.821777,330
851.939636,326
852.057434,308
852.175232,333
852.293091,312
852.410889,311
852.528687,315
852.646545,317
852.764343,313
852.88208,314
852.999939,317
853.117676,326
853.235535,302
853.353271,320
853.471069,308
853.588928,312
853.706604,333
853.824402,312
853.9422,321
854.059998,320
854.177734,311
854.295532,313
854.413269,300
854.531006,306
854.648804,313
854.766541,313
854.884277,312
855.002014,311
855.119751,316
855.237549,304
855.355225,311
855.473022,313
855.590698,315
855.708435,309
855.826172,323
855.943848,323
856.061646,313
856.179321,321
856.296997,316
856.414795,310
856.53241,309
856.650085,317
856.767822,300
856.885559,328
857.003174,313
857.120911,316
857.238586,303
857.356201,320
857.473938,320
857.591614,308
857.709351,315
857.826965,298
857.944641,314
858.062317,310
858.179993,309
858.297668,304
858.415283,312
858.532959,309
858.650574,318
858.768188,314
858.885803,316
859.003479,308
859.121094,313
859.23877,325
859.356384,323
859.473999,323
859.591675,311
859.709229,299
859.826843,321
859.944458,314
860.062012,322
860.179626,322
860.297302,322
860.414856,327
860.532471,315
860.650024,310
860.767639,313
860.885193,318
861.002808,323
861.120361,308
861.237976,312
861.35553,306
861.473022,319
861.590698,307
861.708191,320
861.825745,322
861.943298,314
862.060852,313
862.178406,316
862.295959,314
862.413513,317
862.531006,315
862.64856,312
862.766113,305
862.883667,325
863.00116,316
863.118713,314
863.236206,323
863.353699,324
863.471252,322
863.588745,316
863.706177,303
863.82373,310
863.941162,316
864.058716,321
864.176208,308
864.29364,312
864.411194,322
864.528687,312
864.646118,319
864.763611,314
864.881042,299
864.998535,309
865.116028,311
865.233459,306
865.350891,315
865.468384,309
865.585754,311
865.703308,324
865.820679,325
865.938171,328
866.055542,315
866.173035,308
866.290466,325
866.407837,325
866.52533,325
866.6427,319
866.760071,308
866.877563,324
866.994934,317
867.112305,303
867.229736,324
867.347107,313
867.464539,305
867.58197,321
867.699341,311
867.81665,311
867.934082,316
868.051453,330
868.168823,303
868.286194,311
868.403564,313
868.520935,307
868.638306,311
868.755676,318
868.872986,315
868.990295,316
869.107727,308
869.225037,304
869.342346,311
869.459717,315
869.577026,302
869.694336,318
869.811707,316
869.929016,315
870.046326,316
870.163635,320
870.280945,308
870.398254,314
870.515564,320
870.632812,315
870.750183,335
870.867432,306
870.984741,323
871.102051,317
871.219299,321
871.336609,320
871.453918,318
871.571106,327
871.688416,310
871.805664,326
871.922852,319
872.040222,309
872.157471,324
872.274719,315
872.391968,308
872.509155,307
872.626465,310
872.743652,335
872.860962,318
872.978149,315
873.095337,321
873.212646,313
873.329834,310
873.44696,312
873.564209,319
873.681396,310
873.798645,319
873.915894,317
874.03302,320
874.150208,326
874.267456,321
874.384583,313
874.501831,297
874.618958,333
874.736145,308
874.853333,330
874.970459,305
875.087646,307
875.204834,325
875.32196,318
875.439148,320
875.556274,311
875.673401,326
875.790527,326
875.907715,304
876.024841,339
876.141968,309
876.259094,327
876.376282,308
876.493347,316
876.610474,305
876.7276,312
876.844727,316
876.961853,316
877.078918,310
877.195984,320
877.313171,315
877.430237,320
877.547302,310
877.664368,304
877.781433,315
877.898499,303
878.015625,314
878.13269,328
878.249695,322
878.366821,306
878.483887,313
878.600952,317
878.717957,309
878.834961,324
878.952087,318
879.069092,329
879.186157,311
879.303162,312
879.420227,299
879.537231,315
879.654236,312
879.77124,305
879.888306,322
880.005249,305
880.122314,306
880.239319,317
880.356323,314
880.473328,302
880.590271,304
880.707275,309
880.824341,307
880.941284,315
881.058228,318
881.175232,309
881.292236,305
881.40918,320
881.526123,308
881.643066,325
881.760071,315
881.877014,318
881.993958,339
882.11084,316
882.227783,306
882.344727,328
882.46167,334
882.578613,316
882.695618,310
882.812439,322
882.929382,316
883.046326,322
883.163208,325
883.280151,317
883.397034,302
883.513916,305
883.630798,322
883.747742,315
883.864563,312
883.981506,320
884.098389,312
884.21521,330
884.332153,318
884.448975,331
884.565796,302
884.682678,309
884.7995,312
884.916443,322
885.033264,327
885.150085,315
885.266968,310
885.383789,319
885.500671,324
885.617493,326
885.734314,305
885.851196,320
885.967896,309
886.084717,313
886.201599,320
886.318359,324
886.435181,317
886.552002,310
886.668762,307
886.785645,317
886.902344,326
887.019165,330
887.135925,312
887.252747,322
887.369446,308
887.486267,323
887.603027,308
887.719788,331
887.836548,311
887.953247,328
888.070068,304
888.186829,322
888.303528,302
888.420288,321
888.536987,311
888.653687,316
888.770447,309
888.887146,323
889.003967,313
889.120667,330
889.237305,313
889.354065,318
889.470703,311
889.587463,323
889.704163,316
889.820862,318
889.937561,313
890.054199,312
890.170837,302
890.287598,309
890.404236,314
890.520874,320
890.637634,324
890.754211,324
890.87085,311
890.987549,305
891.104187,310
891.220886,318
891.337463,318
891.454102,319
891.57074,324
891.687378,307
891.804077,308
891.920654,326
892.037231,314
892.15387,312
892.270447,313
892.387085,318
892.503723,322
892.6203,325
892.736877,315
892.853516,328
892.970032,316
893.08667,312
893.203186,312
893.319763,318
893.43634,314
893.552917,317
893.669556,306
893.786011,331
893.902588,314
894.019165,313
894.135681,332
894.252197,316
894.368835,320
894.485291,316
894.601868,303
894.718384,322
894.8349,303
894.951355,328
895.067932,336
895.184448,303
895.300964,315
895.417419,317
895.533936,322
895.650452,318
895.766907,301
895.883423,322
895.999878,325
896.116333,333
896.232849,318
896.349304,318
896.465759,310
896.582214,309
896.698669,322
896.815125,311
896.931641,310
897.048035,313
897.164551,322
897.280884,300
897.397339,306
897.513794,323
897.630249,313
897.746582,317
897.863098,314
897.979431,320
898.095886,318
898.212341,312
898.328674,306
898.445129,304
898.561462,316
898.677795,318
898.794312,313
898.910645,316
899.026978,322
899.143433,313
899.259766,297
899.37616,320
899.492493,315
899.608765,327
899.725159,322
899.841553,317
899.957947,322
900.07428,344
900.190552,324
900.306946,317
900.423157,306
900.53949,320
900.655884,312
900.772156,325
900.888489,321
901.004822,323
901.121033,315
901.237366,329
901.353699,324
901.46991,319
901.586304,314
901.702515,324
901.818787,313
901.93512,307
902.051331,312
902.167603,314
902.283875,315
902.400085,314
902.516418,316
902.632629,323
902.74884,306
902.865112,316
902.981384,316
903.097595,316
903.213867,320
903.330017,314
903.446289,311
903.5625,308
903.67865,312
903.794922,315
903.911072,316
904.027344,309
904.143494,312
904.259705,307
904.375916,323
904.492065,322
904.608215,316
904.724426,306
904.840576,312
904.956726,312
905.072876,298
905.189087,315
905.305176,307
905.421387,334
905.537537,307
905.653687,318
905.769775,315
905.885925,313
906.002014,314
906.118164,318
906.234314,304
906.350403,323
906.466492,313
906.582642,320
906.69873,312
906.814758,309
906.930908,305
907.046936,318
907.163086,323
907.279175,312
907.395264,315
907.511353,317
907.62738,326
907.743408,318
907.859497,318
907.975525,332
908.091553,325
908.207703,308
908.32373,316
908.439758,315
908.555786,326
908.671814,310
908.787842,309
908.90387,321
909.019775,315
909.135864,321
909.251892,319
909.367859,323
909.483826,321
909.599854,323
909.715881,309
909.831848,329
909.947815,318
910.063782,317
910.179749,306
910.295776,318
910.411743,314
910.527649,311
910.643616,320
910.759583,326
910.875488,310
910.991455,327
911.107361,309
911.223267,315
911.339294,310
911.4552,319
911.571106,310
911.687073,324
911.802979,307
911.918823,316
912.034729,321
912.150635,319
912.266602,314
912.382446,323
912.498352,301
912.614197,307
912.730103,318
912.846008,315
792.44574,322
792.56488,348
792.68396,393
792.80304,381
792.92218,319
793.041199,326
793.160339,316
793.279419,349
793.398499,330
793.517578,315
793.636658,316
793.755737,336
793.874817,357
793.993896,354
794.112976,319
794.232056,335
794.351074,317
794.470215,326
794.589233,337
794.708313,324
794.827393,302
794.946411,330
795.065552,332
795.18457,338
795.303589,332
795.422668,325
795.541687,337
795.660767,327
795.779846,331
795.898865,341
796.017883,335
796.136963,329
796.255981,315
796.375061,334
796.49408,327
796.613037,342
796.732117,324
796.851135,321
796.970154,344
797.089233,329
797.208191,325
797.327271,325
797.446228,336
797.565186,334
797.684265,321
797.803223,331
797.922241,325
798.04126,331
798.160278,332
798.279297,325
798.398315,329
798.517273,332
798.636292,329
798.75531,334
798.874268,337
798.993286,321
799.112244,327
799.231323,326
799.350281,323
799.469238,316
799.588257,313
799.707153,331
799.826111,324
799.945129,344
800.064087,325
800.183044,325
800.302063,342
800.421021,325
800.539978,334
800.658936,325
800.777893,319
800.896912,327
801.015747,326
801.134705,348
801.253723,328
801.37262,313
801.491638,323
801.610535,311
801.729492,341
801.84845,347
801.967407,327
802.086243,313
802.205261,324
802.324158,326
802.443115,333
802.562073,342
802.680969,342
802.799927,331
802.918762,332
803.037659,327
803.156677,350
803.275574,325
803.39447,331
803.513428,326
803.632263,332
803.751221,337
803.870117,341
803.989014,333
804.107971,343
804.226746,346
804.345642,333
804.4646,338
804.583496,317
804.702393,355
804.821228,312
804.940125,352
805.059021,330
805.177917,342
805.296814,329
805.415649,338
805.534546,320
805.653442,338
805.772278,324
805.891113,333
806.01001,321
806.128906,320
806.247742,335
806.366577,327
806.485413,338
806.604309,334
806.723145,332
806.84198,342
806.960876,334
807.079712,327
807.198486,326
807.317383,332
807.436218,325
807.554993,336
807.673889,341
807.792725,322
807.91156,348
808.030396,326
808.14917,330
808.268005,336
808.386841,328
808.505676,335
808.624451,325
808.743286,335
808.862122,315
808.980896,338
809.099731,325
809.218506,328
809.337341,329
809.456116,340
809.57489,331
809.693726,329
809.8125,326
809.931274,340
810.050049,341
810.168884,339
810.287659,315
810.406372,330
810.525269,323
810.643982,340
810.762756,340
810.881531,335
811.000305,332
811.11908,333
811.237854,328
811.356567,341
811.475403,347
811.594116,329
811.71283,325
811.831604,350
811.950378,325
812.069153,342
812.187927,336
812.30658,328
812.425415,326
812.544128,324
812.662781,336
812.781616,331
812.900269,340
813.019043,344
813.137756,328
813.256531,341
813.375244,338
813.493896,328
813.612671,329
813.731384,330
813.850037,330
813.96875,337
814.087524,325
814.206238,329
814.324951,353
814.443604,331
814.562256,343
814.68103,339
814.799683,330
814.918335,329
815.037109,338
815.155762,334
815.274475,316
815.393188,316
815.511841,325
815.630554,324
815.749146,321
815.867859,343
815.986572,321
816.105164,323
816.223877,332
816.342529,331
816.461182,323
816.579895,325
816.698486,323
816.817139,324
816.935791,351
817.054504,321
817.173096,336
817.291748,338
817.4104,338
817.529053,331
817.647644,314
817.766235,344
817.884949,327
818.00354,320
818.122192,317
818.240845,337
818.359436,318
818.478088,331
818.59668,311
818.715271,320
818.833923,322
818.952515,312
819.071106,316
819.189758,318
819.30835,329
819.426941,326
819.545532,311
819.664124,319
819.782715,329
819.901306,332
820.019897,331
820.138489,322
820.25708,312
820.375671,323
820.494202,323
820.612732,300
820.731384,312
820.849915,323
820.968506,333
821.087097,315
821.205627,326
821.324158,332
821.442749,322
821.561279,322
821.679871,332
821.798401,316
821.916931,332
822.035461,307
822.154053,313
822.272583,317
822.391174,310
822.509583,320
822.628174,327
822.746704,314
822.865234,325
822.983765,308
823.102295,322
823.220825,310
823.339294,312
823.457825,317
823.576355,320
823.694824,316
823.813354,310
823.931885,312
824.050354,328
824.168884,316
824.287354,319
824.405823,313
824.524353,337
824.642822,321
824.761353,314
824.879822,311
824.998291,325
825.116699,320
825.235291,326
825.353699,318
825.472168,321
825.590637,313
825.709106,322
825.827576,327
825.946045,326
826.064453,309
826.182983,327
826.301392,325
826.4198,319
826.53833,310
826.656738,314
826.775208,334
826.893677,311
827.012024,336
827.130493,314
827.248962,317
827.36731,314
827.485779,322
827.604248,315
827.722595,310
827.841064,323
827.959412,320
828.077942,310
828.196289,308
828.314636,319
828.433105,309
828.551514,317
828.669861,307
828.78833,306
828.906677,308
829.025085,323
829.143433,315
829.261841,329
829.38031,316
829.498657,314
829.617004,310
829.735413,298
829.85376,324
829.972107,312
830.090515,314
830.208862,329
830.327209,306
830.445557,318
830.563904,309
830.682312,311
830.800659,322
830.919006,306
831.037354,319
831.155701,324
831.274048,326
831.392395,320
831.51062,315
831.629028,330
831.747314,327
831.865662,312
831.984009,329
832.102356,313
832.220642,335
832.338928,321
832.457275,318
832.575623,329
832.693909,316
832.812134,315
832.930481,304
833.048828,322
833.167114,304
833.2854,310
833.403687,304
833.521973,316
833.640259,321
833.758545,309
833.876831,308
833.995056,326
834.113281,315
834.231628,315
834.349915,313
834.468201,314
834.586426,309
834.704651,327
834.822998,318
834.941162,296
835.059448,315
835.177673,313
835.295959,318
835.414246,320
835.53241,315
835.650635,309
835.768921,321
835.887146,317
836.005371,322
836.123596,311
836.241821,310
836.360046,300
836.478271,327
836.596497,317
836.714722,317
836.832886,322
836.95105,328
837.069336,308
837.1875,317
837.305725,316
837.423889,320
837.542053,315
837.660339,323
837.778503,291
837.896667,330
838.014832,314
838.132996,320
838.25116,314
838.369385,319
838.487488,322
838.605713,315
838.723877,307
838.84198,334
838.960205,314
839.078308,321
839.196472,302
839.314636,323
839.4328,303
839.550964,324
839.669067,310
839.787231,330
839.905396,307
840.023499,315
840.141602,319
840.259766,321
840.377869,318
840.495972,315
840.614136,321
840.732239,308
840.850342,305
840.968445,309
841.086548,316
841.204651,321
841.322754,309
841.440918,300
841.55896,317
841.677002,320
841.795166,306
841.913208,326
842.031311,318
842.149353,319
842.267456,314
842.385498,305
842.503601,313
842.621643,304
842.739746,322
842.857788,322
842.97583,326
843.093933,314
843.211975,317
843.330017,305
843.44812,308
843.566101,316
843.684204,311
843.802246,319
843.920227,311
844.038269,319
844.156311,328
844.274292,320
844.392395,321
844.510376,323
844.628357,309
844.74646,315
844.864441,312
844.982422,315
845.100403,331
845.218384,306
845.336426,313
845.454468,319
845.572449,310
845.69043,316
845.808411,324
845.926453,330
846.044373,311
846.162354,313
846.280396,326
846.398315,319
846.516296,325
846.634216,306
846.752197,330
846.870178,308
846.988098,318
847.106079,318
847.22406,310
847.34198,313
847.4599,306
847.577881,314
847.695801,319
847.813782,318
847.931641,334
848.049561,323
848.167603,318
848.285461,318
848.403381,302
848.521362,316
848.639221,322
848.75708,308
848.875,320
848.99292,299
849.110901,314
849.22876,319
849.34668,311
849.464539,318
849.582458,306
849.700317,319
849.818176,304
849.936096,328
850.053955,310
850.171875,321
850.289673,323
850.407593,305
850.525452,316
850.643311,321
850.761169,302
850.878967,327
850.996887,315
851.114746,315
851.232544,306
851.350403,326
851.468262,310
851.58606,316
851.703979,316
851.821777,321
851.939636,319
852.057434,312
852.175232,304
852.293091,319
852.410889,309
852.528687,324
852.646545,313
852.764343,320
852.88208,320
852.999939,316
853.117676,303
853.235535,320
853.353271,308
853.471069,326
853.588928,320
853.706604,314
853.824402,319
853.9422,311
854.059998,328
854.177734,303
854.295532,317
854.413269,298
854.531006,310
854.648804,323
854.766541,325
854.884277,302
855.002014,326
855.119751,324
855.237549,317
855.355225,315
855.473022,324
855.590698,313
855.708435,315
855.826172,312
855.943848,315
856.061646,315
856.179321,307
856.296997,322
856.414795,314
856.53241,313
856.650085,311
856.767822,332
856.885559,318
857.003174,310
857.120911,315
857.238586,318
857.356201,314
857.473938,312
857.591614,315
857.709351,312
857.826965,314
857.944641,323
858.062317,313
858.179993,323
858.297668,318
858.415283,316
858.532959,323
858.650574,308
858.768188,319
858.885803,307
859.003479,323
859.121094,323
859.23877,318
859.356384,314
859.473999,306
859.591675,310
859.709229,301
859.826843,317
859.944458,305
860.062012,311
860.179626,319
860.297302,317
860.414856,310
860.532471,314
860.650024,321
860.767639,304
860.885193,311
861.002808,302
861.120361,323
861.237976,320
861.35553,310
861.473022,316
861.590698,307
861.708191,317
861.825745,319
861.943298,311
862.060852,304
862.178406,320
862.295959,309
862.413513,309
862.531006,316
862.64856,310
862.766113,310
862.883667,335
863.00116,301
863.118713,310
863.236206,316
863.353699,324
863.471252,319
863.588745,313
863.706177,314
863.82373,309
863.941162,319
864.058716,315
864.176208,310
864.29364,313
864.411194,317
864.528687,312
864.646118,313
864.763611,324
864.881042,307
864.998535,320
865.116028,311
865.233459,311
865.350891,317
865.468384,306
865.585754,308
865.703308,306
865.820679,304
865.938171,322
866.055542,307
866.173035,319
866.290466,312
866.407837,323
866.52533,327
866.6427,307
866.760071,322
866.877563,325
866.994934,319
867.112305,324
867.229736,310
867.347107,317
867.464539,315
867.58197,324
867.699341,312
867.81665,319
867.934082,321
868.051453,313
868.168823,317
868.286194,312
868.403564,315
868.520935,316
868.638306,297
868.755676,322
868.872986,302
868.990295,317
869.107727,309
869.225037,320
869.342346,314
869.459717,313
869.577026,302
869.694336,320
869.811707,310
869.929016,316
870.046326,318
870.163635,310
870.280945,324
870.398254,316
870.515564,307
870.632812,313
870.750183,311
870.867432,326
870.984741,322
871.102051,322
871.219299,311
871.336609,314
871.453918,305
871.571106,315
871.688416,308
871.805664,318
871.922852,311
872.040222,315
872.157471,309
872.274719,327
872.391968,312
872.509155,314
872.626465,312
872.743652,310
872.860962,320
872.978149,318
873.095337,316
873.212646,315
873.329834,310
873.44696,323
873.564209,306
873.681396,317
873.798645,319
873.915894,327
874.03302,324
874.150208,328
874.267456,300
874.384583,301
874.501831,318
874.618958,313
874.736145,317
874.853333,306
874.970459,301
875.087646,323
875.204834,314
875.32196,309
875.439148,324
875.556274,318
875.673401,318
875.790527,314
875.907715,316
876.024841,310
876.141968,316
876.259094,322
876.376282,314
876.493347,326
876.610474,313
876.7276,311
876.844727,309
876.961853,326
877.078918,315
877.195984,304
877.313171,310
877.430237,317
877.547302,325
877.664368,315
877.781433,304
877.898499,324
878.015625,314
878.13269,314
878.249695,318
878.366821,301
878.483887,297
878.600952,321
878.717957,326
878.834961,319
878.952087,314
879.069092,312
879.186157,304
879.303162,329
879.420227,312
879.537231,328
879.654236,318
879.77124,317
879.888306,325
880.005249,313
880.122314,311
880.239319,321
880.356323,314
880.473328,321
880.590271,303
880.707275,320
880.824341,315
880.941284,325
881.058228,315
881.175232,308
881.292236,307
881.40918,314
881.526123,297
881.643066,324
881.760071,320
881.877014,319
881.993958,321
882.11084,301
882.227783,321
882.344727,314
882.46167,315
882.578613,317
882.695618,308
882.812439,310
882.929382,323
883.046326,320
883.163208,312
883.280151,318
883.397034,319
883.513916,317
883.630798,312
883.747742,317
883.864563,306
883.981506,321
884.098389,327
884.21521,306
884.332153,324
884.448975,318
884.565796,328
884.682678,311
884.7995,320
884.916443,320
885.033264,328
885.150085,317
885.266968,318
885.383789,313
885.500671,329
885.617493,327
885.734314,313
885.851196,324
885.967896,316
886.084717,315
886.201599,327
886.318359,317
886.435181,317
886.552002,324
886.668762,307
886.785645,320
886.902344,326
887.019165,315
887.135925,310
887.252747,304
887.369446,319
887.486267,328
887.603027,330
887.719788,327
887.836548,317
887.953247,330
888.070068,330
888.186829,317
888.303528,320
888.420288,313
888.536987,306
888.653687,325
888.770447,320
888.887146,300
889.003967,315
889.120667,319
889.237305,313
889.354065,326
889.470703,316
889.587463,314
889.704163,305
889.820862,322
889.937561,313
890.054199,325
890.170837,318
890.287598,319
890.404236,313
890.520874,328
890.637634,307
890.754211,318
890.87085,298
890.987549,311
891.104187,314
891.220886,314
891.337463,329
891.454102,315
891.57074,318
891.687378,331
891.804077,313
891.920654,318
892.037231,303
892.15387,328
892.270447,315
892.387085,316
892.503723,320
892.6203,303
892.736877,320
892.853516,323
892.970032,318
893.08667,317
893.203186,308
893.319763,321
893.43634,316
893.552917,315
893.669556,323
893.786011,314
893.902588,313
894.019165,320
894.135681,319
894.252197,325
894.368835,318
894.485291,326
894.601868,320
894.718384,303
894.8349,309
894.951355,316
895.067932,325
895.184448,325
895.300964,309
895.417419,300
895.533936,311
895.650452,317
895.766907,316
895.883423,312
895.999878,312
896.116333,320
896.232849,303
896.349304,314
896.465759,307
896.582214,335
896.698669,317
896.815125,304
896.931641,310
897.048035,323
897.164551,315
897.280884,298
897.397339,318
897.513794,313
897.630249,317
897.746582,318
897.863098,303
897.979431,321
898.095886,315
898.212341,310
898.328674,315
898.445129,322
898.561462,309
898.677795,317
898.794312,313
898.910645,308
899.026978,316
899.143433,313
899.259766,312
899.37616,324
899.492493,315
899.608765,322
899.725159,314
899.841553,326
899.957947,312
900.07428,331
900.190552,306
900.306946,316
900.423157,302
900.53949,314
900.655884,330
900.772156,321
900.888489,310
901.004822,331
901.121033,325
901.237366,312
901.353699,308
901.46991,335
901.586304,306
901.702515,318
901.818787,324
901.93512,313
902.051331,326
902.167603,317
902.283875,303
902.400085,328
902.516418,297
902.632629,323
902.74884,317
902.865112,311
902.981384,307
903.097595,312
903.213867,318
903.330017,315
903.446289,310
903.5625,331
903.67865,315
903.794922,324
903.911072,316
904.027344,311
904.143494,318
904.259705,303
904.375916,311
904.492065,320
904.608215,321
904.724426,315
904.840576,320
904.956726,321
905.072876,310
905.189087,327
905.305176,315
905.421387,314
905.537537,315
905.653687,316
905.769775,296
905.885925,316
906.002014,312
906.118164,317
906.234314,326
906.350403,324
906.466492,317
906.582642,328
906.69873,325
906.814758,319
906.930908,309
907.046936,323
907.163086,318
907.279175,325
907.395264,323
907.511353,326
907.62738,311
907.743408,322
907.859497,309
907.975525,315
908.091553,316
908.207703,324
908.32373,309
908.439758,317
908.555786,315
908.671814,306
908.787842,310
908.90387,305
909.019775,311
909.135864,314
909.251892,310
909.367859,323
909.483826,304
909.599854,326
909.715881,316
909.831848,317
909.947815,299
910.063782,327
910.179749,311
910.295776,323
910.411743,320
910.527649,323
910.643616,302
910.759583,323
910.875488,304
910.991455,325
911.107361,314
911.223267,310
911.339294,319
911.4552,321
911.571106,322
911.687073,328
911.802979,305
911.918823,319
912.034729,313
912.150635,315
912.266602,304
912.382446,306
912.498352,319
912.614197,325
912.730103,320
912.846008,328
792.44574,310
792.56488,354
792.68396,383
792.80304,390
792.92218,355
793.041199,317
793.160339,333
793.279419,344
793.398499,350
793.517578,323
793.636658,329
793.755737,333
793.874817,351
793.993896,354
794.112976,335
794.232056,310
794.351074,326
794.470215,341
794.589233,338
794.708313,319
794.827393,332
794.946411,332
795.065552,342
795.18457,346
795.303589,335
795.422668,322
795.541687,337
795.660767,318
795.779846,329
795.898865,332
796.017883,332
796.136963,328
796.255981,341
796.375061,322
796.49408,330
796.613037,334
796.732117,334
796.851135,340
796.970154,334
797.089233,340
797.208191,329
797.327271,332
797.446228,331
797.565186,336
797.684265,322
797.803223,317
797.922241,319
798.04126,329
798.160278,334
798.279297,327
798.398315,328
798.517273,333
798.636292,341
798.75531,340
798.874268,329
798.993286,334
799.112244,335
799.231323,330
799.350281,322
799.469238,343
799.588257,318
799.707153,332
799.826111,329
799.945129,343
800.064087,335
800.183044,326
800.302063,342
800.421021,333
800.539978,353
800.658936,335
800.777893,332
800.896912,332
801.015747,328
801.134705,322
801.253723,330
801.37262,321
801.491638,307
801.610535,326
801.729492,346
801.84845,335
801.967407,329
802.086243,332
802.205261,324
802.324158,333
802.443115,332
802.562073,328
802.680969,334
802.799927,332
802.918762,338
803.037659,336
803.156677,330
803.275574,341
803.39447,328
803.513428,326
803.632263,325
803.751221,322
803.870117,347
803.989014,322
804.107971,331
804.226746,339
804.345642,332
804.4646,344
804.583496,333
804.702393,344
804.821228,331
804.940125,321
805.059021,334
805.177917,334
805.296814,329
805.415649,338
805.534546,339
805.653442,336
805.772278,351
805.891113,333
806.01001,352
806.128906,334
806.247742,348
806.366577,320
806.485413,339
806.604309,345
806.723145,328
806.84198,332
806.960876,340
807.079712,336
807.198486,338
807.317383,341
807.436218,335
807.554993,331
807.673889,329
807.792725,336
807.91156,332
808.030396,333
808.14917,331
808.268005,334
808.386841,344
808.505676,351
808.624451,330
808.743286,322
808.862122,355
808.980896,324
809.099731,337
809.218506,326
809.337341,327
809.456116,335
809.57489,342
809.693726,333
809.8125,346
809.931274,335
810.050049,338
810.168884,331
810.287659,338
810.406372,333
810.525269,342
810.643982,346
810.762756,340
810.881531,331
811.000305,327
811.11908,330
811.237854,324
811.356567,355
811.475403,326
811.594116,340
811.71283,342
811.831604,347
811.950378,330
812.069153,320
812.187927,343
812.30658,339
812.425415,335
812.544128,352
812.662781,344
812.781616,343
812.900269,330
813.019043,334
813.137756,343
813.256531,350
813.375244,331
813.493896,327
813.612671,325
813.731384,323
813.850037,334
813.96875,341
814.087524,342
814.206238,341
814.324951,336
814.443604,350
814.562256,333
814.68103,330
814.799683,337
814.918335,333
815.037109,345
815.155762,334
815.274475,326
815.393188,337
815.511841,329
815.630554,329
815.749146,322
815.867859,331
815.986572,329
816.105164,332
816.223877,323
816.342529,337
816.461182,330
816.579895,327
816.698486,331
816.817139,327
816.935791,343
817.054504,348
817.173096,327
817.291748,337
817.4104,318
817.529053,331
817.647644,328
817.766235,334
817.884949,325
818.00354,327
818.122192,326
818.240845,330
818.359436,329
818.478088,338
818.59668,324
818.715271,320
818.833923,331
818.952515,322
819.071106,322
819.189758,331
819.30835,325
819.426941,321
819.545532,329
819.664124,323
819.782715,321
819.901306,339
820.019897,325
820.138489,331
820.25708,327
820.375671,327
820.494202,316
820.612732,320
820.731384,322
820.849915,332
820.968506,331
821.087097,319
821.205627,332
821.324158,320
821.442749,318
821.561279,324
821.679871,322
821.798401,325
821.916931,324
822.035461,324
822.154053,319
822.272583,316
822.391174,325
822.509583,318
822.628174,316
822.746704,318
822.865234,319
822.983765,320
823.102295,332
823.220825,319
823.339294,324
823.457825,312
823.576355,323
823.694824,329
823.813354,334
823.931885,311
824.050354,321
824.168884,317
824.287354,318
824.405823,321
824.524353,330
824.642822,319
824.761353,323
824.879822,305
824.998291,328
825.116699,319
825.235291,323
825.353699,334
825.472168,315
825.590637,314
825.709106,301
825.827576,319
825.946045,321
826.064453,319
826.182983,320
826.301392,322
826.4198,322
826.53833,323
826.656738,329
826.775208,316
826.893677,316
827.012024,332
827.130493,309
827.248962,327
827.36731,320
827.485779,320
827.604248,324
827.722595,336
827.841064,315
827.959412,323
828.077942,308
828.196289,334
828.314636,326
828.433105,314
828.551514,318
828.669861,328
828.78833,324
828.906677,308
829.025085,326
829.143433,310
829.261841,321
829.38031,305
829.498657,319
829.617004,321
829.735413,301
829.85376,316
829.972107,317
830.090515,329
830.208862,314
830.327209,310
830.445557,315
830.563904,320
830.682312,323
830.800659,324
830.919006,319
831.037354,325
831.155701,308
831.274048,309
831.392395,317
831.51062,315
831.629028,326
831.747314,329
831.865662,315
831.984009,310
832.102356,302
832.220642,312
832.338928,317
832.457275,323
832.575623,315
832.693909,329
832.812134,316
832.930481,315
833.048828,330
833.167114,338
833.2854,318
833.403687,323
833.521973,316
833.640259,325
833.758545,296
833.876831,319
833.995056,321
834.113281,326
834.231628,315
834.349915,329
834.468201,328
834.586426,321
834.704651,308
834.822998,317
834.941162,318
835.059448,336
835.177673,304
835.295959,332
835.414246,320
835.53241,317
835.650635,325
835.768921,315
835.887146,309
836.005371,319
836.123596,326
836.241821,324
836.360046,322
836.478271,325
836.596497,304
836.714722,319
836.832886,327
836.95105,338
837.069336,304
837.1875,322
837.305725,328
837.423889,314
837.542053,317
837.660339,322
837.778503,323
837.896667,322
838.014832,308
838.132996,325
838.25116,333
838.369385,315
838.487488,321
838.605713,316
838.723877,329
838.84198,318
838.960205,321
839.078308,329
839.196472,327
839.314636,325
839.4328,330
839.550964,318
839.669067,335
839.787231,318
839.905396,331
840.023499,331
840.141602,316
840.259766,329
840.377869,327
840.495972,310
840.614136,310
840.732239,315
840.850342,311
840.968445,323
841.086548,320
841.204651,327
841.322754,303
841.440918,323
841.55896,328
841.677002,302
841.795166,327
841.913208,307
842.031311,326
842.149353,321
842.267456,325
842.385498,319
842.503601,322
842.621643,334
842.739746,330
842.857788,320
842.97583,325
843.093933,312
843.211975,318
843.330017,322
843.44812,321
843.566101,313
843.684204,315
843.802246,302
843.920227,314
844.038269,324
844.156311,327
844.274292,315
844.392395,300
844.510376,327
844.628357,325
844.74646,319
844.864441,323
844.982422,326
845.100403,313
845.218384,312
845.336426,326
845.454468,309
845.572449,319
845.69043,329
845.808411,308
845.926453,324
846.044373,311
846.162354,336
846.280396,324
846.398315,323
846.516296,322
846.634216,306
846.752197,329
846.870178,336
846.988098,314
847.106079,311
847.22406,311
847.34198,326
847.4599,300
847.577881,324
847.695801,312
847.813782,328
847.931641,313
848.049561,321
848.167603,324
848.285461,321
848.403381,320
848.521362,313
848.639221,315
848.75708,320
848.875,327
848.99292,307
849.110901,326
849.22876,326
849.34668,322
849.464539,322
849.582458,318
849.700317,321
849.818176,327
849.936096,313
850.053955,324
850.171875,321
850.289673,326
850.407593,315
850.525452,321
850.643311,313
850.761169,308
850.878967,322
850.996887,311
851.114746,325
851.232544,313
851.350403,314
851.468262,313
851.58606,313
851.703979,319
851.821777,318
851.939636,309
852.057434,324
852.175232,324
852.293091,310
852.410889,306
852.528687,318
852.646545,320
852.764343,322
852.88208,300
852.999939,320
853.117676,312
853.235535,329
853.353271,324
853.471069,315
853.588928,318
853.706604,301
853.824402,328
853.9422,328
854.059998,308
854.177734,310
854.295532,319
854.413269,317
854.531006,302
854.648804,311
854.766541,306
854.884277,328
855.002014,320
855.119751,321
855.237549,322
855.355225,313
855.473022,318
855.590698,321
855.708435,312
855.826172,313
855.943848,312
856.061646,319
856.179321,325
856.296997,333
856.414795,324
856.53241,325
856.650085,329
856.767822,332
856.885559,315
857.003174,319
857.120911,314
857.238586,319
857.356201,310
857.473938,316
857.591614,314
857.709351,315
857.826965,304
857.944641,322
858.062317,316
858.179993,316
858.297668,326
858.415283,321
858.532959,325
858.650574,320
858.768188,316
858.885803,325
859.003479,314
859.121094,329
859.23877,317
859.356384,307
859.473999,325
859.591675,326
859.709229,324
859.826843,323
859.944458,310
860.062012,315
860.179626,332
860.297302,323
860.414856,328
860.532471,319
860.650024,309
860.767639,317
860.885193,329
861.002808,324
861.120361,309
861.237976,308
861.35553,321
861.473022,334
861.590698,322
861.708191,324
861.825745,330
861.943298,311
862.060852,322
862.178406,326
862.295959,320
862.413513,317
862.531006,309
862.64856,325
862.766113,323
862.883667,311
863.00116,309
863.118713,307
863.236206,317
863.353699,328
863.471252,314
863.588745,326
863.706177,308
863.82373,319
863.941162,314
864.058716,319
864.176208,312
864.29364,324
864.411194,319
864.528687,320
864.646118,310
864.763611,316
864.881042,318
864.998535,309
865.116028,317
865.233459,318
865.350891,325
865.468384,322
865.585754,313
865.703308,318
865.820679,314
865.938171,312
866.055542,322
866.173035,332
866.290466,315
866.407837,311
866.52533,315
866.6427,321
866.760071,313
866.877563,319
866.994934,303
867.112305,319
867.229736,318
867.347107,338
867.464539,322
867.58197,325
867.699341,316
867.81665,319
867.934082,298
868.051453,317
868.168823,319
868.286194,325
868.403564,316
868.520935,331
868.638306,316
868.755676,328
868.872986,309
868.990295,314
869.107727,313
869.225037,332
869.342346,328
869.459717,319
869.577026,330
869.694336,325
869.811707,331
869.929016,308
870.046326,307
870.163635,322
870.280945,318
870.398254,316
870.515564,302
870.632812,328
870.750183,318
870.867432,310
870.984741,318
871.102051,318
871.219299,313
871.336609,319
871.453918,340
871.571106,322
871.688416,320
871.805664,307
871.922852,320
872.040222,313
872.157471,312
872.274719,319
872.391968,314
872.509155,332
872.626465,316
872.743652,319
872.860962,301
872.978149,305
873.095337,314
873.212646,311
873.329834,318
873.44696,316
873.564209,324
873.681396,324
873.798645,316
873.915894,325
874.03302,304
874.150208,313
874.267456,317
874.384583,324
874.501831,313
874.618958,318
874.736145,310
874.853333,303
874.970459,314
875.087646,328
875.204834,307
875.32196,316
875.439148,327
875.556274,320
875.673401,313
875.790527,309
875.907715,317
876.024841,320
876.141968,331
876.259094,325
876.376282,307
876.493347,316
876.610474,315
876.7276,319
876.844727,318
876.961853,306
877.078918,312
877.195984,307
877.313171,325
877.430237,315
877.547302,306
877.664368,313
877.781433,320
877.898499,328
878.015625,325
878.13269,320
878.249695,303
878.366821,311
878.483887,331
878.600952,330
878.717957,319
878.834961,312
878.952087,323
879.069092,323
879.186157,304
879.303162,316
879.420227,313
879.537231,308
879.654236,319
879.77124,311
879.888306,313
880.005249,318
880.122314,312
880.239319,315
880.356323,309
880.473328,318
880.590271,313
880.707275,316
880.824341,317
880.941284,323
881.058228,321
881.175232,317
881.292236,315
881.40918,326
881.526123,320
881.643066,333
881.760071,330
881.877014,316
881.993958,310
882.11084,334
882.227783,319
882.344727,322
882.46167,328
882.578613,321
882.695618,327
882.812439,325
882.929382,312
883.046326,315
883.163208,330
883.280151,323
883.397034,311
883.513916,319
883.630798,330
883.747742,323
883.864563,317
883.981506,312
884.098389,319
884.21521,320
884.332153,319
884.448975,321
884.565796,318
884.682678,326
884.7995,318
884.916443,303
885.033264,319
885.150085,313
885.266968,314
885.383789,320
885.500671,317
885.617493,331
885.734314,312
885.851196,308
885.967896,324
886.084717,324
886.201599,312
886.318359,328
886.435181,316
886.552002,311
886.668762,329
886.785645,324
886.902344,311
887.019165,325
887.135925,326
887.252747,335
887.369446,319
887.486267,317
887.603027,317
887.719788,314
887.836548,317
887.953247,325
888.070068,310
888.186829,308
888.303528,310
888.420288,321
888.536987,321
888.653687,311
888.770447,317
888.887146,317
889.003967,316
889.120667,316
889.237305,317
889.354065,315
889.470703,314
889.587463,325
889.704163,319
889.820862,317
889.937561,311
890.054199,320
890.170837,313
890.287598,312
890.404236,316
890.520874,322
890.637634,320
890.754211,316
890.87085,327
890.987549,328
891.104187,301
891.220886,309
891.337463,299
891.454102,315
891.57074,310
891.687378,315
891.804077,324
891.920654,317
892.037231,324
892.15387,309
892.270447,302
892.387085,303
892.503723,317
892.6203,330
892.736877,320
892.853516,319
892.970032,325
893.08667,340
893.203186,318
893.319763,323
893.43634,318
893.552917,319
893.669556,315
893.786011,321
893.902588,327
894.019165,332
894.135681,316
894.252197,326
894.368835,321
894.485291,321
894.601868,310
894.718384,320
894.8349,310
894.951355,319
895.067932,304
895.184448,317
895.300964,322
895.417419,322
895.533936,326
895.650452,305
895.766907,339
895.883423,326
895.999878,319
896.116333,324
896.232849,313
896.349304,320
896.465759,319
896.582214,334
896.698669,308
896.815125,322
896.931641,323
897.048035,305
897.164551,324
897.280884,333
897.397339,316
897.513794,324
897.630249,313
897.746582,319
897.863098,325
897.979431,308
898.095886,309
898.212341,320
898.328674,319
898.445129,319
898.561462,313
898.677795,320
898.794312,326
898.910645,310
899.026978,315
899.143433,310
899.259766,313
899.37616,308
899.492493,317
899.608765,321
899.725159,312
899.841553,313
899.957947,303
900.07428,309
900.190552,323
900.306946,324
900.423157,319
900.53949,324
900.655884,317
900.772156,322
900.888489,320
901.004822,317
901.121033,301
901.237366,323
901.353699,325
901.46991,310
901.586304,316
901.702515,322
901.818787,321
901.93512,314
902.051331,326
902.167603,307
902.283875,322
902.400085,319
902.516418,310
902.632629,325
902.74884,320
902.865112,313
902.981384,322
903.097595,317
903.213867,307
903.330017,317
903.446289,309
903.5625,319
903.67865,322
903.794922,314
903.911072,305
904.027344,324
904.143494,309
904.259705,315
904.375916,313
904.492065,318
904.608215,311
904.724426,304
904.840576,317
904.956726,317
905.072876,318
905.189087,317
905.305176,320
905.421387,324
905.537537,306
905.653687,330
905.769775,307
905.885925,326
906.002014,314
906.118164,316
906.234314,316
906.350403,319
906.466492,319
906.582642,320
906.69873,311
906.814758,331
906.930908,331
907.046936,336
907.163086,314
907.279175,310
907.395264,335
907.511353,336
907.62738,326
907.743408,321
907.859497,313
907.975525,330
908.091553,322
908.207703,323
908.32373,299
908.439758,316
908.555786,313
908.671814,309
908.787842,316
908.90387,320
909.019775,315
909.135864,320
909.251892,318
909.367859,332
909.483826,321
909.599854,317
909.715881,330
909.831848,328
909.947815,312
910.063782,323
910.179749,331
910.295776,319
910.411743,312
910.527649,318
910.643616,320
910.759583,315
910.875488,333
910.991455,306
911.107361,326
911.223267,307
911.339294,302
911.4552,333
911.571106,318
911.687073,332
911.802979,329
911.918823,319
912.034729,317
912.150635,331
912.266602,321
912.382446,315
912.498352,329
912.614197,326
912.730103,313
912.846008,328
