792.44574,316
792.56488,355
792.68396,399
792.80304,384
792.92218,323
793.041199,326
793.160339,316
793.279419,346
793.398499,329
793.517578,322
793.636658,313
793.755737,337
793.874817,348
793.993896,353
794.112976,333
794.232056,334
794.351074,335
794.470215,338
794.589233,328
794.708313,338
794.827393,339
794.946411,339
795.065552,341
795.18457,330
795.303589,338
795.422668,320
795.541687,330
795.660767,328
795.779846,329
795.898865,338
796.017883,335
796.136963,317
796.255981,342
796.375061,330
796.49408,333
796.613037,330
796.732117,327
796.851135,343
796.970154,321
797.089233,333
797.208191,314
797.327271,342
797.446228,338
797.565186,328
797.684265,324
797.803223,326
797.922241,319
798.04126,343
798.160278,329
798.279297,324
798.398315,330
798.517273,337
798.636292,328
798.75531,344
798.874268,324
798.993286,337
799.112244,310
799.231323,324
799.350281,323
799.469238,334
799.588257,331
799.707153,328
799.826111,317
799.945129,338
800.064087,341
800.183044,325
800.302063,342
800.421021,332
800.539978,335
800.658936,318
800.777893,329
800.896912,347
801.015747,331
801.134705,328
801.253723,327
801.37262,328
801.491638,325
801.610535,328
801.729492,337
801.84845,330
801.967407,325
802.086243,343
802.205261,337
802.324158,336
802.443115,324
802.562073,327
802.680969,326
802.799927,319
802.918762,323
803.037659,334
803.156677,328
803.275574,331
803.39447,321
803.513428,342
803.632263,337
803.751221,335
803.870117,329
803.989014,333
804.107971,329
804.226746,329
804.345642,334
804.4646,330
804.583496,336
804.702393,339
804.821228,332
804.940125,323
805.059021,325
805.177917,342
805.296814,329
805.415649,340
805.534546,324
805.653442,352
805.772278,333
805.891113,334
806.01001,342
806.128906,331
806.247742,332
806.366577,353
806.485413,340
806.604309,332
806.723145,318
806.84198,341
806.960876,335
807.079712,329
807.198486,323
807.317383,333
807.436218,335
807.554993,321
807.673889,327
807.792725,338
807.91156,337
808.030396,335
808.14917,327
808.268005,318
808.386841,336
808.505676,334
808.624451,328
808.743286,335
808.862122,342
808.980896,334
809.099731,333
809.218506,334
809.337341,331
809.456116,340
809.57489,333
809.693726,340
809.8125,328
809.931274,346
810.050049,336
810.168884,333
810.287659,356
810.406372,335
810.525269,333
810.643982,335
810.762756,340
810.881531,356
811.000305,338
811.11908,335
811.237854,325
811.356567,336
811.475403,336
811.594116,350
811.71283,348
811.831604,336
811.950378,330
812.069153,321
812.187927,332
812.30658,333
812.425415,328
812.544128,326
812.662781,336
812.781616,340
812.900269,344
813.019043,339
813.137756,343
813.256531,328
813.375244,356
813.493896,336
813.612671,328
813.731384,328
813.850037,344
813.96875,331
814.087524,326
814.206238,328
814.324951,326
814.443604,315
814.562256,342
814.68103,334
814.799683,335
814.918335,333
815.037109,331
815.155762,333
815.274475,339
815.393188,327
815.511841,346
815.630554,342
815.749146,339
815.867859,347
815.986572,333
816.105164,322
816.223877,332
816.342529,342
816.461182,326
816.579895,341
816.698486,314
816.817139,336
816.935791,338
817.054504,326
817.173096,327
817.291748,339
817.4104,339
817.529053,329
817.647644,332
817.766235,325
817.884949,329
818.00354,347
818.122192,332
818.240845,344
818.359436,336
818.478088,315
818.59668,327
818.715271,324
818.833923,326
818.952515,335
819.071106,328
819.189758,317
819.30835,329
819.426941,336
819.545532,322
819.664124,326
819.782715,319
819.901306,322
820.019897,330
820.138489,329
820.25708,319
820.375671,328
820.494202,323
820.612732,316
820.731384,321
820.849915,314
820.968506,316
821.087097,323
821.205627,320
821.324158,328
821.442749,321
821.561279,320
821.679871,344
821.798401,320
821.916931,314
822.035461,319
822.154053,319
822.272583,315
822.391174,316
822.509583,319
822.628174,319
822.746704,325
822.865234,333
822.983765,312
823.102295,317
823.220825,327
823.339294,329
823.457825,319
823.576355,334
823.694824,322
823.813354,329
823.931885,312
824.050354,334
824.168884,316
824.287354,328
824.405823,331
824.524353,308
824.642822,324
824.761353,307
824.879822,314
824.998291,323
825.116699,324
825.235291,317
825.353699,320
825.472168,304
825.590637,334
825.709106,312
825.827576,320
825.946045,321
826.064453,327
826.182983,335
826.301392,303
826.4198,318
826.53833,318
826.656738,317
826.775208,328
826.893677,332
827.012024,323
827.130493,321
827.248962,316
827.36731,323
827.485779,297
827.604248,312
827.722595,299
827.841064,315
827.959412,322
828.077942,309
828.196289,308
828.314636,317
828.433105,327
828.551514,310
828.669861,327
828.78833,322
828.906677,326
829.025085,318
829.143433,318
829.261841,321
829.38031,319
829.498657,303
829.617004,309
829.735413,314
829.85376,319
829.972107,312
830.090515,332
830.208862,314
830.327209,324
830.445557,304
830.563904,324
830.682312,327
830.800659,335
830.919006,317
831.037354,334
831.155701,322
831.274048,328
831.392395,297
831.51062,316
831.629028,314
831.747314,323
831.865662,314
831.984009,322
832.102356,338
832.220642,318
832.338928,313
832.457275,312
832.575623,318
832.693909,306
832.812134,321
832.930481,319
833.048828,320
833.167114,316
833.2854,320
833.403687,321
833.521973,309
833.640259,327
833.758545,299
833.876831,329
833.995056,317
834.113281,319
834.231628,314
834.349915,316
834.468201,323
834.586426,321
834.704651,312
834.822998,315
834.941162,318
835.059448,312
835.177673,321
835.295959,325
835.414246,322
835.53241,325
835.650635,319
835.768921,325
835.887146,313
836.005371,307
836.123596,309
836.241821,299
836.360046,316
836.478271,315
836.596497,324
836.714722,311
836.832886,309
836.95105,320
837.069336,315
837.1875,313
837.305725,317
837.423889,333
837.542053,316
837.660339,316
837.778503,306
837.896667,310
838.014832,325
838.132996,332
838.25116,316
838.369385,306
838.487488,311
838.605713,333
838.723877,304
838.84198,317
838.960205,317
839.078308,311
839.196472,319
839.314636,306
839.4328,326
839.550964,324
839.669067,310
839.787231,317
839.905396,332
840.023499,332
840.141602,321
840.259766,317
840.377869,322
840.495972,337
840.614136,315
840.732239,311
840.850342,312
840.968445,316
841.086548,315
841.204651,318
841.322754,318
841.440918,322
841.55896,322
841.677002,321
841.795166,312
841.913208,322
842.031311,314
842.149353,315
842.267456,318
842.385498,323
842.503601,314
842.621643,316
842.739746,323
842.857788,327
842.97583,318
843.093933,322
843.211975,318
843.330017,328
843.44812,310
843.566101,318
843.684204,313
843.802246,315
843.920227,329
844.038269,322
844.156311,312
844.274292,324
844.392395,317
844.510376,331
844.628357,306
844.74646,304
844.864441,324
844.982422,319
845.100403,293
845.218384,320
845.336426,314
845.454468,308
845.572449,323
845.69043,320
845.808411,327
845.926453,322
846.044373,315
846.162354,317
846.280396,312
846.398315,318
846.516296,315
846.634216,301
846.752197,314
846.870178,315
846.988098,295
847.106079,326
847.22406,315
847.34198,317
847.4599,315
847.577881,315
847.695801,315
847.813782,311
847.931641,312
848.049561,318
848.167603,316
848.285461,312
848.403381,322
848.521362,316
848.639221,325
848.75708,319
848.875,332
848.99292,320
849.110901,321
849.22876,314
849.34668,317
849.464539,325
849.582458,324
849.700317,311
849.818176,325
849.936096,319
850.053955,317
850.171875,314
850.289673,310
850.407593,331
850.525452,316
850.643311,323
850.761169,308
850.878967,318
850.996887,310
851.114746,314
851.232544,313
851.350403,318
851.468262,309
851.58606,312
851.703979,311
851.821777,309
851.939636,321
852.057434,323
852.175232,326
852.293091,320
852.410889,318
852.528687,307
852.646545,314
852.764343,317
852.88208,320
852.999939,300
853.117676,322
853.235535,315
853.353271,312
853.471069,315
853.588928,305
853.706604,320
853.824402,314
853.9422,330
854.059998,311
854.177734,321
854.295532,305
854.413269,310
854.531006,312
854.648804,322
854.766541,326
854.884277,321
855.002014,319
855.119751,322
855.237549,316
855.355225,309
855.473022,319
855.590698,315
855.708435,322
855.826172,317
855.943848,314
856.061646,325
856.179321,307
856.296997,304
856.414795,316
856.53241,321
856.650085,319
856.767822,322
856.885559,322
857.003174,322
857.120911,323
857.238586,320
857.356201,311
857.473938,305
857.591614,305
857.709351,317
857.826965,317
857.944641,319
858.062317,320
858.179993,314
858.297668,314
858.415283,314
858.532959,311
858.650574,317
858.768188,312
858.885803,311
859.003479,312
859.121094,319
859.23877,325
859.356384,327
859.473999,323
859.591675,320
859.709229,306
859.826843,313
859.944458,322
860.062012,319
860.179626,314
860.297302,314
860.414856,319
860.532471,315
860.650024,320
860.767639,308
860.885193,308
861.002808,310
861.120361,306
861.237976,315
861.35553,319
861.473022,321
861.590698,312
861.708191,319
861.825745,310
861.943298,324
862.060852,319
862.178406,329
862.295959,305
862.413513,314
862.531006,310
862.64856,318
862.766113,313
862.883667,307
863.00116,321
863.118713,307
863.236206,312
863.353699,314
863.471252,309
863.588745,310
863.706177,326
863.82373,306
863.941162,322
864.058716,323
864.176208,316
864.29364,313
864.411194,310
864.528687,317
864.646118,316
864.763611,321
864.881042,317
864.998535,297
865.116028,318
865.233459,322
865.350891,315
865.468384,309
865.585754,300
865.703308,326
865.820679,314
865.938171,321
866.055542,315
866.173035,316
866.290466,317
866.407837,313
866.52533,315
866.6427,313
866.760071,311
866.877563,330
866.994934,305
867.112305,320
867.229736,320
867.347107,310
867.464539,317
867.58197,321
867.699341,323
867.81665,330
867.934082,312
868.051453,319
868.168823,310
868.286194,307
868.403564,306
868.520935,314
868.638306,319
868.755676,323
868.872986,317
868.990295,316
869.107727,315
869.225037,315
869.342346,314
869.459717,313
869.577026,313
869.694336,316
869.811707,318
869.929016,329
870.046326,320
870.163635,308
870.280945,325
870.398254,313
870.515564,321
870.632812,318
870.750183,325
870.867432,320
870.984741,324
871.102051,311
871.219299,321
871.336609,314
871.453918,309
871.571106,311
871.688416,314
871.805664,316
871.922852,307
872.040222,315
872.157471,308
872.274719,309
872.391968,310
872.509155,319
872.626465,313
872.743652,318
872.860962,315
872.978149,305
873.095337,312
873.212646,328
873.329834,318
873.44696,314
873.564209,314
873.681396,329
873.798645,302
873.915894,328
874.03302,314
874.150208,317
874.267456,315
874.384583,330
874.501831,317
874.618958,329
874.736145,321
874.853333,324
874.970459,320
875.087646,318
875.204834,325
875.32196,312
875.439148,303
875.556274,308
875.673401,314
875.790527,315
875.907715,319
876.024841,318
876.141968,310
876.259094,310
876.376282,306
876.493347,317
876.610474,307
876.7276,306
876.844727,306
876.961853,307
877.078918,307
877.195984,311
877.313171,307
877.430237,313
877.547302,316
877.664368,315
877.781433,310
877.898499,299
878.015625,320
878.13269,319
878.249695,310
878.366821,321
878.483887,311
878.600952,320
878.717957,313
878.834961,314
878.952087,305
879.069092,317
879.186157,322
879.303162,302
879.420227,315
879.537231,326
879.654236,324
879.77124,324
879.888306,321
880.005249,312
880.122314,312
880.239319,314
880.356323,318
880.473328,326
880.590271,318
880.707275,314
880.824341,304
880.941284,323
881.058228,316
881.175232,329
881.292236,304
881.40918,320
881.526123,317
881.643066,311
881.760071,310
881.877014,322
881.993958,314
882.11084,332
882.227783,309
882.344727,320
882.46167,320
882.578613,324
882.695618,320
882.812439,325
882.929382,327
883.046326,321
883.163208,324
883.280151,317
883.397034,311
883.513916,322
883.630798,307
883.747742,305
883.864563,311
883.981506,319
884.098389,318
884.21521,314
884.332153,309
884.448975,298
884.565796,319
884.682678,320
884.7995,315
884.916443,313
885.033264,310
885.150085,336
885.266968,317
885.383789,331
885.500671,311
885.617493,314
885.734314,315
885.851196,313
885.967896,317
886.084717,327
886.201599,315
886.318359,314
886.435181,316
886.552002,317
886.668762,293
886.785645,326
886.902344,304
887.019165,330
887.135925,309
887.252747,319
887.369446,316
887.486267,318
887.603027,320
887.719788,326
887.836548,309
887.953247,321
888.070068,319
888.186829,326
888.303528,304
888.420288,332
888.536987,311
888.653687,325
888.770447,325
888.887146,322
889.003967,306
889.120667,323
889.237305,310
889.354065,330
889.470703,310
889.587463,320
889.704163,311
889.820862,321
889.937561,313
890.054199,320
890.170837,314
890.287598,310
890.404236,311
890.520874,321
890.637634,318
890.754211,313
890.87085,318
890.987549,312
891.104187,323
891.220886,312
891.337463,314
891.454102,311
891.57074,312
891.687378,312
891.804077,319
891.920654,323
892.037231,315
892.15387,322
892.270447,325
892.387085,324
892.503723,313
892.6203,320
892.736877,313
892.853516,330
892.970032,319
893.08667,323
893.203186,311
893.319763,314
893.43634,314
893.552917,325
893.669556,311
893.786011,310
893.902588,320
894.019165,331
894.135681,316
894.252197,314
894.368835,315
894.485291,317
894.601868,315
894.718384,323
894.8349,309
894.951355,335
895.067932,311
895.184448,326
895.300964,317
895.417419,314
895.533936,323
895.650452,320
895.766907,319
895.883423,315
895.999878,307
896.116333,315
896.232849,314
896.349304,323
896.465759,300
896.582214,324
896.698669,311
896.815125,324
896.931641,308
897.048035,315
897.164551,308
897.280884,318
897.397339,307
897.513794,312
897.630249,315
897.746582,322
897.863098,323
897.979431,316
898.095886,322
898.212341,315
898.328674,313
898.445129,305
898.561462,322
898.677795,318
898.794312,317
898.910645,311
899.026978,328
899.143433,311
899.259766,318
899.37616,323
899.492493,297
899.608765,321
899.725159,302
899.841553,317
899.957947,321
900.07428,322
900.190552,309
900.306946,299
900.423157,315
900.53949,317
900.655884,313
900.772156,325
900.888489,322
901.004822,321
901.121033,313
901.237366,318
901.353699,323
901.46991,321
901.586304,309
901.702515,322
901.818787,317
901.93512,303
902.051331,319
902.167603,314
902.283875,303
902.400085,320
902.516418,314
902.632629,318
902.74884,312
902.865112,325
902.981384,311
903.097595,308
903.213867,307
903.330017,318
903.446289,318
903.5625,334
903.67865,313
903.794922,312
903.911072,319
904.027344,317
904.143494,306
904.259705,317
904.375916,315
904.492065,317
904.608215,301
904.724426,311
904.840576,314
904.956726,307
905.072876,329
905.189087,323
905.305176,308
905.421387,330
905.537537,312
905.653687,313
905.769775,311
905.885925,312
906.002014,311
906.118164,311
906.234314,322
906.350403,320
906.466492,309
906.582642,323
906.69873,307
906.814758,318
906.930908,311
907.046936,316
907.163086,316
907.279175,325
907.395264,323
907.511353,329
907.62738,315
907.743408,315
907.859497,315
907.975525,319
908.091553,321
908.207703,316
908.32373,310
908.439758,318
908.555786,311
908.671814,327
908.787842,318
908.90387,321
909.019775,313
909.135864,315
909.251892,318
909.367859,314
909.483826,321
909.599854,313
909.715881,315
909.831848,317
909.947815,326
910.063782,308
910.179749,308
910.295776,318
910.411743,310
910.527649,311
910.643616,316
910.759583,320
910.875488,317
910.991455,315
911.107361,312
911.223267,328
911.339294,312
911.4552,315
911.571106,312
911.687073,321
911.802979,313
911.918823,323
912.034729,318
912.150635,307
912.266602,322
912.382446,316
912.498352,318
912.614197,330
912.730103,314
912.846008,315
792.44574,326
792.56488,342
792.68396,415
792.80304,388
792.92218,337
793.041199,325
793.160339,325
793.279419,327
793.398499,333
793.517578,327
793.636658,326
793.755737,331
793.874817,343
793.993896,339
794.112976,333
794.232056,319
794.351074,339
794.470215,321
794.589233,328
794.708313,314
794.827393,344
794.946411,341
795.065552,337
795.18457,336
795.303589,323
795.422668,343
795.541687,341
795.660767,339
795.779846,332
795.898865,313
796.017883,336
796.136963,328
796.255981,336
796.375061,332
796.49408,340
796.613037,333
796.732117,336
796.851135,327
796.970154,330
797.089233,331
797.208191,343
797.327271,333
797.446228,320
797.565186,334
797.684265,339
797.803223,317
797.922241,338
798.04126,317
798.160278,336
798.279297,326
798.398315,333
798.517273,350
798.636292,328
798.75531,330
798.874268,324
798.993286,337
799.112244,346
799.231323,319
799.350281,321
799.469238,321
799.588257,331
799.707153,321
799.826111,327
799.945129,338
800.064087,322
800.183044,326
800.302063,322
800.421021,337
800.539978,317
800.658936,328
800.777893,333
800.896912,332
801.015747,325
801.134705,332
801.253723,341
801.37262,339
801.491638,322
801.610535,325
801.729492,338
801.84845,328
801.967407,328
802.086243,335
802.205261,335
802.324158,335
802.443115,329
802.562073,333
802.680969,329
802.799927,315
802.918762,327
803.037659,328
803.156677,344
803.275574,341
803.39447,340
803.513428,316
803.632263,341
803.751221,348
803.870117,340
803.989014,345
804.107971,342
804.226746,332
804.345642,336
804.4646,349
804.583496,332
804.702393,335
804.821228,332
804.940125,325
805.059021,328
805.177917,328
805.296814,327
805.415649,327
805.534546,332
805.653442,338
805.772278,339
805.891113,331
806.01001,345
806.128906,338
806.247742,311
806.366577,344
806.485413,332
806.604309,341
806.723145,315
806.84198,337
806.960876,324
807.079712,337
807.198486,330
807.317383,344
807.436218,334
807.554993,322
807.673889,320
807.792725,333
807.91156,336
808.030396,333
808.14917,328
808.268005,337
808.386841,328
808.505676,342
808.624451,318
808.743286,319
808.862122,330
808.980896,331
809.099731,329
809.218506,335
809.337341,334
809.456116,322
809.57489,340
809.693726,337
809.8125,337
809.931274,325
810.050049,325
810.168884,324
810.287659,345
810.406372,322
810.525269,326
810.643982,340
810.762756,332
810.881531,345
811.000305,338
811.11908,332
811.237854,339
811.356567,343
811.475403,342
811.594116,352
811.71283,329
811.831604,338
811.950378,341
812.069153,327
812.187927,344
812.30658,326
812.425415,343
812.544128,335
812.662781,328
812.781616,340
812.900269,349
813.019043,347
813.137756,328
813.256531,336
813.375244,333
813.493896,332
813.612671,340
813.731384,338
813.850037,337
813.96875,349
814.087524,332
814.206238,342
814.324951,347
814.443604,333
814.562256,346
814.68103,324
814.799683,330
814.918335,331
815.037109,331
815.155762,329
815.274475,318
815.393188,333
815.511841,325
815.630554,331
815.749146,340
815.867859,337
815.986572,332
816.105164,336
816.223877,330
816.342529,337
816.461182,329
816.579895,341
816.698486,322
816.817139,335
816.935791,324
817.054504,321
817.173096,326
817.291748,314
817.4104,337
817.529053,339
817.647644,323
817.766235,334
817.884949,337
818.00354,331
818.122192,331
818.240845,332
818.359436,329
818.478088,332
818.59668,333
818.715271,330
818.833923,312
818.952515,319
819.071106,307
819.189758,324
819.30835,317
819.426941,323
819.545532,324
819.664124,320
819.782715,335
819.901306,324
820.019897,325
820.138489,327
820.25708,329
820.375671,319
820.494202,315
820.612732,320
820.731384,307
820.849915,311
820.968506,334
821.087097,321
821.205627,327
821.324158,312
821.442749,325
821.561279,317
821.679871,316
821.798401,324
821.916931,321
822.035461,316
822.154053,312
822.272583,321
822.391174,328
822.509583,314
822.628174,323
822.746704,321
822.865234,328
822.983765,317
823.102295,324
823.220825,327
823.339294,313
823.457825,314
823.576355,316
823.694824,332
823.813354,327
823.931885,304
824.050354,322
824.168884,324
824.287354,332
824.405823,322
824.524353,313
824.642822,320
824.761353,309
824.879822,309
824.998291,304
825.116699,324
825.235291,319
825.353699,331
825.472168,334
825.590637,319
825.709106,315
825.827576,320
825.946045,320
826.064453,318
826.182983,306
826.301392,316
826.4198,316
826.53833,312
826.656738,315
826.775208,313
826.893677,316
827.012024,321
827.130493,311
827.248962,312
827.36731,323
827.485779,315
827.604248,325
827.722595,313
827.841064,321
827.959412,325
828.077942,311
828.196289,314
828.314636,312
828.433105,319
828.551514,323
828.669861,333
828.78833,312
828.906677,313
829.025085,309
829.143433,308
829.261841,311
829.38031,321
829.498657,321
829.617004,314
829.735413,308
829.85376,329
829.972107,320
830.090515,323
830.208862,309
830.327209,323
830.445557,320
830.563904,318
830.682312,319
830.800659,315
830.919006,324
831.037354,323
831.155701,320
831.274048,318
831.392395,322
831.51062,317
831.629028,315
831.747314,313
831.865662,310
831.984009,315
832.102356,312
832.220642,312
832.338928,318
832.457275,327
832.575623,327
832.693909,307
832.812134,326
832.930481,309
833.048828,305
833.167114,321
833.2854,318
833.403687,328
833.521973,322
833.640259,326
833.758545,322
833.876831,315
833.995056,314
834.113281,331
834.231628,315
834.349915,320
834.468201,319
834.586426,327
834.704651,315
834.822998,313
834.941162,327
835.059448,318
835.177673,315
835.295959,317
835.414246,318
835.53241,324
835.650635,320
835.768921,325
835.887146,320
836.005371,324
836.123596,317
836.241821,303
836.360046,322
836.478271,330
836.596497,326
836.714722,316
836.832886,322
836.95105,322
837.069336,311
837.1875,329
837.305725,318
837.423889,314
837.542053,324
837.660339,319
837.778503,313
837.896667,316
838.014832,323
838.132996,319
838.25116,310
838.369385,323
838.487488,320
838.605713,309
838.723877,313
838.84198,316
838.960205,309
839.078308,326
839.196472,309
839.314636,321
839.4328,318
839.550964,313
839.669067,311
839.787231,309
839.905396,314
840.023499,313
840.141602,322
840.259766,318
840.377869,324
840.495972,300
840.614136,311
840.732239,308
840.850342,320
840.968445,320
841.086548,315
841.204651,332
841.322754,313
841.440918,318
841.55896,318
841.677002,317
841.795166,327
841.913208,320
842.031311,324
842.149353,326
842.267456,303
842.385498,330
842.503601,297
842.621643,319
842.739746,310
842.857788,324
842.97583,319
843.093933,321
843.211975,310
843.330017,313
843.44812,310
843.566101,316
843.684204,324
843.802246,316
843.920227,310
844.038269,324
844.156311,312
844.274292,329
844.392395,299
844.510376,316
844.628357,309
844.74646,316
844.864441,302
844.982422,313
845.100403,318
845.218384,307
845.336426,318
845.454468,321
845.572449,314
845.69043,316
845.808411,324
845.926453,316
846.044373,321
846.162354,315
846.280396,316
846.398315,311
846.516296,314
846.634216,315
846.752197,318
846.870178,315
846.988098,311
847.106079,337
847.22406,318
847.34198,320
847.4599,307
847.577881,330
847.695801,323
847.813782,312
847.931641,319
848.049561,313
848.167603,311
848.285461,316
848.403381,314
848.521362,320
848.639221,316
848.75708,314
848.875,314
848.99292,307
849.110901,307
849.22876,319
849.34668,316
849.464539,331
849.582458,317
849.700317,309
849.818176,317
849.936096,322
850.053955,315
850.171875,311
850.289673,310
850.407593,302
850.525452,321
850.643311,317
850.761169,306
850.878967,311
850.996887,317
851.114746,329
851.232544,325
851.350403,317
851.468262,333
851.58606,324
851.703979,306
851.821777,325
851.939636,317
852.057434,306
852.175232,297
852.293091,318
852.410889,316
852.528687,309
852.646545,316
852.764343,315
852.88208,316
852.999939,328
853.117676,316
853.235535,315
853.353271,307
853.471069,320
853.588928,317
853.706604,312
853.824402,323
853.9422,311
854.059998,318
854.177734,317
854.295532,314
854.413269,314
854.531006,307
854.648804,323
854.766541,314
854.884277,323
855.002014,324
855.119751,306
855.237549,323
855.355225,317
855.473022,304
855.590698,317
855.708435,315
855.826172,317
855.943848,311
856.061646,315
856.179321,322
856.296997,320
856.414795,323
856.53241,336
856.650085,313
856.767822,311
856.885559,318
857.003174,319
857.120911,314
857.238586,317
857.356201,315
857.473938,313
857.591614,325
857.709351,320
857.826965,305
857.944641,324
858.062317,317
858.179993,323
858.297668,298
858.415283,322
858.532959,319
858.650574,326
858.768188,318
858.885803,319
859.003479,320
859.121094,325
859.23877,321
859.356384,318
859.473999,318
859.591675,326
859.709229,315
859.826843,316
859.944458,303
860.062012,316
860.179626,312
860.297302,326
860.414856,316
860.532471,320
860.650024,317
860.767639,315
860.885193,315
861.002808,315
861.120361,319
861.237976,324
861.35553,300
861.473022,317
861.590698,311
861.708191,321
861.825745,310
861.943298,309
862.060852,307
862.178406,315
862.295959,328
862.413513,324
862.531006,304
862.64856,311
862.766113,318
862.883667,304
863.00116,313
863.118713,324
863.236206,307
863.353699,320
863.471252,306
863.588745,313
863.706177,315
863.82373,330
863.941162,310
864.058716,317
864.176208,315
864.29364,319
864.411194,320
864.528687,311
864.646118,311
864.763611,316
864.881042,312
864.998535,330
865.116028,316
865.233459,323
865.350891,317
865.468384,301
865.585754,310
865.703308,310
865.820679,311
865.938171,319
866.055542,313
866.173035,315
866.290466,311
866.407837,324
866.52533,310
866.6427,323
866.760071,314
866.877563,314
866.994934,317
867.112305,311
867.229736,308
867.347107,306
867.464539,317
867.58197,320
867.699341,320
867.81665,319
867.934082,302
868.051453,313
868.168823,321
868.286194,307
868.403564,310
868.520935,321
868.638306,311
868.755676,319
868.872986,326
868.990295,312
869.107727,317
869.225037,310
869.342346,321
869.459717,335
869.577026,301
869.694336,314
869.811707,302
869.929016,314
870.046326,316
870.163635,327
870.280945,324
870.398254,320
870.515564,306
870.632812,334
870.750183,320
870.867432,330
870.984741,315
871.102051,328
871.219299,316
871.336609,318
871.453918,310
871.571106,318
871.688416,320
871.805664,320
871.922852,314
872.040222,312
872.157471,315
872.274719,314
872.391968,311
872.509155,319
872.626465,323
872.743652,324
872.860962,328
872.978149,307
873.095337,317
873.212646,312
873.329834,328
873.44696,320
873.564209,331
873.681396,320
873.798645,316
873.915894,314
874.03302,321
874.150208,328
874.267456,320
874.384583,313
874.501831,320
874.618958,315
874.736145,314
874.853333,322
874.970459,318
875.087646,321
875.204834,329
875.32196,320
875.439148,318
875.556274,325
875.673401,309
875.790527,313
875.907715,323
876.024841,327
876.141968,314
876.259094,308
876.376282,312
876.493347,318
876.610474,313
876.7276,310
876.844727,314
876.961853,311
877.078918,305
877.195984,320
877.313171,306
877.430237,330
877.547302,322
877.664368,320
877.781433,311
877.898499,310
878.015625,297
878.13269,336
878.249695,312
878.366821,307
878.483887,315
878.600952,309
878.717957,306
878.834961,309
878.952087,305
879.069092,318
879.186157,308
879.303162,316
879.420227,316
879.537231,316
879.654236,325
879.77124,317
879.888306,308
880.005249,326
880.122314,315
880.239319,323
880.356323,326
880.473328,322
880.590271,311
880.707275,307
880.824341,318
880.941284,321
881.058228,330
881.175232,322
881.292236,316
881.40918,319
881.526123,319
881.643066,323
881.760071,313
881.877014,307
881.993958,312
882.11084,317
882.227783,311
882.344727,312
882.46167,308
882.578613,322
882.695618,320
882.812439,337
882.929382,325
883.046326,321
883.163208,317
883.280151,322
883.397034,317
883.513916,321
883.630798,318
883.747742,318
883.864563,322
883.981506,325
884.098389,320
884.21521,320
884.332153,315
884.448975,311
884.565796,316
884.682678,311
884.7995,323
884.916443,318
885.033264,312
885.150085,326
885.266968,307
885.383789,311
885.500671,304
885.617493,311
885.734314,309
885.851196,326
885.967896,309
886.084717,321
886.201599,316
886.318359,309
886.435181,311
886.552002,315
886.668762,315
886.785645,313
886.902344,300
887.019165,326
887.135925,299
887.252747,314
887.369446,315
887.486267,326
887.603027,317
887.719788,311
887.836548,311
887.953247,320
888.070068,314
888.186829,314
888.303528,323
888.420288,320
888.536987,316
888.653687,331
888.770447,304
888.887146,321
889.003967,312
889.120667,308
889.237305,322
889.354065,319
889.470703,322
889.587463,325
889.704163,314
889.820862,321
889.937561,325
890.054199,331
890.170837,321
890.287598,315
890.404236,312
890.520874,316
890.637634,302
890.754211,312
890.87085,318
890.987549,317
891.104187,325
891.220886,320
891.337463,311
891.454102,315
891.57074,302
891.687378,324
891.804077,294
891.920654,309
892.037231,316
892.15387,332
892.270447,321
892.387085,315
892.503723,320
892.6203,311
892.736877,307
892.853516,324
892.970032,304
893.08667,312
893.203186,314
893.319763,329
893.43634,309
893.552917,311
893.669556,323
893.786011,316
893.902588,319
894.019165,320
894.135681,306
894.252197,306
894.368835,317
894.485291,323
894.601868,316
894.718384,313
894.8349,317
894.951355,331
895.067932,317
895.184448,333
895.300964,305
895.417419,314
895.533936,311
895.650452,319
895.766907,314
895.883423,311
895.999878,310
896.116333,311
896.232849,323
896.349304,303
896.465759,322
896.582214,326
896.698669,307
896.815125,326
896.931641,328
897.048035,309
897.164551,317
897.280884,322
897.397339,323
897.513794,311
897.630249,314
897.746582,321
897.863098,312
897.979431,321
898.095886,313
898.212341,327
898.328674,318
898.445129,324
898.561462,338
898.677795,310
898.794312,319
898.910645,315
899.026978,317
899.143433,321
899.259766,314
899.37616,324
899.492493,331
899.608765,323
899.725159,315
899.841553,324
899.957947,320
900.07428,326
900.190552,323
900.306946,327
900.423157,314
900.53949,313
900.655884,310
900.772156,328
900.888489,312
901.004822,319
901.121033,320
901.237366,318
901.353699,314
901.46991,320
901.586304,322
901.702515,324
901.818787,339
901.93512,306
902.051331,303
902.167603,314
902.283875,307
902.400085,310
902.516418,314
902.632629,321
902.74884,319
902.865112,292
902.981384,317
903.097595,316
903.213867,315
903.330017,332
903.446289,313
903.5625,323
903.67865,318
903.794922,324
903.911072,323
904.027344,324
904.143494,305
904.259705,327
904.375916,312
904.492065,324
904.608215,323
904.724426,321
904.840576,319
904.956726,331
905.072876,317
905.189087,306
905.305176,322
905.421387,321
905.537537,313
905.653687,312
905.769775,318
905.885925,313
906.002014,304
906.118164,321
906.234314,298
906.350403,326
906.466492,330
906.582642,325
906.69873,316
906.814758,321
906.930908,314
907.046936,324
907.163086,296
907.279175,323
907.395264,319
907.511353,318
907.62738,311
907.743408,304
907.859497,309
907.975525,312
908.091553,312
908.207703,320
908.32373,314
908.439758,323
908.555786,292
908.671814,306
908.787842,311
908.90387,331
909.019775,309
909.135864,328
909.251892,314
909.367859,322
909.483826,331
909.599854,331
909.715881,313
909.831848,311
909.947815,311
910.063782,305
910.179749,327
910.295776,323
910.411743,309
910.527649,322
910.643616,321
910.759583,322
910.875488,309
910.991455,319
911.107361,317
911.223267,328
911.339294,315
911.4552,317
911.571106,305
911.687073,306
911.802979,322
911.918823,324
912.034729,311
912.150635,316
912.266602,307
912.382446,321
912.498352,309
912.614197,320
912.730103,307
912.846008,317
792.44574,318
792.56488,336
792.68396,401
792.80304,391
792.92218,331
793.041199,319
793.160339,330
793.279419,339
793.398499,323
793.517578,335
793.636658,314
793.755737,340
793.874817,352
793.993896,352
794.112976,346
794.232056,347
794.351074,323
794.470215,321
794.589233,329
794.708313,332
794.827393,339
794.946411,338
795.065552,347
795.18457,343
795.303589,332
795.422668,331
795.541687,336
795.660767,339
795.779846,327
795.898865,315
796.017883,333
796.136963,321
796.255981,330
796.375061,328
796.49408,336
796.613037,327
796.732117,332
796.851135,322
796.970154,325
797.089233,321
797.208191,328
797.327271,328
797.446228,326
797.565186,346
797.684265,327
797.803223,328
797.922241,331
798.04126,327
798.160278,340
798.279297,338
798.398315,333
798.517273,325
798.636292,331
798.75531,321
798.874268,332
798.993286,335
799.112244,325
799.231323,336
799.350281,319
799.469238,324
799.588257,338
799.707153,331
799.826111,328
799.945129,331
800.064087,325
800.183044,335
800.302063,330
800.421021,331
800.539978,327
800.658936,325
800.777893,320
800.896912,332
801.015747,336
801.134705,315
801.253723,335
801.37262,331
801.491638,326
801.610535,329
801.729492,345
801.84845,339
801.967407,337
802.086243,324
802.205261,340
802.324158,340
802.443115,336
802.562073,339
802.680969,331
802.799927,332
802.918762,319
803.037659,326
803.156677,329
803.275574,324
803.39447,339
803.513428,334
803.632263,338
803.751221,330
803.870117,330
803.989014,325
804.107971,320
804.226746,337
804.345642,322
804.4646,324
804.583496,327
804.702393,322
804.821228,321
804.940125,324
805.059021,352
805.177917,330
805.296814,331
805.415649,333
805.534546,336
805.653442,330
805.772278,331
805.891113,329
806.01001,327
806.128906,327
806.247742,329
806.366577,330
806.485413,338
806.604309,327
806.723145,325
806.84198,336
806.960876,339
807.079712,328
807.198486,336
807.317383,323
807.436218,316
807.554993,331
807.673889,328
807.792725,325
807.91156,331
808.030396,332
808.14917,337
808.268005,339
808.386841,328
808.505676,331
808.624451,331
808.743286,326
808.862122,333
808.980896,325
809.099731,339
809.218506,318
809.337341,344
809.456116,337
809.57489,335
809.693726,330
809.8125,327
809.931274,320
810.050049,337
810.168884,326
810.287659,331
810.406372,334
810.525269,339
810.643982,326
810.762756,332
810.881531,338
811.000305,320
811.11908,319
811.237854,325
811.356567,338
811.475403,328
811.594116,339
811.71283,333
811.831604,325
811.950378,313
812.069153,337
812.187927,338
812.30658,334
812.425415,323
812.544128,327
812.662781,338
812.781616,319
812.900269,313
813.019043,320
813.137756,350
813.256531,326
813.375244,333
813.493896,326
813.612671,330
813.731384,332
813.850037,330
813.96875,335
814.087524,336
814.206238,326
814.324951,332
814.443604,328
814.562256,347
814.68103,331
814.799683,336
814.918335,328
815.037109,326
815.155762,327
815.274475,337
815.393188,335
815.511841,332
815.630554,328
815.749146,327
815.867859,325
815.986572,338
816.105164,328
816.223877,349
816.342529,327
816.461182,327
816.579895,335
816.698486,343
816.817139,335
816.935791,324
817.054504,322
817.173096,338
817.291748,328
817.4104,320
817.529053,314
817.647644,328
817.766235,335
817.884949,338
818.00354,329
818.122192,314
818.240845,335
818.359436,315
818.478088,331
818.59668,336
818.715271,337
818.833923,326
818.952515,326
819.071106,333
819.189758,324
819.30835,320
819.426941,320
819.545532,335
819.664124,337
819.782715,322
819.901306,323
820.019897,322
820.138489,316
820.25708,323
820.375671,326
820.494202,326
820.612732,319
820.731384,315
820.849915,316
820.968506,325
821.087097,322
821.205627,312
821.324158,327
821.442749,325
821.561279,320
821.679871,325
821.798401,312
821.916931,318
822.035461,335
822.154053,324
822.272583,319
822.391174,318
822.509583,325
822.628174,321
822.746704,318
822.865234,332
822.983765,319
823.102295,318
823.220825,318
823.339294,328
823.457825,310
823.576355,332
823.694824,319
823.813354,325
823.931885,318
824.050354,310
824.168884,330
824.287354,326
824.405823,327
824.524353,327
824.642822,323
824.761353,309
824.879822,326
824.998291,332
825.116699,318
825.235291,313
825.353699,317
825.472168,306
825.590637,325
825.709106,331
825.827576,308
825.946045,319
826.064453,327
826.182983,321
826.301392,318
826.4198,312
826.53833,320
826.656738,311
826.775208,334
826.893677,308
827.012024,311
827.130493,324
827.248962,313
827.36731,322
827.485779,319
827.604248,325
827.722595,316
827.841064,313
827.959412,322
828.077942,313
828.196289,318
828.314636,312
828.433105,317
828.551514,308
828.669861,326
828.78833,310
828.906677,316
829.025085,308
829.143433,319
829.261841,309
829.38031,322
829.498657,319
829.617004,313
829.735413,326
829.85376,327
829.972107,312
830.090515,318
830.208862,310
830.327209,332
830.445557,323
830.563904,309
830.682312,304
830.800659,307
830.919006,306
831.037354,319
831.155701,312
831.274048,323
831.392395,312
831.51062,319
831.629028,317
831.747314,314
831.865662,311
831.984009,303
832.102356,317
832.220642,328
832.338928,312
832.457275,318
832.575623,317
832.693909,318
832.812134,330
832.930481,316
833.048828,322
833.167114,309
833.2854,307
833.403687,321
833.521973,319
833.640259,316
833.758545,314
833.876831,324
833.995056,312
834.113281,327
834.231628,319
834.349915,330
834.468201,316
834.586426,317
834.704651,312
834.822998,328
834.941162,322
835.059448,313
835.177673,318
835.295959,301
835.414246,321
835.53241,308
835.650635,321
835.768921,313
835.887146,311
836.005371,325
836.123596,300
836.241821,338
836.360046,310
836.478271,302
836.596497,320
836.714722,309
836.832886,316
836.95105,321
837.069336,309
837.1875,315
837.305725,315
837.423889,334
837.542053,318
837.660339,329
837.778503,310
837.896667,325
838.014832,324
838.132996,321
838.25116,319
838.369385,317
838.487488,324
838.605713,312
838.723877,331
838.84198,332
838.960205,325
839.078308,307
839.196472,328
839.314636,319
839.4328,317
839.550964,319
839.669067,314
839.787231,317
839.905396,323
840.023499,316
840.141602,320
840.259766,317
840.377869,311
840.495972,322
840.614136,303
840.732239,315
840.850342,311
840.968445,324
841.086548,311
841.204651,326
841.322754,319
841.440918,314
841.55896,324
841.677002,324
841.795166,309
841.913208,328
842.031311,310
842.149353,329
842.267456,317
842.385498,314
842.503601,326
842.621643,311
842.739746,322
842.857788,316
842.97583,304
843.093933,316
843.211975,316
843.330017,314
843.44812,308
843.566101,323
843.684204,296
843.802246,322
843.920227,313
844.038269,320
844.156311,304
844.274292,323
844.392395,314
844.510376,330
844.628357,302
844.74646,322
844.864441,326
844.982422,318
845.100403,318
845.218384,319
845.336426,319
845.454468,316
845.572449,316
845.69043,313
845.808411,308
845.926453,307
846.044373,326
846.162354,308
846.280396,319
846.398315,311
846.516296,304
846.634216,329
846.752197,329
846.870178,310
846.988098,310
847.106079,316
847.22406,312
847.34198,320
847.4599,321
847.577881,313
847.695801,309
847.813782,329
847.931641,312
848.049561,330
848.167603,316
848.285461,321
848.403381,306
848.521362,309
848.639221,308
848.75708,316
848.875,318
848.99292,317
849.110901,310
849.22876,315
849.34668,316
849.464539,318
849.582458,324
849.700317,314
849.818176,308
849.936096,322
850.053955,325
850.171875,323
850.289673,315
850.407593,309
850.525452,330
850.643311,321
850.761169,296
850.878967,314
850.996887,320
851.114746,298
851.232544,319
851.350403,312
851.468262,311
851.58606,316
851.703979,324
851.821777,309
851.939636,314
852.057434,314
852.175232,303
852.293091,319
852.410889,311
852.528687,312
852.646545,308
852.764343,313
852.88208,310
852.999939,315
853.117676,318
853.235535,322
853.353271,312
853.471069,320
853.588928,305
853.706604,321
853.824402,312
853.9422,320
854.059998,320
854.177734,325
854.295532,320
854.413269,316
854.531006,315
854.648804,322
854.766541,320
854.884277,318
855.002014,295
855.119751,326
855.237549,309
855.355225,306
855.473022,301
855.590698,315
855.708435,321
855.826172,322
855.943848,316
856.061646,316
856.179321,321
856.296997,323
856.414795,311
856.53241,329
856.650085,311
856.767822,311
856.885559,313
857.003174,318
857.120911,309
857.238586,310
857.356201,317
857.473938,324
857.591614,315
857.709351,305
857.826965,311
857.944641,314
858.062317,315
858.179993,333
858.297668,320
858.415283,315
858.532959,306
858.650574,315
858.768188,320
858.885803,326
859.003479,313
859.121094,314
859.23877,325
859.356384,313
859.473999,322
859.591675,325
859.709229,304
859.826843,312
859.944458,301
860.062012,314
860.179626,312
860.297302,317
860.414856,312
860.532471,320
860.650024,304
860.767639,311
860.885193,306
861.002808,310
861.120361,323
861.237976,321
861.35553,309
861.473022,307
861.590698,315
861.708191,321
861.825745,318
861.943298,312
862.060852,322
862.178406,313
862.295959,318
862.413513,323
862.531006,312
862.64856,323
862.766113,320
862.883667,309
863.00116,300
863.118713,303
863.236206,320
863.353699,314
863.471252,327
863.588745,317
863.706177,313
863.82373,312
863.941162,311
864.058716,322
864.176208,304
864.29364,309
864.411194,302
864.528687,320
864.646118,314
864.763611,313
864.881042,317
864.998535,317
865.116028,315
865.233459,311
865.350891,313
865.468384,310
865.585754,317
865.703308,320
865.820679,317
865.938171,307
866.055542,321
866.173035,318
866.290466,323
866.407837,312
866.52533,312
866.6427,313
866.760071,320
866.877563,321
866.994934,318
867.112305,315
867.229736,326
867.347107,322
867.464539,313
867.58197,313
867.699341,324
867.81665,317
867.934082,307
868.051453,309
868.168823,322
868.286194,326
868.403564,308
868.520935,316
868.638306,327
868.755676,310
868.872986,309
868.990295,319
869.107727,317
869.225037,327
869.342346,317
869.459717,316
869.577026,321
869.694336,323
869.811707,319
869.929016,319
870.046326,306
870.163635,311
870.280945,323
870.398254,313
870.515564,313
870.632812,308
870.750183,331
870.867432,311
870.984741,304
871.102051,321
871.219299,314
871.336609,321
871.453918,310
871.571106,323
871.688416,313
871.805664,310
871.922852,314
872.040222,318
872.157471,326
872.274719,327
872.391968,300
872.509155,316
872.626465,313
872.743652,313
872.860962,312
872.978149,314
873.095337,315
873.212646,305
873.329834,319
873.44696,321
873.564209,317
873.681396,320
873.798645,307
873.915894,328
874.03302,306
874.150208,318
874.267456,307
874.384583,313
874.501831,317
874.618958,315
874.736145,320
874.853333,319
874.970459,306
875.087646,322
875.204834,305
875.32196,314
875.439148,316
875.556274,320
875.673401,324
875.790527,320
875.907715,314
876.024841,323
876.141968,319
876.259094,316
876.376282,316
876.493347,309
876.610474,299
876.7276,308
876.844727,313
876.961853,310
877.078918,315
877.195984,311
877.313171,308
877.430237,316
877.547302,317
877.664368,298
877.781433,310
877.898499,318
878.015625,296
878.13269,325
878.249695,319
878.366821,322
878.483887,321
878.600952,323
878.717957,314
878.834961,312
878.952087,322
879.069092,326
879.186157,323
879.303162,318
879.420227,306
879.537231,318
879.654236,315
879.77124,312
879.888306,317
880.005249,321
880.122314,319
880.239319,319
880.356323,332
880.473328,314
880.590271,316
880.707275,318
880.824341,305
880.941284,326
881.058228,320
881.175232,308
881.292236,306
881.40918,315
881.526123,310
881.643066,302
881.760071,323
881.877014,322
881.993958,313
882.11084,316
882.227783,321
882.344727,314
882.46167,317
882.578613,318
882.695618,312
882.812439,326
882.929382,315
883.046326,330
883.163208,318
883.280151,330
883.397034,326
883.513916,327
883.630798,299
883.747742,311
883.864563,331
883.981506,321
884.098389,309
884.21521,315
884.332153,306
884.448975,312
884.565796,329
884.682678,314
884.7995,316
884.916443,307
885.033264,311
885.150085,314
885.266968,310
885.383789,319
885.500671,319
885.617493,318
885.734314,315
885.851196,320
885.967896,310
886.084717,309
886.201599,324
886.318359,318
886.435181,303
886.552002,317
886.668762,304
886.785645,306
886.902344,312
887.019165,325
887.135925,322
887.252747,313
887.369446,320
887.486267,325
887.603027,317
887.719788,311
887.836548,301
887.953247,320
888.070068,324
888.186829,327
888.303528,304
888.420288,306
888.536987,325
888.653687,322
888.770447,316
888.887146,316
889.003967,311
889.120667,316
889.237305,321
889.354065,319
889.470703,318
889.587463,333
889.704163,328
889.820862,325
889.937561,308
890.054199,322
890.170837,325
890.287598,314
890.404236,307
890.520874,314
890.637634,303
890.754211,300
890.87085,315
890.987549,330
891.104187,322
891.220886,314
891.337463,303
891.454102,307
891.57074,311
891.687378,319
891.804077,317
891.920654,315
892.037231,315
892.15387,315
892.270447,307
892.387085,308
892.503723,326
892.6203,308
892.736877,310
892.853516,314
892.970032,332
893.08667,330
893.203186,320
893.319763,328
893.43634,309
893.552917,325
893.669556,322
893.786011,314
893.902588,303
894.019165,322
894.135681,307
894.252197,320
894.368835,298
894.485291,318
894.601868,313
894.718384,315
894.8349,313
894.951355,312
895.067932,314
895.184448,310
895.300964,319
895.417419,326
895.533936,327
895.650452,308
895.766907,302
895.883423,325
895.999878,317
896.116333,334
896.232849,308
896.349304,317
896.465759,316
896.582214,328
896.698669,308
896.815125,323
896.931641,316
897.048035,307
897.164551,310
897.280884,326
897.397339,316
897.513794,313
897.630249,319
897.746582,315
897.863098,325
897.979431,309
898.095886,321
898.212341,316
898.328674,325
898.445129,320
898.561462,323
898.677795,314
898.794312,306
898.910645,322
899.026978,323
899.143433,316
899.259766,316
899.37616,312
899.492493,318
899.608765,324
899.725159,308
899.841553,300
899.957947,325
900.07428,315
900.190552,311
900.306946,302
900.423157,307
900.53949,316
900.655884,319
900.772156,310
900.888489,322
901.004822,313
901.121033,322
901.237366,310
901.353699,320
901.46991,324
901.586304,314
901.702515,327
901.818787,323
901.93512,315
902.051331,317
902.167603,320
902.283875,320
902.400085,307
902.516418,303
902.632629,320
902.74884,326
902.865112,317
902.981384,327
903.097595,324
903.213867,325
903.330017,316
903.446289,316
903.5625,315
903.67865,310
903.794922,325
903.911072,315
904.027344,324
904.143494,300
904.259705,314
904.375916,329
904.492065,315
904.608215,308
904.724426,310
904.840576,321
904.956726,323
905.072876,305
905.189087,323
905.305176,309
905.421387,321
905.537537,312
905.653687,322
905.769775,306
905.885925,324
906.002014,325
906.118164,313
906.234314,312
906.350403,318
906.466492,316
906.582642,325
906.69873,329
906.814758,318
906.930908,321
907.046936,300
907.163086,325
907.279175,329
907.395264,323
907.511353,325
907.62738,311
907.743408,321
907.859497,309
907.975525,317
908.091553,317
908.207703,317
908.32373,319
908.439758,315
908.555786,304
908.671814,315
908.787842,313
908.90387,319
909.019775,318
909.135864,322
909.251892,316
909.367859,310
909.483826,324
909.599854,310
909.715881,312
909.831848,305
909.947815,319
910.063782,317
910.179749,308
910.295776,333
910.411743,323
910.527649,301
910.643616,316
910.759583,320
910.875488,307
910.991455,334
911.107361,310
911.223267,312
911.339294,315
911.4552,319
911.571106,312
911.687073,302
911.802979,317
911.918823,319
912.034729,312
912.150635,322
912.266602,311
912.382446,316
912.498352,313
912.614197,325
912.730103,323
912.846008,329
