792.44574,327
792.56488,377
792.68396,417
792.80304,431
792.92218,361
793.041199,343
793.160339,350
793.279419,366
793.398499,353
793.517578,332
793.636658,350
793.755737,349
793.874817,369
793.993896,369
794.112976,342
794.232056,336
794.351074,354
794.470215,351
794.589233,351
794.708313,336
794.827393,340
794.946411,345
795.065552,343
795.18457,339
795.303589,358
795.422668,346
795.541687,341
795.660767,346
795.779846,346
795.898865,347
796.017883,331
796.136963,339
796.255981,330
796.375061,338
796.49408,341
796.613037,329
796.732117,337
796.851135,340
796.970154,343
797.089233,329
797.208191,338
797.327271,334
797.446228,341
797.565186,345
797.684265,327
797.803223,335
797.922241,331
798.04126,336
798.160278,345
798.279297,326
798.398315,328
798.517273,339
798.636292,328
798.75531,322
798.874268,338
798.993286,341
799.112244,332
799.231323,329
799.350281,342
799.469238,332
799.588257,335
799.707153,325
799.826111,330
799.945129,329
800.064087,336
800.183044,336
800.302063,335
800.421021,336
800.539978,328
800.658936,327
800.777893,328
800.896912,330
801.015747,333
801.134705,330
801.253723,322
801.37262,329
801.491638,333
801.610535,334
801.729492,342
801.84845,330
801.967407,337
802.086243,330
802.205261,322
802.324158,338
802.443115,343
802.562073,329
802.680969,314
802.799927,323
802.918762,314
803.037659,336
803.156677,331
803.275574,321
803.39447,325
803.513428,338
803.632263,340
803.751221,336
803.870117,325
803.989014,310
804.107971,325
804.226746,329
804.345642,320
804.4646,345
804.583496,324
804.702393,347
804.821228,316
804.940125,319
805.059021,319
805.177917,331
805.296814,343
805.415649,325
805.534546,333
805.653442,326
805.772278,338
805.891113,318
806.01001,331
806.128906,330
806.247742,314
806.366577,324
806.485413,327
806.604309,318
806.723145,329
806.84198,336
806.960876,327
807.079712,319
807.198486,323
807.317383,313
807.436218,314
807.554993,318
807.673889,326
807.792725,326
807.91156,318
808.030396,334
808.14917,317
808.268005,328
808.386841,331
808.505676,320
808.624451,332
808.743286,318
808.862122,331
808.980896,333
809.099731,336
809.218506,317
809.337341,334
809.456116,338
809.57489,333
809.693726,325
809.8125,323
809.931274,332
810.050049,307
810.168884,330
810.287659,331
810.406372,329
810.525269,331
810.643982,311
810.762756,333
810.881531,324
811.000305,330
811.11908,323
811.237854,334
811.356567,323
811.475403,313
811.594116,340
811.71283,322
811.831604,329
811.950378,325
812.069153,332
812.187927,319
812.30658,323
812.425415,308
812.544128,319
812.662781,314
812.781616,329
812.900269,334
813.019043,319
813.137756,324
813.256531,323
813.375244,336
813.493896,325
813.612671,329
813.731384,323
813.850037,324
813.96875,321
814.087524,325
814.206238,318
814.324951,326
814.443604,341
814.562256,329
814.68103,327
814.799683,327
814.918335,326
815.037109,330
815.155762,327
815.274475,326
815.393188,323
815.511841,336
815.630554,338
815.749146,329
815.867859,326
815.986572,331
816.105164,328
816.223877,322
816.342529,322
816.461182,326
816.579895,327
816.698486,327
816.817139,329
816.935791,322
817.054504,315
817.173096,323
817.291748,333
817.4104,328
817.529053,318
817.647644,329
817.766235,331
817.884949,323
818.00354,328
818.122192,319
818.240845,323
818.359436,330
818.478088,331
818.59668,316
818.715271,328
818.833923,325
818.952515,313
819.071106,320
819.189758,328
819.30835,312
819.426941,336
819.545532,319
819.664124,325
819.782715,316
819.901306,329
820.019897,315
820.138489,318
820.25708,324
820.375671,317
820.494202,326
820.612732,314
820.731384,317
820.849915,330
820.968506,308
821.087097,314
821.205627,318
821.324158,322
821.442749,314
821.561279,325
821.679871,314
821.798401,320
821.916931,313
822.035461,310
822.154053,315
822.272583,322
822.391174,326
822.509583,334
822.628174,310
822.746704,325
822.865234,324
822.983765,313
823.102295,319
823.220825,319
823.339294,326
823.457825,326
823.576355,316
823.694824,321
823.813354,320
823.931885,329
824.050354,315
824.168884,310
824.287354,319
824.405823,309
824.524353,332
824.642822,323
824.761353,320
824.879822,320
824.998291,312
825.116699,340
825.235291,316
825.353699,324
825.472168,317
825.590637,311
825.709106,338
825.827576,329
825.946045,315
826.064453,321
826.182983,323
826.301392,313
826.4198,323
826.53833,327
826.656738,309
826.775208,313
826.893677,332
827.012024,327
827.130493,316
827.248962,319
827.36731,307
827.485779,331
827.604248,318
827.722595,320
827.841064,319
827.959412,316
828.077942,329
828.196289,327
828.314636,325
828.433105,325
828.551514,317
828.669861,330
828.78833,306
828.906677,322
829.025085,308
829.143433,322
829.261841,321
829.38031,303
829.498657,327
829.617004,315
829.735413,308
829.85376,312
829.972107,316
830.090515,321
830.208862,324
830.327209,332
830.445557,327
830.563904,320
830.682312,317
830.800659,314
830.919006,319
831.037354,320
831.155701,320
831.274048,327
831.392395,326
831.51062,316
831.629028,308
831.747314,315
831.865662,322
831.984009,322
832.102356,320
832.220642,315
832.338928,308
832.457275,327
832.575623,322
832.693909,307
832.812134,308
832.930481,318
833.048828,329
833.167114,315
833.2854,327
833.403687,327
833.521973,322
833.640259,318
833.758545,315
833.876831,303
833.995056,322
834.113281,320
834.231628,323
834.349915,323
834.468201,310
834.586426,319
834.704651,324
834.822998,306
834.941162,320
835.059448,325
835.177673,320
835.295959,328
835.414246,324
835.53241,318
835.650635,317
835.768921,323
835.887146,306
836.005371,314
836.123596,320
836.241821,313
836.360046,326
836.478271,311
836.596497,329
836.714722,307
836.832886,317
836.95105,313
837.069336,314
837.1875,319
837.305725,298
837.423889,316
837.542053,304
837.660339,319
837.778503,325
837.896667,322
838.014832,311
838.132996,308
838.25116,322
838.369385,322
838.487488,286
838.605713,330
838.723877,317
838.84198,324
838.960205,326
839.078308,308
839.196472,318
839.314636,318
839.4328,312
839.550964,320
839.669067,315
839.787231,325
839.905396,308
840.023499,320
840.141602,309
840.259766,328
840.377869,310
840.495972,324
840.614136,320
840.732239,324
840.850342,318
840.968445,327
841.086548,336
841.204651,333
841.322754,307
841.440918,318
841.55896,327
841.677002,325
841.795166,311
841.913208,327
842.031311,331
842.149353,316
842.267456,322
842.385498,322
842.503601,321
842.621643,336
842.739746,331
842.857788,329
842.97583,319
843.093933,314
843.211975,334
843.330017,310
843.44812,305
843.566101,320
843.684204,326
843.802246,313
843.920227,318
844.038269,323
844.156311,328
844.274292,329
844.392395,315
844.510376,314
844.628357,332
844.74646,326
844.864441,317
844.982422,329
845.100403,313
845.218384,322
845.336426,327
845.454468,312
845.572449,310
845.69043,330
845.808411,313
845.926453,319
846.044373,317
846.162354,327
846.280396,314
846.398315,313
846.516296,333
846.634216,325
846.752197,325
846.870178,316
846.988098,312
847.106079,328
847.22406,325
847.34198,321
847.4599,319
847.577881,328
847.695801,329
847.813782,320
847.931641,323
848.049561,330
848.167603,314
848.285461,329
848.403381,324
848.521362,326
848.639221,313
848.75708,323
848.875,329
848.99292,333
849.110901,321
849.22876,328
849.34668,324
849.464539,307
849.582458,327
849.700317,333
849.818176,326
849.936096,324
850.053955,314
850.171875,317
850.289673,321
850.407593,319
850.525452,316
850.643311,332
850.761169,319
850.878967,320
850.996887,318
851.114746,311
851.232544,314
851.350403,325
851.468262,332
851.58606,328
851.703979,309
851.821777,321
851.939636,321
852.057434,334
852.175232,305
852.293091,327
852.410889,314
852.528687,319
852.646545,310
852.764343,317
852.88208,318
852.999939,318
853.117676,316
853.235535,322
853.353271,316
853.471069,318
853.588928,320
853.706604,314
853.824402,318
853.9422,326
854.059998,311
854.177734,315
854.295532,334
854.413269,308
854.531006,316
854.648804,321
854.766541,314
854.884277,315
855.002014,308
855.119751,326
855.237549,310
855.355225,323
855.473022,323
855.590698,327
855.708435,316
855.826172,316
855.943848,331
856.061646,323
856.179321,316
856.296997,321
856.414795,334
856.53241,325
856.650085,307
856.767822,310
856.885559,332
857.003174,316
857.120911,329
857.238586,334
857.356201,321
857.473938,316
857.591614,327
857.709351,327
857.826965,321
857.944641,314
858.062317,319
858.179993,316
858.297668,323
858.415283,320
858.532959,306
858.650574,319
858.768188,320
858.885803,315
859.003479,316
859.121094,323
859.23877,314
859.356384,312
859.473999,312
859.591675,313
859.709229,326
859.826843,341
859.944458,320
860.062012,319
860.179626,307
860.297302,318
860.414856,312
860.532471,316
860.650024,315
860.767639,317
860.885193,333
861.002808,313
861.120361,301
861.237976,309
861.35553,325
861.473022,309
861.590698,313
861.708191,315
861.825745,322
861.943298,322
862.060852,310
862.178406,331
862.295959,328
862.413513,330
862.531006,319
862.64856,313
862.766113,320
862.883667,320
863.00116,327
863.118713,320
863.236206,304
863.353699,318
863.471252,322
863.588745,320
863.706177,322
863.82373,326
863.941162,315
864.058716,304
864.176208,313
864.29364,318
864.411194,314
864.528687,315
864.646118,316
864.763611,318
864.881042,316
864.998535,329
865.116028,310
865.233459,328
865.350891,321
865.468384,324
865.585754,319
865.703308,318
865.820679,314
865.938171,320
866.055542,317
866.173035,320
866.290466,306
866.407837,308
866.52533,315
866.6427,329
866.760071,325
866.877563,332
866.994934,324
867.112305,316
867.229736,321
867.347107,327
867.464539,334
867.58197,329
867.699341,306
867.81665,313
867.934082,320
868.051453,321
868.168823,313
868.286194,316
868.403564,309
868.520935,325
868.638306,314
868.755676,327
868.872986,317
868.990295,328
869.107727,318
869.225037,330
869.342346,322
869.459717,315
869.577026,328
869.694336,328
869.811707,320
869.929016,314
870.046326,328
870.163635,312
870.280945,324
870.398254,315
870.515564,320
870.632812,327
870.750183,331
870.867432,332
870.984741,334
871.102051,318
871.219299,317
871.336609,334
871.453918,323
871.571106,317
871.688416,335
871.805664,321
871.922852,327
872.040222,323
872.157471,319
872.274719,320
872.391968,328
872.509155,321
872.626465,324
872.743652,315
872.860962,335
872.978149,330
873.095337,322
873.212646,319
873.329834,326
873.44696,333
873.564209,320
873.681396,327
873.798645,322
873.915894,323
874.03302,324
874.150208,313
874.267456,328
874.384583,330
874.501831,337
874.618958,326
874.736145,321
874.853333,334
874.970459,313
875.087646,317
875.204834,319
875.32196,312
875.439148,322
875.556274,317
875.673401,313
875.790527,322
875.907715,324
876.024841,319
876.141968,316
876.259094,304
876.376282,329
876.493347,321
876.610474,319
876.7276,329
876.844727,325
876.961853,322
877.078918,315
877.195984,327
877.313171,318
877.430237,314
877.547302,330
877.664368,304
877.781433,326
877.898499,322
878.015625,309
878.13269,319
878.249695,304
878.366821,313
878.483887,310
878.600952,315
878.717957,316
878.834961,325
878.952087,321
879.069092,325
879.186157,304
879.303162,316
879.420227,321
879.537231,308
879.654236,324
879.77124,311
879.888306,313
880.005249,316
880.122314,321
880.239319,310
880.356323,307
880.473328,316
880.590271,305
880.707275,313
880.824341,320
880.941284,320
881.058228,317
881.175232,322
881.292236,316
881.40918,319
881.526123,300
881.643066,327
881.760071,321
881.877014,331
881.993958,316
882.11084,318
882.227783,302
882.344727,324
882.46167,310
882.578613,322
882.695618,312
882.812439,316
882.929382,315
883.046326,318
883.163208,308
883.280151,318
883.397034,315
883.513916,326
883.630798,323
883.747742,321
883.864563,319
883.981506,329
884.098389,309
884.21521,311
884.332153,319
884.448975,323
884.565796,316
884.682678,339
884.7995,330
884.916443,326
885.033264,333
885.150085,335
885.266968,331
885.383789,335
885.500671,335
885.617493,331
885.734314,333
885.851196,332
885.967896,327
886.084717,312
886.201599,330
886.318359,346
886.435181,322
886.552002,323
886.668762,331
886.785645,320
886.902344,333
887.019165,317
887.135925,334
887.252747,337
887.369446,307
887.486267,325
887.603027,315
887.719788,319
887.836548,323
887.953247,333
888.070068,314
888.186829,337
888.303528,323
888.420288,318
888.536987,326
888.653687,322
888.770447,309
888.887146,321
889.003967,337
889.120667,321
889.237305,329
889.354065,321
889.470703,324
889.587463,321
889.704163,316
889.820862,319
889.937561,313
890.054199,315
890.170837,313
890.287598,319
890.404236,324
890.520874,310
890.637634,302
890.754211,323
890.87085,311
890.987549,328
891.104187,323
891.220886,320
891.337463,320
891.454102,308
891.57074,307
891.687378,325
891.804077,318
891.920654,321
892.037231,323
892.15387,319
892.270447,311
892.387085,330
892.503723,321
892.6203,321
892.736877,315
892.853516,323
892.970032,308
893.08667,321
893.203186,312
893.319763,327
893.43634,304
893.552917,325
893.669556,327
893.786011,320
893.902588,333
894.019165,313
894.135681,321
894.252197,329
894.368835,326
894.485291,319
894.601868,301
894.718384,341
894.8349,319
894.951355,316
895.067932,315
895.184448,315
895.300964,317
895.417419,325
895.533936,305
895.650452,311
895.766907,296
895.883423,323
895.999878,307
896.116333,314
896.232849,320
896.349304,316
896.465759,318
896.582214,323
896.698669,316
896.815125,315
896.931641,302
897.048035,323
897.164551,314
897.280884,307
897.397339,312
897.513794,313
897.630249,318
897.746582,309
897.863098,324
897.979431,316
898.095886,319
898.212341,319
898.328674,312
898.445129,321
898.561462,321
898.677795,304
898.794312,323
898.910645,323
899.026978,312
899.143433,326
899.259766,310
899.37616,320
899.492493,303
899.608765,310
899.725159,322
899.841553,314
899.957947,316
900.07428,319
900.190552,314
900.306946,307
900.423157,318
900.53949,319
900.655884,321
900.772156,308
900.888489,310
901.004822,327
901.121033,316
901.237366,319
901.353699,321
901.46991,330
901.586304,318
901.702515,327
901.818787,323
901.93512,311
902.051331,310
902.167603,325
902.283875,309
902.400085,328
902.516418,317
902.632629,316
902.74884,305
902.865112,315
902.981384,319
903.097595,327
903.213867,314
903.330017,315
903.446289,330
903.5625,321
903.67865,316
903.794922,327
903.911072,325
904.027344,322
904.143494,323
904.259705,320
904.375916,333
904.492065,315
904.608215,315
904.724426,326
904.840576,308
904.956726,330
905.072876,323
905.189087,320
905.305176,320
905.421387,308
905.537537,327
905.653687,313
905.769775,309
905.885925,336
906.002014,320
906.118164,317
906.234314,314
906.350403,323
906.466492,321
906.582642,330
906.69873,323
906.814758,316
906.930908,315
907.046936,299
907.163086,317
907.279175,305
907.395264,321
907.511353,309
907.62738,310
907.743408,315
907.859497,317
907.975525,323
908.091553,308
908.207703,317
908.32373,329
908.439758,316
908.555786,301
908.671814,320
908.787842,311
908.90387,309
909.019775,325
909.135864,328
909.251892,310
909.367859,319
909.483826,309
909.599854,317
909.715881,318
909.831848,317
909.947815,315
910.063782,312
910.179749,299
910.295776,305
910.411743,314
910.527649,320
910.643616,301
910.759583,321
910.875488,306
910.991455,319
911.107361,320
911.223267,323
911.339294,333
911.4552,308
911.571106,320
911.687073,316
911.802979,324
911.918823,324
912.034729,312
912.150635,332
912.266602,317
912.382446,310
912.498352,317
912.614197,310
912.730103,316
912.846008,310
792.44574,337
792.56488,376
792.68396,430
792.80304,399
792.92218,362
793.041199,344
793.160339,338
793.279419,369
793.398499,341
793.517578,342
793.636658,329
793.755737,355
793.874817,357
793.993896,354
794.112976,347
794.232056,341
794.351074,341
794.470215,351
794.589233,344
794.708313,344
794.827393,344
794.946411,329
795.065552,332
795.18457,337
795.303589,346
795.422668,332
795.541687,339
795.660767,329
795.779846,340
795.898865,332
796.017883,329
796.136963,338
796.255981,336
796.375061,353
796.49408,336
796.613037,331
796.732117,341
796.851135,334
796.970154,350
797.089233,337
797.208191,328
797.327271,331
797.446228,345
797.565186,322
797.684265,343
797.803223,346
797.922241,336
798.04126,329
798.160278,338
798.279297,320
798.398315,337
798.517273,340
798.636292,326
798.75531,321
798.874268,343
798.993286,337
799.112244,335
799.231323,328
799.350281,340
799.469238,333
799.588257,335
799.707153,335
799.826111,342
799.945129,332
800.064087,326
800.183044,324
800.302063,331
800.421021,325
800.539978,327
800.658936,335
800.777893,335
800.896912,333
801.015747,335
801.134705,332
801.253723,344
801.37262,332
801.491638,314
801.610535,334
801.729492,336
801.84845,323
801.967407,320
802.086243,330
802.205261,319
802.324158,324
802.443115,329
802.562073,329
802.680969,329
802.799927,322
802.918762,331
803.037659,318
803.156677,330
803.275574,323
803.39447,321
803.513428,321
803.632263,326
803.751221,329
803.870117,337
803.989014,314
804.107971,320
804.226746,313
804.345642,333
804.4646,302
804.583496,324
804.702393,323
804.821228,321
804.940125,328
805.059021,319
805.177917,339
805.296814,330
805.415649,328
805.534546,323
805.653442,309
805.772278,338
805.891113,329
806.01001,338
806.128906,323
806.247742,330
806.366577,322
806.485413,321
806.604309,323
806.723145,320
806.84198,317
806.960876,334
807.079712,326
807.198486,330
807.317383,320
807.436218,326
807.554993,323
807.673889,324
807.792725,315
807.91156,341
808.030396,320
808.14917,320
808.268005,328
808.386841,332
808.505676,330
808.624451,320
808.743286,330
808.862122,322
808.980896,321
809.099731,331
809.218506,324
809.337341,338
809.456116,303
809.57489,337
809.693726,314
809.8125,319
809.931274,314
810.050049,312
810.168884,320
810.287659,312
810.406372,325
810.525269,320
810.643982,326
810.762756,318
810.881531,320
811.000305,327
811.11908,318
811.237854,333
811.356567,320
811.475403,320
811.594116,336
811.71283,325
811.831604,313
811.950378,336
812.069153,321
812.187927,337
812.30658,318
812.425415,323
812.544128,320
812.662781,325
812.781616,324
812.900269,342
813.019043,322
813.137756,322
813.256531,308
813.375244,327
813.493896,316
813.612671,321
813.731384,330
813.850037,325
813.96875,321
814.087524,323
814.206238,312
814.324951,332
814.443604,320
814.562256,329
814.68103,329
814.799683,321
814.918335,315
815.037109,328
815.155762,315
815.274475,321
815.393188,309
815.511841,324
815.630554,311
815.749146,320
815.867859,319
815.986572,309
816.105164,321
816.223877,319
816.342529,320
816.461182,334
816.579895,322
816.698486,317
816.817139,307
816.935791,321
817.054504,327
817.173096,314
817.291748,318
817.4104,319
817.529053,331
817.647644,329
817.766235,321
817.884949,325
818.00354,317
818.122192,313
818.240845,318
818.359436,321
818.478088,318
818.59668,334
818.715271,303
818.833923,324
818.952515,306
819.071106,320
819.189758,320
819.30835,316
819.426941,327
819.545532,318
819.664124,322
819.782715,325
819.901306,310
820.019897,333
820.138489,308
820.25708,336
820.375671,329
820.494202,328
820.612732,305
820.731384,333
820.849915,311
820.968506,326
821.087097,312
821.205627,320
821.324158,318
821.442749,331
821.561279,306
821.679871,311
821.798401,321
821.916931,320
822.035461,317
822.154053,326
822.272583,329
822.391174,331
822.509583,316
822.628174,324
822.746704,316
822.865234,309
822.983765,307
823.102295,308
823.220825,318
823.339294,326
823.457825,316
823.576355,308
823.694824,298
823.813354,314
823.931885,315
824.050354,314
824.168884,312
824.287354,310
824.405823,309
824.524353,323
824.642822,322
824.761353,325
824.879822,328
824.998291,316
825.116699,322
825.235291,330
825.353699,318
825.472168,323
825.590637,312
825.709106,311
825.827576,325
825.946045,310
826.064453,319
826.182983,324
826.301392,317
826.4198,323
826.53833,295
826.656738,311
826.775208,312
826.893677,324
827.012024,315
827.130493,316
827.248962,317
827.36731,323
827.485779,320
827.604248,337
827.722595,314
827.841064,313
827.959412,326
828.077942,306
828.196289,318
828.314636,313
828.433105,304
828.551514,319
828.669861,323
828.78833,322
828.906677,311
829.025085,316
829.143433,324
829.261841,323
829.38031,320
829.498657,310
829.617004,312
829.735413,321
829.85376,321
829.972107,320
830.090515,311
830.208862,316
830.327209,309
830.445557,310
830.563904,326
830.682312,324
830.800659,310
830.919006,315
831.037354,309
831.155701,327
831.274048,317
831.392395,315
831.51062,306
831.629028,313
831.747314,305
831.865662,307
831.984009,329
832.102356,318
832.220642,317
832.338928,325
832.457275,323
832.575623,319
832.693909,319
832.812134,319
832.930481,323
833.048828,322
833.167114,305
833.2854,326
833.403687,328
833.521973,314
833.640259,308
833.758545,327
833.876831,317
833.995056,313
834.113281,316
834.231628,337
834.349915,330
834.468201,310
834.586426,312
834.704651,318
834.822998,322
834.941162,304
835.059448,311
835.177673,313
835.295959,319
835.414246,317
835.53241,320
835.650635,318
835.768921,311
835.887146,329
836.005371,323
836.123596,312
836.241821,321
836.360046,322
836.478271,318
836.596497,332
836.714722,313
836.832886,324
836.95105,307
837.069336,320
837.1875,316
837.305725,315
837.423889,321
837.542053,313
837.660339,315
837.778503,315
837.896667,324
838.014832,334
838.132996,311
838.25116,332
838.369385,320
838.487488,317
838.605713,314
838.723877,307
838.84198,326
838.960205,329
839.078308,310
839.196472,316
839.314636,311
839.4328,319
839.550964,322
839.669067,309
839.787231,305
839.905396,314
840.023499,316
840.141602,307
840.259766,318
840.377869,323
840.495972,321
840.614136,319
840.732239,327
840.850342,319
840.968445,315
841.086548,321
841.204651,325
841.322754,327
841.440918,308
841.55896,320
841.677002,328
841.795166,331
841.913208,319
842.031311,301
842.149353,325
842.267456,321
842.385498,316
842.503601,324
842.621643,322
842.739746,326
842.857788,306
842.97583,327
843.093933,325
843.211975,321
843.330017,327
843.44812,325
843.566101,323
843.684204,320
843.802246,307
843.920227,317
844.038269,339
844.156311,314
844.274292,321
844.392395,319
844.510376,303
844.628357,317
844.74646,312
844.864441,314
844.982422,318
845.100403,331
845.218384,308
845.336426,314
845.454468,324
845.572449,313
845.69043,314
845.808411,327
845.926453,336
846.044373,306
846.162354,318
846.280396,316
846.398315,311
846.516296,316
846.634216,315
846.752197,315
846.870178,311
846.988098,320
847.106079,314
847.22406,332
847.34198,317
847.4599,326
847.577881,330
847.695801,320
847.813782,321
847.931641,317
848.049561,317
848.167603,333
848.285461,316
848.403381,314
848.521362,312
848.639221,316
848.75708,310
848.875,318
848.99292,304
849.110901,327
849.22876,326
849.34668,322
849.464539,318
849.582458,319
849.700317,324
849.818176,324
849.936096,309
850.053955,322
850.171875,316
850.289673,324
850.407593,315
850.525452,333
850.643311,312
850.761169,318
850.878967,304
850.996887,313
851.114746,308
851.232544,320
851.350403,325
851.468262,321
851.58606,306
851.703979,326
851.821777,309
851.939636,323
852.057434,317
852.175232,325
852.293091,318
852.410889,326
852.528687,312
852.646545,313
852.764343,321
852.88208,310
852.999939,323
853.117676,315
853.235535,316
853.353271,325
853.471069,300
853.588928,318
853.706604,327
853.824402,319
853.9422,323
854.059998,318
854.177734,309
854.295532,332
854.413269,322
854.531006,306
854.648804,331
854.766541,321
854.884277,321
855.002014,310
855.119751,325
855.237549,310
855.355225,319
855.473022,315
855.590698,318
855.708435,316
855.826172,326
855.943848,325
856.061646,302
856.179321,324
856.296997,317
856.414795,318
856.53241,329
856.650085,328
856.767822,326
856.885559,313
857.003174,316
857.120911,320
857.238586,309
857.356201,320
857.473938,313
857.591614,327
857.709351,328
857.826965,324
857.944641,313
858.062317,338
858.179993,325
858.297668,327
858.415283,330
858.532959,318
858.650574,316
858.768188,332
858.885803,324
859.003479,320
859.121094,313
859.23877,332
859.356384,327
859.473999,313
859.591675,308
859.709229,307
859.826843,318
859.944458,320
860.062012,318
860.179626,323
860.297302,318
860.414856,325
860.532471,319
860.650024,331
860.767639,312
860.885193,318
861.002808,303
861.120361,317
861.237976,324
861.35553,325
861.473022,337
861.590698,316
861.708191,319
861.825745,321
861.943298,318
862.060852,323
862.178406,321
862.295959,322
862.413513,315
862.531006,313
862.64856,314
862.766113,325
862.883667,306
863.00116,312
863.118713,319
863.236206,331
863.353699,314
863.471252,326
863.588745,306
863.706177,319
863.82373,324
863.941162,317
864.058716,317
864.176208,319
864.29364,326
864.411194,310
864.528687,328
864.646118,318
864.763611,323
864.881042,310
864.998535,316
865.116028,310
865.233459,317
865.350891,315
865.468384,307
865.585754,314
865.703308,319
865.820679,319
865.938171,312
866.055542,314
866.173035,308
866.290466,327
866.407837,299
866.52533,325
866.6427,321
866.760071,324
866.877563,308
866.994934,323
867.112305,314
867.229736,312
867.347107,317
867.464539,329
867.58197,314
867.699341,308
867.81665,314
867.934082,323
868.051453,319
868.168823,318
868.286194,314
868.403564,313
868.520935,319
868.638306,335
868.755676,315
868.872986,312
868.990295,318
869.107727,307
869.225037,319
869.342346,316
869.459717,323
869.577026,319
869.694336,299
869.811707,329
869.929016,309
870.046326,331
870.163635,325
870.280945,316
870.398254,315
870.515564,331
870.632812,325
870.750183,309
870.867432,318
870.984741,310
871.102051,314
871.219299,329
871.336609,321
871.453918,325
871.571106,322
871.688416,326
871.805664,321
871.922852,335
872.040222,324
872.157471,330
872.274719,324
872.391968,336
872.509155,308
872.626465,325
872.743652,309
872.860962,322
872.978149,314
873.095337,315
873.212646,318
873.329834,324
873.44696,313
873.564209,332
873.681396,314
873.798645,332
873.915894,313
874.03302,320
874.150208,328
874.267456,328
874.384583,330
874.501831,335
874.618958,324
874.736145,322
874.853333,316
874.970459,320
875.087646,327
875.204834,320
875.32196,322
875.439148,335
875.556274,312
875.673401,324
875.790527,308
875.907715,330
876.024841,320
876.141968,320
876.259094,313
876.376282,315
876.493347,317
876.610474,322
876.7276,310
876.844727,306
876.961853,322
877.078918,325
877.195984,311
877.313171,324
877.430237,311
877.547302,322
877.664368,307
877.781433,316
877.898499,319
878.015625,316
878.13269,318
878.249695,334
878.366821,321
878.483887,312
878.600952,323
878.717957,332
878.834961,324
878.952087,321
879.069092,317
879.186157,329
879.303162,302
879.420227,325
879.537231,319
879.654236,329
879.77124,317
879.888306,319
880.005249,301
880.122314,322
880.239319,309
880.356323,318
880.473328,314
880.590271,325
880.707275,320
880.824341,308
880.941284,300
881.058228,316
881.175232,307
881.292236,327
881.40918,315
881.526123,331
881.643066,323
881.760071,324
881.877014,303
881.993958,326
882.11084,320
882.227783,310
882.344727,313
882.46167,321
882.578613,320
882.695618,313
882.812439,329
882.929382,310
883.046326,312
883.163208,322
883.280151,308
883.397034,318
883.513916,308
883.630798,322
883.747742,313
883.864563,324
883.981506,293
884.098389,322
884.21521,321
884.332153,331
884.448975,314
884.565796,321
884.682678,321
884.7995,324
884.916443,317
885.033264,326
885.150085,327
885.266968,329
885.383789,325
885.500671,324
885.617493,324
885.734314,322
885.851196,316
885.967896,328
886.084717,315
886.201599,312
886.318359,318
886.435181,325
886.552002,338
886.668762,314
886.785645,303
886.902344,332
887.019165,321
887.135925,323
887.252747,313
887.369446,317
887.486267,326
887.603027,321
887.719788,332
887.836548,333
887.953247,301
888.070068,317
888.186829,315
888.303528,316
888.420288,319
888.536987,323
888.653687,319
888.770447,311
888.887146,317
889.003967,321
889.120667,318
889.237305,322
889.354065,313
889.470703,328
889.587463,313
889.704163,324
889.820862,310
889.937561,316
890.054199,317
890.170837,309
890.287598,314
890.404236,313
890.520874,311
890.637634,317
890.754211,317
890.87085,310
890.987549,313
891.104187,310
891.220886,315
891.337463,328
891.454102,309
891.57074,321
891.687378,317
891.804077,332
891.920654,304
892.037231,308
892.15387,311
892.270447,329
892.387085,320
892.503723,305
892.6203,316
892.736877,320
892.853516,322
892.970032,334
893.08667,320
893.203186,324
893.319763,316
893.43634,328
893.552917,313
893.669556,323
893.786011,321
893.902588,320
894.019165,307
894.135681,308
894.252197,319
894.368835,310
894.485291,308
894.601868,324
894.718384,306
894.8349,320
894.951355,316
895.067932,322
895.184448,312
895.300964,315
895.417419,310
895.533936,328
895.650452,304
895.766907,316
895.883423,319
895.999878,315
896.116333,304
896.232849,329
896.349304,312
896.465759,315
896.582214,320
896.698669,320
896.815125,314
896.931641,313
897.048035,318
897.164551,324
897.280884,312
897.397339,314
897.513794,323
897.630249,325
897.746582,314
897.863098,328
897.979431,304
898.095886,327
898.212341,300
898.328674,312
898.445129,316
898.561462,333
898.677795,305
898.794312,307
898.910645,311
899.026978,308
899.143433,318
899.259766,306
899.37616,317
899.492493,317
899.608765,294
899.725159,328
899.841553,310
899.957947,320
900.07428,302
900.190552,321
900.306946,321
900.423157,318
900.53949,316
900.655884,306
900.772156,330
900.888489,308
901.004822,330
901.121033,322
901.237366,314
901.353699,313
901.46991,307
901.586304,307
901.702515,316
901.818787,319
901.93512,314
902.051331,326
902.167603,318
902.283875,322
902.400085,322
902.516418,314
902.632629,316
902.74884,331
902.865112,316
902.981384,321
903.097595,334
903.213867,320
903.330017,329
903.446289,329
903.5625,320
903.67865,312
903.794922,316
903.911072,332
904.027344,327
904.143494,303
904.259705,309
904.375916,329
904.492065,312
904.608215,306
904.724426,313
904.840576,317
904.956726,308
905.072876,321
905.189087,309
905.305176,315
905.421387,314
905.537537,321
905.653687,303
905.769775,323
905.885925,315
906.002014,324
906.118164,314
906.234314,330
906.350403,323
906.466492,306
906.582642,314
906.69873,334
906.814758,305
906.930908,318
907.046936,314
907.163086,319
907.279175,308
907.395264,327
907.511353,307
907.62738,327
907.743408,311
907.859497,306
907.975525,315
908.091553,319
908.207703,313
908.32373,323
908.439758,319
908.555786,323
908.671814,314
908.787842,320
908.90387,317
909.019775,319
909.135864,311
909.251892,325
909.367859,314
909.483826,313
909.599854,319
909.715881,327
909.831848,304
909.947815,319
910.063782,316
910.179749,317
910.295776,326
910.411743,315
910.527649,303
910.643616,316
910.759583,320
910.875488,321
910.991455,299
911.107361,309
911.223267,314
911.339294,307
911.4552,326
911.571106,321
911.687073,313
911.802979,313
911.918823,318
912.034729,309
912.150635,318
912.266602,314
912.382446,324
912.498352,328
912.614197,313
912.730103,318
912.846008,304
792.44574,347
792.56488,364
792.68396,435
792.80304,399
792.92218,364
793.041199,345
793.160339,343
793.279419,360
793.398499,355
793.517578,327
793.636658,340
793.755737,350
793.874817,354
793.993896,357
794.112976,363
794.232056,345
794.351074,352
794.470215,347
794.589233,347
794.708313,351
794.827393,351
794.946411,355
795.065552,351
795.18457,358
795.303589,340
795.422668,341
795.541687,345
795.660767,343
795.779846,337
795.898865,344
796.017883,335
796.136963,353
796.255981,334
796.375061,333
796.49408,336
796.613037,340
796.732117,333
796.851135,349
796.970154,332
797.089233,326
797.208191,316
797.327271,337
797.446228,336
797.565186,335
797.684265,343
797.803223,328
797.922241,332
798.04126,332
798.160278,340
798.279297,337
798.398315,330
798.517273,319
798.636292,342
798.75531,324
798.874268,332
798.993286,320
799.112244,350
799.231323,332
799.350281,343
799.469238,336
799.588257,340
799.707153,330
799.826111,331
799.945129,329
800.064087,333
800.183044,333
800.302063,326
800.421021,327
800.539978,334
800.658936,321
800.777893,335
800.896912,328
801.015747,335
801.134705,336
801.253723,334
801.37262,338
801.491638,328
801.610535,325
801.729492,339
801.84845,318
801.967407,331
802.086243,337
802.205261,324
802.324158,340
802.443115,324
802.562073,322
802.680969,326
802.799927,338
802.918762,319
803.037659,327
803.156677,329
803.275574,338
803.39447,326
803.513428,328
803.632263,329
803.751221,324
803.870117,327
803.989014,338
804.107971,324
804.226746,318
804.345642,313
804.4646,338
804.583496,324
804.702393,331
804.821228,333
804.940125,324
805.059021,323
805.177917,326
805.296814,328
805.415649,341
805.534546,320
805.653442,318
805.772278,325
805.891113,320
806.01001,329
806.128906,318
806.247742,328
806.366577,326
806.485413,338
806.604309,338
806.723145,329
806.84198,327
806.960876,333
807.079712,324
807.198486,334
807.317383,342
807.436218,320
807.554993,332
807.673889,334
807.792725,317
807.91156,329
808.030396,338
808.14917,327
808.268005,331
808.386841,327
808.505676,322
808.624451,315
808.743286,326
808.862122,315
808.980896,327
809.099731,314
809.218506,326
809.337341,336
809.456116,317
809.57489,329
809.693726,317
809.8125,323
809.931274,320
810.050049,329
810.168884,327
810.287659,341
810.406372,329
810.525269,329
810.643982,322
810.762756,323
810.881531,312
811.000305,323
811.11908,320
811.237854,336
811.356567,338
811.475403,332
811.594116,339
811.71283,334
811.831604,322
811.950378,318
812.069153,327
812.187927,333
812.30658,322
812.425415,330
812.544128,327
812.662781,324
812.781616,332
812.900269,335
813.019043,327
813.137756,338
813.256531,334
813.375244,331
813.493896,336
813.612671,323
813.731384,331
813.850037,325
813.96875,319
814.087524,337
814.206238,318
814.324951,309
814.443604,322
814.562256,324
814.68103,328
814.799683,331
814.918335,323
815.037109,329
815.155762,336
815.274475,332
815.393188,320
815.511841,329
815.630554,312
815.749146,324
815.867859,332
815.986572,327
816.105164,315
816.223877,327
816.342529,333
816.461182,331
816.579895,323
816.698486,327
816.817139,320
816.935791,333
817.054504,333
817.173096,328
817.291748,325
817.4104,324
817.529053,331
817.647644,317
817.766235,317
817.884949,318
818.00354,336
818.122192,321
818.240845,327
818.359436,316
818.478088,330
818.59668,335
818.715271,320
818.833923,322
818.952515,316
819.071106,324
819.189758,323
819.30835,314
819.426941,341
819.545532,324
819.664124,330
819.782715,317
819.901306,331
820.019897,323
820.138489,315
820.25708,313
820.375671,314
820.494202,324
820.612732,321
820.731384,318
820.849915,319
820.968506,320
821.087097,331
821.205627,310
821.324158,320
821.442749,309
821.561279,327
821.679871,324
821.798401,311
821.916931,313
822.035461,337
822.154053,311
822.272583,330
822.391174,334
822.509583,319
822.628174,325
822.746704,315
822.865234,326
822.983765,311
823.102295,313
823.220825,325
823.339294,302
823.457825,326
823.576355,324
823.694824,333
823.813354,312
823.931885,318
824.050354,319
824.168884,310
824.287354,322
824.405823,325
824.524353,316
824.642822,322
824.761353,316
824.879822,325
824.998291,316
825.116699,323
825.235291,320
825.353699,316
825.472168,320
825.590637,314
825.709106,320
825.827576,320
825.946045,324
826.064453,309
826.182983,324
826.301392,317
826.4198,328
826.53833,319
826.656738,307
826.775208,324
826.893677,314
827.012024,314
827.130493,331
827.248962,310
827.36731,333
827.485779,310
827.604248,311
827.722595,326
827.841064,311
827.959412,313
828.077942,325
828.196289,324
828.314636,314
828.433105,307
828.551514,308
828.669861,319
828.78833,306
828.906677,319
829.025085,315
829.143433,313
829.261841,321
829.38031,333
829.498657,314
829.617004,323
829.735413,321
829.85376,315
829.972107,326
830.090515,323
830.208862,309
830.327209,313
830.445557,306
830.563904,312
830.682312,319
830.800659,329
830.919006,318
831.037354,330
831.155701,332
831.274048,324
831.392395,332
831.51062,327
831.629028,334
831.747314,326
831.865662,311
831.984009,314
832.102356,321
832.220642,320
832.338928,316
832.457275,323
832.575623,335
832.693909,323
832.812134,321
832.930481,317
833.048828,329
833.167114,312
833.2854,316
833.403687,321
833.521973,322
833.640259,318
833.758545,330
833.876831,319
833.995056,318
834.113281,312
834.231628,335
834.349915,301
834.468201,309
834.586426,328
834.704651,322
834.822998,324
834.941162,314
835.059448,320
835.177673,310
835.295959,339
835.414246,305
835.53241,325
835.650635,319
835.768921,323
835.887146,318
836.005371,323
836.123596,321
836.241821,319
836.360046,307
836.478271,313
836.596497,324
836.714722,317
836.832886,330
836.95105,316
837.069336,319
837.1875,333
837.305725,314
837.423889,312
837.542053,314
837.660339,308
837.778503,328
837.896667,328
838.014832,325
838.132996,326
838.25116,323
838.369385,320
838.487488,321
838.605713,321
838.723877,326
838.84198,328
838.960205,319
839.078308,315
839.196472,316
839.314636,316
839.4328,313
839.550964,321
839.669067,326
839.787231,308
839.905396,303
840.023499,337
840.141602,317
840.259766,327
840.377869,318
840.495972,332
840.614136,320
840.732239,322
840.850342,317
840.968445,325
841.086548,319
841.204651,314
841.322754,314
841.440918,323
841.55896,332
841.677002,320
841.795166,328
841.913208,316
842.031311,317
842.149353,337
842.267456,322
842.385498,326
842.503601,317
842.621643,322
842.739746,326
842.857788,325
842.97583,320
843.093933,320
843.211975,307
843.330017,322
843.44812,319
843.566101,321
843.684204,319
843.802246,329
843.920227,311
844.038269,319
844.156311,318
844.274292,322
844.392395,307
844.510376,316
844.628357,321
844.74646,319
844.864441,323
844.982422,327
845.100403,324
845.218384,332
845.336426,323
845.454468,312
845.572449,329
845.69043,325
845.808411,312
845.926453,325
846.044373,326
846.162354,311
846.280396,318
846.398315,331
846.516296,326
846.634216,320
846.752197,325
846.870178,321
846.988098,326
847.106079,338
847.22406,323
847.34198,317
847.4599,329
847.577881,311
847.695801,312
847.813782,319
847.931641,328
848.049561,309
848.167603,320
848.285461,326
848.403381,315
848.521362,322
848.639221,310
848.75708,312
848.875,313
848.99292,327
849.110901,319
849.22876,329
849.34668,316
849.464539,341
849.582458,325
849.700317,318
849.818176,328
849.936096,317
850.053955,317
850.171875,319
850.289673,313
850.407593,329
850.525452,323
850.643311,313
850.761169,326
850.878967,326
850.996887,325
851.114746,316
851.232544,315
851.350403,331
851.468262,328
851.58606,319
851.703979,308
851.821777,318
851.939636,313
852.057434,321
852.175232,315
852.293091,325
852.410889,328
852.528687,331
852.646545,320
852.764343,324
852.88208,326
852.999939,333
853.117676,327
853.235535,309
853.353271,314
853.471069,327
853.588928,325
853.706604,307
853.824402,324
853.9422,321
854.059998,314
854.177734,320
854.295532,328
854.413269,321
854.531006,328
854.648804,334
854.766541,312
854.884277,335
855.002014,320
855.119751,323
855.237549,312
855.355225,321
855.473022,325
855.590698,320
855.708435,327
855.826172,328
855.943848,324
856.061646,320
856.179321,318
856.296997,337
856.414795,303
856.53241,323
856.650085,311
856.767822,321
856.885559,333
857.003174,327
857.120911,333
857.238586,337
857.356201,325
857.473938,331
857.591614,318
857.709351,331
857.826965,327
857.944641,328
858.062317,321
858.179993,318
858.297668,330
858.415283,321
858.532959,314
858.650574,332
858.768188,315
858.885803,318
859.003479,315
859.121094,328
859.23877,330
859.356384,336
859.473999,345
859.591675,313
859.709229,306
859.826843,329
859.944458,326
860.062012,325
860.179626,323
860.297302,325
860.414856,317
860.532471,329
860.650024,326
860.767639,314
860.885193,321
861.002808,311
861.120361,326
861.237976,317
861.35553,318
861.473022,328
861.590698,318
861.708191,328
861.825745,333
861.943298,319
862.060852,322
862.178406,332
862.295959,306
862.413513,315
862.531006,331
862.64856,314
862.766113,320
862.883667,319
863.00116,329
863.118713,312
863.236206,318
863.353699,324
863.471252,323
863.588745,311
863.706177,305
863.82373,324
863.941162,316
864.058716,328
864.176208,321
864.29364,320
864.411194,328
864.528687,314
864.646118,328
864.763611,326
864.881042,311
864.998535,318
865.116028,312
865.233459,330
865.350891,323
865.468384,321
865.585754,317
865.703308,315
865.820679,323
865.938171,322
866.055542,325
866.173035,326
866.290466,321
866.407837,322
866.52533,315
866.6427,322
866.760071,309
866.877563,329
866.994934,312
867.112305,329
867.229736,317
867.347107,315
867.464539,329
867.58197,308
867.699341,316
867.81665,314
867.934082,317
868.051453,318
868.168823,313
868.286194,340
868.403564,309
868.520935,323
868.638306,322
868.755676,321
868.872986,320
868.990295,330
869.107727,323
869.225037,338
869.342346,328
869.459717,326
869.577026,321
869.694336,311
869.811707,335
869.929016,327
870.046326,325
870.163635,325
870.280945,323
870.398254,322
870.515564,327
870.632812,314
870.750183,316
870.867432,335
870.984741,327
871.102051,318
871.219299,323
871.336609,344
871.453918,318
871.571106,313
871.688416,329
871.805664,332
871.922852,324
872.040222,318
872.157471,325
872.274719,322
872.391968,331
872.509155,320
872.626465,304
872.743652,317
872.860962,326
872.978149,318
873.095337,321
873.212646,333
873.329834,319
873.44696,323
873.564209,318
873.681396,330
873.798645,318
873.915894,320
874.03302,321
874.150208,331
874.267456,329
874.384583,320
874.501831,322
874.618958,326
874.736145,313
874.853333,338
874.970459,322
875.087646,324
875.204834,310
875.32196,334
875.439148,314
875.556274,324
875.673401,338
875.790527,322
875.907715,314
876.024841,322
876.141968,327
876.259094,329
876.376282,307
876.493347,312
876.610474,304
876.7276,327
876.844727,340
876.961853,332
877.078918,325
877.195984,327
877.313171,325
877.430237,326
877.547302,322
877.664368,324
877.781433,319
877.898499,316
878.015625,315
878.13269,315
878.249695,321
878.366821,315
878.483887,307
878.600952,327
878.717957,313
878.834961,317
878.952087,318
879.069092,308
879.186157,322
879.303162,325
879.420227,331
879.537231,304
879.654236,309
879.77124,329
879.888306,320
880.005249,310
880.122314,325
880.239319,330
880.356323,305
880.473328,310
880.590271,318
880.707275,327
880.824341,307
880.941284,318
881.058228,312
881.175232,328
881.292236,317
881.40918,327
881.526123,315
881.643066,311
881.760071,315
881.877014,324
881.993958,317
882.11084,332
882.227783,312
882.344727,332
882.46167,321
882.578613,322
882.695618,321
882.812439,324
882.929382,329
883.046326,325
883.163208,328
883.280151,309
883.397034,329
883.513916,327
883.630798,309
883.747742,328
883.864563,316
883.981506,309
884.098389,333
884.21521,324
884.332153,314
884.448975,315
884.565796,323
884.682678,328
884.7995,323
884.916443,327
885.033264,327
885.150085,333
885.266968,318
885.383789,327
885.500671,339
885.617493,337
885.734314,326
885.851196,340
885.967896,328
886.084717,338
886.201599,339
886.318359,331
886.435181,324
886.552002,321
886.668762,340
886.785645,328
886.902344,329
887.019165,343
887.135925,334
887.252747,322
887.369446,326
887.486267,321
887.603027,318
887.719788,327
887.836548,316
887.953247,322
888.070068,324
888.186829,326
888.303528,304
888.420288,321
888.536987,310
888.653687,318
888.770447,321
888.887146,330
889.003967,316
889.120667,314
889.237305,314
889.354065,318
889.470703,305
889.587463,322
889.704163,327
889.820862,330
889.937561,308
890.054199,309
890.170837,309
890.287598,327
890.404236,321
890.520874,328
890.637634,328
890.754211,321
890.87085,326
890.987549,326
891.104187,309
891.220886,328
891.337463,312
891.454102,308
891.57074,328
891.687378,335
891.804077,311
891.920654,321
892.037231,316
892.15387,317
892.270447,344
892.387085,323
892.503723,311
892.6203,326
892.736877,323
892.853516,325
892.970032,327
893.08667,320
893.203186,330
893.319763,307
893.43634,325
893.552917,319
893.669556,313
893.786011,332
893.902588,303
894.019165,322
894.135681,320
894.252197,323
894.368835,326
894.485291,316
894.601868,326
894.718384,318
894.8349,318
894.951355,311
895.067932,312
895.184448,314
895.300964,328
895.417419,321
895.533936,318
895.650452,319
895.766907,318
895.883423,319
895.999878,314
896.116333,323
896.232849,321
896.349304,319
896.465759,320
896.582214,302
896.698669,310
896.815125,309
896.931641,314
897.048035,315
897.164551,313
897.280884,334
897.397339,312
897.513794,325
897.630249,314
897.746582,309
897.863098,310
897.979431,305
898.095886,315
898.212341,322
898.328674,306
898.445129,317
898.561462,324
898.677795,321
898.794312,320
898.910645,315
899.026978,315
899.143433,317
899.259766,329
899.37616,324
899.492493,313
899.608765,315
899.725159,301
899.841553,316
899.957947,307
900.07428,307
900.190552,314
900.306946,329
900.423157,314
900.53949,320
900.655884,307
900.772156,321
900.888489,309
901.004822,327
901.121033,305
901.237366,320
901.353699,311
901.46991,321
901.586304,314
901.702515,331
901.818787,310
901.93512,314
902.051331,313
902.167603,330
902.283875,328
902.400085,329
902.516418,318
902.632629,326
902.74884,319
902.865112,342
902.981384,315
903.097595,328
903.213867,323
903.330017,336
903.446289,345
903.5625,315
903.67865,319
903.794922,319
903.911072,326
904.027344,325
904.143494,308
904.259705,317
904.375916,319
904.492065,320
904.608215,323
904.724426,310
904.840576,302
904.956726,329
905.072876,315
905.189087,319
905.305176,310
905.421387,314
905.537537,321
905.653687,319
905.769775,312
905.885925,308
906.002014,310
906.118164,325
906.234314,320
906.350403,323
906.466492,318
906.582642,325
906.69873,315
906.814758,318
906.930908,313
907.046936,314
907.163086,321
907.279175,321
907.395264,317
907.511353,312
907.62738,308
907.743408,310
907.859497,319
907.975525,324
908.091553,325
908.207703,307
908.32373,316
908.439758,314
908.555786,313
908.671814,321
908.787842,313
908.90387,315
909.019775,315
909.135864,309
909.251892,314
909.367859,324
909.483826,324
909.599854,320
909.715881,318
909.831848,322
909.947815,331
910.063782,325
910.179749,312
910.295776,318
910.411743,318
910.527649,322
910.643616,328
910.759583,322
910.875488,321
910.991455,307
911.107361,319
911.223267,325
911.339294,313
911.4552,331
911.571106,304
911.687073,319
911.802979,312
911.918823,308
912.034729,322
912.150635,331
912.266602,305
912.382446,313
912.498352,313
912.614197,311
912.730103,315
912.846008,327
