792.44574,313
792.56488,347
792.68396,404
792.80304,365
792.92218,339
793.041199,321
793.160339,327
793.279419,341
793.398499,341
793.517578,320
793.636658,320
793.755737,322
793.874817,358
793.993896,354
794.112976,351
794.232056,328
794.351074,321
794.470215,330
794.589233,336
794.708313,320
794.827393,333
794.946411,323
795.065552,335
795.18457,338
795.303589,331
795.422668,324
795.541687,332
795.660767,331
795.779846,338
795.898865,322
796.017883,331
796.136963,337
796.255981,329
796.375061,325
796.49408,335
796.613037,344
796.732117,323
796.851135,334
796.970154,343
797.089233,318
797.208191,332
797.327271,323
797.446228,323
797.565186,317
797.684265,335
797.803223,332
797.922241,320
798.04126,328
798.160278,335
798.279297,330
798.398315,327
798.517273,336
798.636292,337
798.75531,332
798.874268,332
798.993286,331
799.112244,322
799.231323,319
799.350281,330
799.469238,313
799.588257,340
799.707153,338
799.826111,331
799.945129,319
800.064087,322
800.183044,327
800.302063,326
800.421021,320
800.539978,339
800.658936,333
800.777893,334
800.896912,323
801.015747,330
801.134705,322
801.253723,341
801.37262,327
801.491638,328
801.610535,326
801.729492,323
801.84845,333
801.967407,327
802.086243,316
802.205261,334
802.324158,323
802.443115,337
802.562073,334
802.680969,344
802.799927,339
802.918762,335
803.037659,327
803.156677,347
803.275574,332
803.39447,339
803.513428,338
803.632263,338
803.751221,334
803.870117,331
803.989014,332
804.107971,332
804.226746,332
804.345642,331
804.4646,303
804.583496,341
804.702393,320
804.821228,322
804.940125,346
805.059021,339
805.177917,341
805.296814,326
805.415649,324
805.534546,348
805.653442,321
805.772278,338
805.891113,325
806.01001,337
806.128906,329
806.247742,332
806.366577,333
806.485413,338
806.604309,316
806.723145,325
806.84198,331
806.960876,322
807.079712,329
807.198486,329
807.317383,329
807.436218,316
807.554993,324
807.673889,340
807.792725,344
807.91156,329
808.030396,342
808.14917,342
808.268005,328
808.386841,335
808.505676,332
808.624451,323
808.743286,333
808.862122,338
808.980896,332
809.099731,328
809.218506,334
809.337341,331
809.456116,334
809.57489,346
809.693726,336
809.8125,342
809.931274,335
810.050049,321
810.168884,333
810.287659,324
810.406372,351
810.525269,338
810.643982,337
810.762756,332
810.881531,320
811.000305,321
811.11908,341
811.237854,319
811.356567,342
811.475403,329
811.594116,332
811.71283,339
811.831604,328
811.950378,331
812.069153,337
812.187927,330
812.30658,323
812.425415,327
812.544128,345
812.662781,338
812.781616,339
812.900269,334
813.019043,331
813.137756,332
813.256531,324
813.375244,337
813.493896,333
813.612671,347
813.731384,325
813.850037,330
813.96875,335
814.087524,335
814.206238,325
814.324951,340
814.443604,329
814.562256,340
814.68103,323
814.799683,325
814.918335,325
815.037109,337
815.155762,319
815.274475,336
815.393188,333
815.511841,339
815.630554,329
815.749146,330
815.867859,328
815.986572,317
816.105164,337
816.223877,330
816.342529,331
816.461182,327
816.579895,340
816.698486,331
816.817139,338
816.935791,324
817.054504,333
817.173096,328
817.291748,332
817.4104,332
817.529053,329
817.647644,322
817.766235,331
817.884949,337
818.00354,320
818.122192,331
818.240845,310
818.359436,340
818.478088,317
818.59668,334
818.715271,317
818.833923,312
818.952515,316
819.071106,319
819.189758,312
819.30835,339
819.426941,314
819.545532,327
819.664124,321
819.782715,304
819.901306,332
820.019897,327
820.138489,321
820.25708,325
820.375671,319
820.494202,319
820.612732,314
820.731384,324
820.849915,331
820.968506,321
821.087097,331
821.205627,307
821.324158,333
821.442749,311
821.561279,327
821.679871,331
821.798401,337
821.916931,320
822.035461,313
822.154053,316
822.272583,310
822.391174,324
822.509583,323
822.628174,314
822.746704,314
822.865234,313
822.983765,322
823.102295,330
823.220825,314
823.339294,319
823.457825,314
823.576355,315
823.694824,325
823.813354,330
823.931885,331
824.050354,312
824.168884,317
824.287354,326
824.405823,322
824.524353,330
824.642822,319
824.761353,324
824.879822,322
824.998291,334
825.116699,320
825.235291,323
825.353699,315
825.472168,317
825.590637,306
825.709106,318
825.827576,313
825.946045,318
826.064453,314
826.182983,314
826.301392,329
826.4198,318
826.53833,323
826.656738,312
826.775208,313
826.893677,318
827.012024,328
827.130493,303
827.248962,312
827.36731,334
827.485779,328
827.604248,319
827.722595,313
827.841064,318
827.959412,314
828.077942,310
828.196289,298
828.314636,332
828.433105,307
828.551514,320
828.669861,327
828.78833,312
828.906677,311
829.025085,325
829.143433,322
829.261841,327
829.38031,307
829.498657,324
829.617004,317
829.735413,322
829.85376,318
829.972107,328
830.090515,313
830.208862,320
830.327209,323
830.445557,314
830.563904,306
830.682312,322
830.800659,308
830.919006,324
831.037354,318
831.155701,313
831.274048,328
831.392395,313
831.51062,312
831.629028,316
831.747314,307
831.865662,334
831.984009,310
832.102356,319
832.220642,314
832.338928,330
832.457275,316
832.575623,329
832.693909,313
832.812134,314
832.930481,306
833.048828,308
833.167114,323
833.2854,316
833.403687,313
833.521973,320
833.640259,305
833.758545,318
833.876831,319
833.995056,316
834.113281,306
834.231628,319
834.349915,313
834.468201,335
834.586426,321
834.704651,326
834.822998,308
834.941162,327
835.059448,317
835.177673,320
835.295959,309
835.414246,322
835.53241,322
835.650635,322
835.768921,307
835.887146,314
836.005371,307
836.123596,319
836.241821,322
836.360046,311
836.478271,315
836.596497,315
836.714722,308
836.832886,322
836.95105,320
837.069336,303
837.1875,313
837.305725,325
837.423889,321
837.542053,328
837.660339,326
837.778503,332
837.896667,318
838.014832,323
838.132996,316
838.25116,319
838.369385,317
838.487488,314
838.605713,312
838.723877,327
838.84198,311
838.960205,330
839.078308,309
839.196472,314
839.314636,328
839.4328,311
839.550964,328
839.669067,321
839.787231,305
839.905396,321
840.023499,318
840.141602,315
840.259766,323
840.377869,322
840.495972,321
840.614136,320
840.732239,321
840.850342,315
840.968445,311
841.086548,326
841.204651,309
841.322754,313
841.440918,309
841.55896,323
841.677002,311
841.795166,323
841.913208,319
842.031311,308
842.149353,314
842.267456,302
842.385498,325
842.503601,314
842.621643,323
842.739746,321
842.857788,324
842.97583,326
843.093933,317
843.211975,323
843.330017,306
843.44812,309
843.566101,311
843.684204,318
843.802246,308
843.920227,335
844.038269,308
844.156311,314
844.274292,307
844.392395,322
844.510376,320
844.628357,315
844.74646,306
844.864441,326
844.982422,320
845.100403,319
845.218384,324
845.336426,309
845.454468,307
845.572449,308
845.69043,309
845.808411,317
845.926453,307
846.044373,317
846.162354,310
846.280396,310
846.398315,315
846.516296,324
846.634216,315
846.752197,315
846.870178,322
846.988098,317
847.106079,301
847.22406,315
847.34198,321
847.4599,320
847.577881,303
847.695801,313
847.813782,316
847.931641,312
848.049561,316
848.167603,317
848.285461,300
848.403381,328
848.521362,313
848.639221,321
848.75708,327
848.875,314
848.99292,314
849.110901,324
849.22876,324
849.34668,324
849.464539,304
849.582458,329
849.700317,320
849.818176,314
849.936096,314
850.053955,326
850.171875,306
850.289673,304
850.407593,311
850.525452,326
850.643311,310
850.761169,320
850.878967,314
850.996887,328
851.114746,307
851.232544,319
851.350403,333
851.468262,314
851.58606,319
851.703979,326
851.821777,313
851.939636,311
852.057434,320
852.175232,307
852.293091,308
852.410889,301
852.528687,326
852.646545,318
852.764343,309
852.88208,321
852.999939,306
853.117676,316
853.235535,309
853.353271,322
853.471069,316
853.588928,317
853.706604,298
853.824402,318
853.9422,317
854.059998,310
854.177734,307
854.295532,310
854.413269,301
854.531006,337
854.648804,328
854.766541,316
854.884277,319
855.002014,301
855.119751,321
855.237549,318
855.355225,313
855.473022,325
855.590698,316
855.708435,323
855.826172,309
855.943848,317
856.061646,328
856.179321,313
856.296997,305
856.414795,314
856.53241,326
856.650085,311
856.767822,304
856.885559,326
857.003174,302
857.120911,313
857.238586,320
857.356201,309
857.473938,308
857.591614,320
857.709351,304
857.826965,330
857.944641,312
858.062317,322
858.179993,320
858.297668,310
858.415283,318
858.532959,319
858.650574,307
858.768188,305
858.885803,318
859.003479,320
859.121094,318
859.23877,309
859.356384,314
859.473999,328
859.591675,322
859.709229,311
859.826843,314
859.944458,322
860.062012,307
860.179626,327
860.297302,310
860.414856,334
860.532471,309
860.650024,333
860.767639,310
860.885193,328
861.002808,314
861.120361,304
861.237976,318
861.35553,317
861.473022,307
861.590698,321
861.708191,317
861.825745,313
861.943298,319
862.060852,328
862.178406,306
862.295959,333
862.413513,304
862.531006,315
862.64856,306
862.766113,319
862.883667,314
863.00116,317
863.118713,313
863.236206,309
863.353699,315
863.471252,310
863.588745,310
863.706177,320
863.82373,323
863.941162,330
864.058716,321
864.176208,314
864.29364,322
864.411194,323
864.528687,322
864.646118,322
864.763611,324
864.881042,325
864.998535,316
865.116028,331
865.233459,318
865.350891,320
865.468384,317
865.585754,317
865.703308,321
865.820679,321
865.938171,315
866.055542,318
866.173035,310
866.290466,326
866.407837,307
866.52533,327
866.6427,313
866.760071,319
866.877563,317
866.994934,310
867.112305,317
867.229736,317
867.347107,323
867.464539,330
867.58197,323
867.699341,310
867.81665,317
867.934082,321
868.051453,322
868.168823,309
868.286194,313
868.403564,333
868.520935,318
868.638306,313
868.755676,326
868.872986,326
868.990295,307
869.107727,318
869.225037,318
869.342346,315
869.459717,314
869.577026,320
869.694336,316
869.811707,316
869.929016,309
870.046326,308
870.163635,318
870.280945,318
870.398254,309
870.515564,330
870.632812,306
870.750183,313
870.867432,315
870.984741,325
871.102051,315
871.219299,319
871.336609,328
871.453918,311
871.571106,315
871.688416,300
871.805664,327
871.922852,313
872.040222,316
872.157471,314
872.274719,311
872.391968,313
872.509155,308
872.626465,320
872.743652,323
872.860962,327
872.978149,311
873.095337,329
873.212646,324
873.329834,323
873.44696,298
873.564209,326
873.681396,318
873.798645,315
873.915894,316
874.03302,324
874.150208,296
874.267456,328
874.384583,312
874.501831,320
874.618958,324
874.736145,310
874.853333,304
874.970459,325
875.087646,317
875.204834,317
875.32196,311
875.439148,312
875.556274,309
875.673401,308
875.790527,309
875.907715,323
876.024841,303
876.141968,330
876.259094,317
876.376282,323
876.493347,315
876.610474,323
876.7276,316
876.844727,318
876.961853,324
877.078918,322
877.195984,305
877.313171,307
877.430237,321
877.547302,320
877.664368,314
877.781433,307
877.898499,312
878.015625,324
878.13269,307
878.249695,315
878.366821,315
878.483887,319
878.600952,326
878.717957,344
878.834961,314
878.952087,319
879.069092,310
879.186157,315
879.303162,317
879.420227,308
879.537231,313
879.654236,323
879.77124,315
879.888306,318
880.005249,324
880.122314,311
880.239319,314
880.356323,316
880.473328,320
880.590271,316
880.707275,325
880.824341,315
880.941284,311
881.058228,312
881.175232,318
881.292236,311
881.40918,323
881.526123,312
881.643066,312
881.760071,314
881.877014,312
881.993958,316
882.11084,312
882.227783,331
882.344727,305
882.46167,318
882.578613,301
882.695618,328
882.812439,309
882.929382,312
883.046326,318
883.163208,314
883.280151,317
883.397034,311
883.513916,311
883.630798,325
883.747742,323
883.864563,330
883.981506,313
884.098389,300
884.21521,317
884.332153,322
884.448975,308
884.565796,327
884.682678,298
884.7995,309
884.916443,313
885.033264,325
885.150085,321
885.266968,324
885.383789,310
885.500671,302
885.617493,317
885.734314,321
885.851196,321
885.967896,323
886.084717,304
886.201599,310
886.318359,314
886.435181,313
886.552002,329
886.668762,306
886.785645,323
886.902344,313
887.019165,306
887.135925,330
887.252747,324
887.369446,321
887.486267,325
887.603027,323
887.719788,312
887.836548,310
887.953247,326
888.070068,327
888.186829,317
888.303528,325
888.420288,320
888.536987,333
888.653687,310
888.770447,322
888.887146,309
889.003967,316
889.120667,325
889.237305,315
889.354065,311
889.470703,334
889.587463,316
889.704163,309
889.820862,312
889.937561,312
890.054199,304
890.170837,323
890.287598,315
890.404236,306
890.520874,326
890.637634,318
890.754211,321
890.87085,327
890.987549,321
891.104187,320
891.220886,318
891.337463,320
891.454102,329
891.57074,315
891.687378,309
891.804077,320
891.920654,296
892.037231,332
892.15387,310
892.270447,320
892.387085,313
892.503723,318
892.6203,310
892.736877,315
892.853516,314
892.970032,313
893.08667,320
893.203186,319
893.319763,325
893.43634,311
893.552917,308
893.669556,314
893.786011,313
893.902588,314
894.019165,308
894.135681,317
894.252197,329
894.368835,316
894.485291,302
894.601868,309
894.718384,307
894.8349,310
894.951355,317
895.067932,319
895.184448,300
895.300964,312
895.417419,309
895.533936,318
895.650452,304
895.766907,328
895.883423,307
895.999878,320
896.116333,321
896.232849,317
896.349304,316
896.465759,320
896.582214,315
896.698669,317
896.815125,318
896.931641,305
897.048035,308
897.164551,314
897.280884,316
897.397339,320
897.513794,315
897.630249,322
897.746582,317
897.863098,313
897.979431,316
898.095886,320
898.212341,297
898.328674,318
898.445129,313
898.561462,328
898.677795,308
898.794312,311
898.910645,313
899.026978,325
899.143433,301
899.259766,324
899.37616,309
899.492493,320
899.608765,312
899.725159,311
899.841553,318
899.957947,323
900.07428,316
900.190552,315
900.306946,318
900.423157,312
900.53949,312
900.655884,303
900.772156,328
900.888489,321
901.004822,327
901.121033,319
901.237366,316
901.353699,316
901.46991,309
901.586304,305
901.702515,322
901.818787,315
901.93512,311
902.051331,314
902.167603,317
902.283875,328
902.400085,315
902.516418,332
902.632629,324
902.74884,315
902.865112,322
902.981384,330
903.097595,318
903.213867,316
903.330017,310
903.446289,319
903.5625,314
903.67865,314
903.794922,321
903.911072,321
904.027344,317
904.143494,316
904.259705,310
904.375916,330
904.492065,308
904.608215,329
904.724426,312
904.840576,322
904.956726,304
905.072876,317
905.189087,314
905.305176,323
905.421387,319
905.537537,332
905.653687,313
905.769775,325
905.885925,315
906.002014,334
906.118164,316
906.234314,319
906.350403,308
906.466492,319
906.582642,318
906.69873,322
906.814758,307
906.930908,325
907.046936,314
907.163086,323
907.279175,310
907.395264,309
907.511353,316
907.62738,322
907.743408,336
907.859497,321
907.975525,302
908.091553,326
908.207703,314
908.32373,325
908.439758,320
908.555786,302
908.671814,310
908.787842,316
908.90387,313
909.019775,324
909.135864,302
909.251892,308
909.367859,325
909.483826,325
909.599854,330
909.715881,322
909.831848,319
909.947815,320
910.063782,325
910.179749,313
910.295776,299
910.411743,318
910.527649,328
910.643616,308
910.759583,316
910.875488,331
910.991455,309
911.107361,314
911.223267,316
911.339294,333
911.4552,322
911.571106,330
911.687073,316
911.802979,321
911.918823,317
912.034729,311
912.150635,306
912.266602,313
912.382446,323
912.498352,327
912.614197,320
912.730103,333
912.846008,324
792.44574,308
792.56488,349
792.68396,397
792.80304,374
792.92218,334
793.041199,314
793.160339,329
793.279419,350
793.398499,335
793.517578,320
793.636658,327
793.755737,335
793.874817,361
793.993896,341
794.112976,347
794.232056,328
794.351074,343
794.470215,328
794.589233,328
794.708313,319
794.827393,321
794.946411,331
795.065552,346
795.18457,335
795.303589,341
795.422668,322
795.541687,340
795.660767,319
795.779846,332
795.898865,328
796.017883,326
796.136963,333
796.255981,345
796.375061,331
796.49408,327
796.613037,329
796.732117,363
796.851135,314
796.970154,330
797.089233,340
797.208191,334
797.327271,346
797.446228,328
797.565186,340
797.684265,332
797.803223,332
797.922241,328
798.04126,342
798.160278,334
798.279297,331
798.398315,322
798.517273,323
798.636292,345
798.75531,310
798.874268,341
798.993286,342
799.112244,334
799.231323,337
799.350281,335
799.469238,323
799.588257,347
799.707153,344
799.826111,341
799.945129,320
800.064087,340
800.183044,322
800.302063,337
800.421021,340
800.539978,332
800.658936,334
800.777893,322
800.896912,323
801.015747,326
801.134705,335
801.253723,331
801.37262,350
801.491638,333
801.610535,329
801.729492,332
801.84845,324
801.967407,338
802.086243,336
802.205261,327
802.324158,334
802.443115,339
802.562073,331
802.680969,336
802.799927,332
802.918762,336
803.037659,332
803.156677,326
803.275574,335
803.39447,332
803.513428,330
803.632263,335
803.751221,331
803.870117,325
803.989014,337
804.107971,332
804.226746,323
804.345642,322
804.4646,318
804.583496,339
804.702393,319
804.821228,335
804.940125,317
805.059021,330
805.177917,325
805.296814,326
805.415649,322
805.534546,340
805.653442,340
805.772278,323
805.891113,342
806.01001,341
806.128906,331
806.247742,330
806.366577,338
806.485413,338
806.604309,333
806.723145,334
806.84198,339
806.960876,324
807.079712,337
807.198486,324
807.317383,327
807.436218,335
807.554993,320
807.673889,331
807.792725,319
807.91156,327
808.030396,325
808.14917,337
808.268005,321
808.386841,333
808.505676,345
808.624451,342
808.743286,330
808.862122,335
808.980896,329
809.099731,353
809.218506,335
809.337341,341
809.456116,351
809.57489,346
809.693726,322
809.8125,327
809.931274,354
810.050049,327
810.168884,349
810.287659,335
810.406372,338
810.525269,336
810.643982,332
810.762756,336
810.881531,331
811.000305,345
811.11908,324
811.237854,342
811.356567,344
811.475403,343
811.594116,346
811.71283,317
811.831604,327
811.950378,344
812.069153,339
812.187927,341
812.30658,324
812.425415,340
812.544128,330
812.662781,345
812.781616,329
812.900269,326
813.019043,337
813.137756,349
813.256531,327
813.375244,328
813.493896,340
813.612671,340
813.731384,340
813.850037,341
813.96875,341
814.087524,330
814.206238,332
814.324951,330
814.443604,327
814.562256,340
814.68103,327
814.799683,339
814.918335,324
815.037109,330
815.155762,347
815.274475,325
815.393188,323
815.511841,334
815.630554,321
815.749146,335
815.867859,335
815.986572,323
816.105164,342
816.223877,332
816.342529,330
816.461182,334
816.579895,342
816.698486,334
816.817139,328
816.935791,340
817.054504,322
817.173096,341
817.291748,329
817.4104,326
817.529053,326
817.647644,340
817.766235,330
817.884949,324
818.00354,326
818.122192,323
818.240845,323
818.359436,325
818.478088,339
818.59668,336
818.715271,334
818.833923,337
818.952515,328
819.071106,329
819.189758,332
819.30835,316
819.426941,321
819.545532,327
819.664124,310
819.782715,325
819.901306,322
820.019897,334
820.138489,309
820.25708,325
820.375671,318
820.494202,329
820.612732,315
820.731384,312
820.849915,318
820.968506,333
821.087097,315
821.205627,319
821.324158,316
821.442749,323
821.561279,336
821.679871,319
821.798401,304
821.916931,306
822.035461,327
822.154053,329
822.272583,317
822.391174,325
822.509583,309
822.628174,326
822.746704,318
822.865234,329
822.983765,333
823.102295,326
823.220825,320
823.339294,327
823.457825,316
823.576355,316
823.694824,318
823.813354,317
823.931885,320
824.050354,318
824.168884,312
824.287354,324
824.405823,312
824.524353,330
824.642822,325
824.761353,317
824.879822,326
824.998291,315
825.116699,307
825.235291,324
825.353699,322
825.472168,318
825.590637,321
825.709106,326
825.827576,313
825.946045,317
826.064453,313
826.182983,327
826.301392,307
826.4198,329
826.53833,317
826.656738,312
826.775208,328
826.893677,317
827.012024,311
827.130493,303
827.248962,329
827.36731,318
827.485779,317
827.604248,310
827.722595,320
827.841064,311
827.959412,315
828.077942,324
828.196289,317
828.314636,325
828.433105,318
828.551514,306
828.669861,317
828.78833,318
828.906677,322
829.025085,327
829.143433,318
829.261841,308
829.38031,324
829.498657,324
829.617004,312
829.735413,310
829.85376,323
829.972107,318
830.090515,325
830.208862,321
830.327209,320
830.445557,321
830.563904,306
830.682312,336
830.800659,310
830.919006,325
831.037354,299
831.155701,331
831.274048,318
831.392395,320
831.51062,309
831.629028,322
831.747314,310
831.865662,323
831.984009,306
832.102356,309
832.220642,307
832.338928,329
832.457275,320
832.575623,310
832.693909,312
832.812134,325
832.930481,316
833.048828,318
833.167114,301
833.2854,320
833.403687,305
833.521973,332
833.640259,328
833.758545,319
833.876831,316
833.995056,324
834.113281,319
834.231628,317
834.349915,321
834.468201,318
834.586426,310
834.704651,319
834.822998,314
834.941162,306
835.059448,323
835.177673,315
835.295959,310
835.414246,319
835.53241,323
835.650635,320
835.768921,313
835.887146,330
836.005371,307
836.123596,316
836.241821,321
836.360046,317
836.478271,314
836.596497,316
836.714722,313
836.832886,313
836.95105,327
837.069336,329
837.1875,316
837.305725,322
837.423889,310
837.542053,325
837.660339,322
837.778503,332
837.896667,319
838.014832,321
838.132996,327
838.25116,329
838.369385,316
838.487488,314
838.605713,313
838.723877,318
838.84198,322
838.960205,322
839.078308,318
839.196472,312
839.314636,310
839.4328,317
839.550964,316
839.669067,320
839.787231,320
839.905396,313
840.023499,326
840.141602,319
840.259766,317
840.377869,329
840.495972,323
840.614136,317
840.732239,318
840.850342,320
840.968445,316
841.086548,317
841.204651,323
841.322754,325
841.440918,312
841.55896,326
841.677002,327
841.795166,330
841.913208,311
842.031311,319
842.149353,319
842.267456,325
842.385498,325
842.503601,313
842.621643,317
842.739746,314
842.857788,305
842.97583,325
843.093933,314
843.211975,312
843.330017,311
843.44812,319
843.566101,316
843.684204,308
843.802246,315
843.920227,319
844.038269,307
844.156311,325
844.274292,317
844.392395,318
844.510376,306
844.628357,328
844.74646,308
844.864441,318
844.982422,314
845.100403,310
845.218384,293
845.336426,329
845.454468,322
845.572449,313
845.69043,322
845.808411,326
845.926453,322
846.044373,318
846.162354,321
846.280396,321
846.398315,319
846.516296,327
846.634216,318
846.752197,304
846.870178,312
846.988098,328
847.106079,314
847.22406,306
847.34198,324
847.4599,319
847.577881,316
847.695801,315
847.813782,310
847.931641,320
848.049561,297
848.167603,316
848.285461,305
848.403381,320
848.521362,311
848.639221,331
848.75708,308
848.875,320
848.99292,317
849.110901,315
849.22876,322
849.34668,307
849.464539,305
849.582458,323
849.700317,316
849.818176,326
849.936096,311
850.053955,323
850.171875,322
850.289673,315
850.407593,318
850.525452,315
850.643311,319
850.761169,319
850.878967,310
850.996887,317
851.114746,314
851.232544,322
851.350403,311
851.468262,322
851.58606,320
851.703979,319
851.821777,317
851.939636,321
852.057434,316
852.175232,321
852.293091,316
852.410889,310
852.528687,300
852.646545,317
852.764343,312
852.88208,333
852.999939,319
853.117676,327
853.235535,316
853.353271,326
853.471069,300
853.588928,314
853.706604,315
853.824402,304
853.9422,312
854.059998,313
854.177734,317
854.295532,314
854.413269,313
854.531006,325
854.648804,310
854.766541,323
854.884277,311
855.002014,327
855.119751,318
855.237549,320
855.355225,304
855.473022,309
855.590698,324
855.708435,318
855.826172,300
855.943848,318
856.061646,333
856.179321,318
856.296997,311
856.414795,311
856.53241,307
856.650085,318
856.767822,315
856.885559,319
857.003174,312
857.120911,318
857.238586,293
857.356201,334
857.473938,318
857.591614,314
857.709351,312
857.826965,316
857.944641,325
858.062317,313
858.179993,313
858.297668,326
858.415283,319
858.532959,321
858.650574,321
858.768188,310
858.885803,314
859.003479,313
859.121094,302
859.23877,319
859.356384,308
859.473999,331
859.591675,313
859.709229,324
859.826843,308
859.944458,316
860.062012,315
860.179626,315
860.297302,302
860.414856,324
860.532471,316
860.650024,316
860.767639,311
860.885193,318
861.002808,317
861.120361,321
861.237976,327
861.35553,317
861.473022,315
861.590698,323
861.708191,313
861.825745,328
861.943298,303
862.060852,306
862.178406,325
862.295959,322
862.413513,320
862.531006,315
862.64856,314
862.766113,319
862.883667,309
863.00116,309
863.118713,321
863.236206,327
863.353699,306
863.471252,328
863.588745,320
863.706177,314
863.82373,306
863.941162,315
864.058716,317
864.176208,317
864.29364,323
864.411194,317
864.528687,320
864.646118,324
864.763611,314
864.881042,320
864.998535,316
865.116028,313
865.233459,325
865.350891,324
865.468384,312
865.585754,302
865.703308,317
865.820679,312
865.938171,314
866.055542,312
866.173035,326
866.290466,315
866.407837,319
866.52533,314
866.6427,307
866.760071,315
866.877563,314
866.994934,312
867.112305,319
867.229736,321
867.347107,313
867.464539,327
867.58197,320
867.699341,322
867.81665,319
867.934082,329
868.051453,319
868.168823,324
868.286194,311
868.403564,321
868.520935,308
868.638306,313
868.755676,328
868.872986,327
868.990295,317
869.107727,317
869.225037,324
869.342346,321
869.459717,313
869.577026,311
869.694336,302
869.811707,325
869.929016,311
870.046326,319
870.163635,308
870.280945,314
870.398254,322
870.515564,319
870.632812,306
870.750183,323
870.867432,320
870.984741,322
871.102051,319
871.219299,324
871.336609,305
871.453918,316
871.571106,324
871.688416,311
871.805664,320
871.922852,308
872.040222,317
872.157471,315
872.274719,317
872.391968,326
872.509155,317
872.626465,322
872.743652,307
872.860962,315
872.978149,301
873.095337,319
873.212646,311
873.329834,318
873.44696,299
873.564209,324
873.681396,311
873.798645,321
873.915894,312
874.03302,319
874.150208,304
874.267456,314
874.384583,310
874.501831,316
874.618958,324
874.736145,304
874.853333,311
874.970459,324
875.087646,309
875.204834,326
875.32196,312
875.439148,326
875.556274,304
875.673401,323
875.790527,318
875.907715,327
876.024841,324
876.141968,311
876.259094,311
876.376282,326
876.493347,309
876.610474,307
876.7276,318
876.844727,314
876.961853,311
877.078918,320
877.195984,313
877.313171,316
877.430237,316
877.547302,323
877.664368,318
877.781433,322
877.898499,310
878.015625,321
878.13269,317
878.249695,322
878.366821,318
878.483887,319
878.600952,325
878.717957,310
878.834961,312
878.952087,333
879.069092,307
879.186157,314
879.303162,303
879.420227,323
879.537231,309
879.654236,317
879.77124,310
879.888306,317
880.005249,316
880.122314,311
880.239319,313
880.356323,319
880.473328,309
880.590271,320
880.707275,325
880.824341,323
880.941284,319
881.058228,310
881.175232,324
881.292236,320
881.40918,303
881.526123,318
881.643066,318
881.760071,316
881.877014,312
881.993958,324
882.11084,307
882.227783,314
882.344727,320
882.46167,322
882.578613,304
882.695618,323
882.812439,319
882.929382,327
883.046326,311
883.163208,320
883.280151,309
883.397034,317
883.513916,318
883.630798,321
883.747742,329
883.864563,324
883.981506,312
884.098389,324
884.21521,313
884.332153,309
884.448975,325
884.565796,309
884.682678,306
884.7995,314
884.916443,322
885.033264,321
885.150085,309
885.266968,327
885.383789,313
885.500671,319
885.617493,322
885.734314,315
885.851196,314
885.967896,324
886.084717,316
886.201599,306
886.318359,316
886.435181,320
886.552002,318
886.668762,316
886.785645,308
886.902344,313
887.019165,318
887.135925,324
887.252747,316
887.369446,324
887.486267,315
887.603027,317
887.719788,311
887.836548,328
887.953247,310
888.070068,311
888.186829,320
888.303528,328
888.420288,318
888.536987,330
888.653687,306
888.770447,322
888.887146,300
889.003967,304
889.120667,316
889.237305,322
889.354065,307
889.470703,319
889.587463,325
889.704163,323
889.820862,313
889.937561,313
890.054199,319
890.170837,312
890.287598,305
890.404236,308
890.520874,317
890.637634,329
890.754211,308
890.87085,324
890.987549,308
891.104187,326
891.220886,308
891.337463,323
891.454102,313
891.57074,320
891.687378,315
891.804077,325
891.920654,297
892.037231,326
892.15387,316
892.270447,331
892.387085,314
892.503723,321
892.6203,311
892.736877,322
892.853516,304
892.970032,321
893.08667,320
893.203186,303
893.319763,310
893.43634,326
893.552917,312
893.669556,316
893.786011,312
893.902588,318
894.019165,320
894.135681,326
894.252197,318
894.368835,318
894.485291,307
894.601868,320
894.718384,317
894.8349,315
894.951355,313
895.067932,327
895.184448,302
895.300964,318
895.417419,314
895.533936,315
895.650452,309
895.766907,321
895.883423,321
895.999878,319
896.116333,316
896.232849,325
896.349304,315
896.465759,315
896.582214,312
896.698669,323
896.815125,319
896.931641,314
897.048035,307
897.164551,312
897.280884,309
897.397339,330
897.513794,313
897.630249,325
897.746582,315
897.863098,327
897.979431,321
898.095886,313
898.212341,317
898.328674,323
898.445129,314
898.561462,319
898.677795,322
898.794312,321
898.910645,316
899.026978,318
899.143433,304
899.259766,322
899.37616,313
899.492493,312
899.608765,308
899.725159,321
899.841553,318
899.957947,312
900.07428,315
900.190552,327
900.306946,307
900.423157,321
900.53949,326
900.655884,326
900.772156,310
900.888489,323
901.004822,329
901.121033,321
901.237366,311
901.353699,334
901.46991,308
901.586304,319
901.702515,332
901.818787,328
901.93512,314
902.051331,325
902.167603,314
902.283875,324
902.400085,304
902.516418,314
902.632629,315
902.74884,317
902.865112,320
902.981384,320
903.097595,314
903.213867,316
903.330017,308
903.446289,334
903.5625,320
903.67865,325
903.794922,314
903.911072,317
904.027344,307
904.143494,317
904.259705,320
904.375916,319
904.492065,324
904.608215,315
904.724426,317
904.840576,318
904.956726,318
905.072876,320
905.189087,314
905.305176,313
905.421387,320
905.537537,310
905.653687,325
905.769775,318
905.885925,306
906.002014,327
906.118164,310
906.234314,320
906.350403,315
906.466492,318
906.582642,307
906.69873,331
906.814758,332
906.930908,312
907.046936,324
907.163086,316
907.279175,311
907.395264,332
907.511353,298
907.62738,318
907.743408,302
907.859497,308
907.975525,316
908.091553,329
908.207703,310
908.32373,321
908.439758,320
908.555786,331
908.671814,310
908.787842,324
908.90387,315
909.019775,328
909.135864,331
909.251892,304
909.367859,300
909.483826,316
909.599854,315
909.715881,323
909.831848,329
909.947815,312
910.063782,321
910.179749,323
910.295776,313
910.411743,305
910.527649,322
910.643616,313
910.759583,317
910.875488,318
910.991455,305
911.107361,313
911.223267,325
911.339294,322
911.4552,312
911.571106,325
911.687073,301
911.802979,315
911.918823,314
912.034729,327
912.150635,313
912.266602,314
912.382446,315
912.498352,326
912.614197,302
912.730103,314
912.846008,322
792.44574,314
792.56488,354
792.68396,402
792.80304,385
792.92218,340
793.041199,329
793.160339,311
793.279419,351
793.398499,339
793.517578,321
793.636658,333
793.755737,336
793.874817,346
793.993896,348
794.112976,339
794.232056,338
794.351074,320
794.470215,331
794.589233,327
794.708313,332
794.827393,331
794.946411,335
795.065552,356
795.18457,342
795.303589,321
795.422668,332
795.541687,334
795.660767,329
795.779846,322
795.898865,339
796.017883,331
796.136963,340
796.255981,337
796.375061,329
796.49408,327
796.613037,329
796.732117,335
796.851135,349
796.970154,336
797.089233,328
797.208191,326
797.327271,328
797.446228,325
797.565186,347
797.684265,326
797.803223,339
797.922241,316
798.04126,337
798.160278,338
798.279297,335
798.398315,332
798.517273,331
798.636292,343
798.75531,326
798.874268,337
798.993286,324
799.112244,332
799.231323,328
799.350281,338
799.469238,331
799.588257,338
799.707153,325
799.826111,336
799.945129,331
800.064087,337
800.183044,327
800.302063,327
800.421021,335
800.539978,323
800.658936,342
800.777893,327
800.896912,336
801.015747,332
801.134705,331
801.253723,339
801.37262,329
801.491638,343
801.610535,339
801.729492,335
801.84845,331
801.967407,328
802.086243,338
802.205261,321
802.324158,341
802.443115,336
802.562073,347
802.680969,325
802.799927,319
802.918762,335
803.037659,325
803.156677,333
803.275574,321
803.39447,336
803.513428,337
803.632263,348
803.751221,331
803.870117,331
803.989014,336
804.107971,313
804.226746,322
804.345642,335
804.4646,335
804.583496,340
804.702393,332
804.821228,348
804.940125,341
805.059021,325
805.177917,324
805.296814,326
805.415649,334
805.534546,331
805.653442,341
805.772278,339
805.891113,334
806.01001,349
806.128906,333
806.247742,327
806.366577,348
806.485413,329
806.604309,345
806.723145,345
806.84198,327
806.960876,349
807.079712,334
807.198486,338
807.317383,337
807.436218,329
807.554993,319
807.673889,336
807.792725,334
807.91156,334
808.030396,317
808.14917,338
808.268005,330
808.386841,338
808.505676,349
808.624451,335
808.743286,324
808.862122,347
808.980896,322
809.099731,344
809.218506,332
809.337341,322
809.456116,338
809.57489,332
809.693726,326
809.8125,325
809.931274,335
810.050049,339
810.168884,326
810.287659,342
810.406372,339
810.525269,331
810.643982,349
810.762756,330
810.881531,319
811.000305,332
811.11908,327
811.237854,337
811.356567,344
811.475403,345
811.594116,337
811.71283,338
811.831604,335
811.950378,336
812.069153,351
812.187927,320
812.30658,334
812.425415,324
812.544128,333
812.662781,332
812.781616,339
812.900269,343
813.019043,329
813.137756,356
813.256531,327
813.375244,332
813.493896,350
813.612671,334
813.731384,325
813.850037,350
813.96875,337
814.087524,323
814.206238,341
814.324951,325
814.443604,331
814.562256,336
814.68103,341
814.799683,329
814.918335,339
815.037109,334
815.155762,341
815.274475,321
815.393188,333
815.511841,342
815.630554,332
815.749146,316
815.867859,344
815.986572,322
816.105164,321
816.223877,336
816.342529,336
816.461182,337
816.579895,338
816.698486,320
816.817139,354
816.935791,325
817.054504,332
817.173096,341
817.291748,333
817.4104,331
817.529053,337
817.647644,329
817.766235,334
817.884949,328
818.00354,333
818.122192,325
818.240845,328
818.359436,331
818.478088,313
818.59668,343
818.715271,311
818.833923,320
818.952515,309
819.071106,334
819.189758,324
819.30835,335
819.426941,329
819.545532,329
819.664124,325
819.782715,318
819.901306,323
820.019897,311
820.138489,331
820.25708,324
820.375671,313
820.494202,333
820.612732,322
820.731384,323
820.849915,311
820.968506,314
821.087097,315
821.205627,326
821.324158,328
821.442749,310
821.561279,323
821.679871,317
821.798401,324
821.916931,329
822.035461,314
822.154053,313
822.272583,329
822.391174,321
822.509583,321
822.628174,319
822.746704,339
822.865234,311
822.983765,325
823.102295,326
823.220825,328
823.339294,327
823.457825,329
823.576355,316
823.694824,319
823.813354,329
823.931885,315
824.050354,321
824.168884,324
824.287354,313
824.405823,319
824.524353,309
824.642822,326
824.761353,321
824.879822,312
824.998291,321
825.116699,307
825.235291,318
825.353699,328
825.472168,308
825.590637,322
825.709106,323
825.827576,332
825.946045,328
826.064453,321
826.182983,323
826.301392,319
826.4198,322
826.53833,317
826.656738,328
826.775208,319
826.893677,317
827.012024,318
827.130493,311
827.248962,323
827.36731,324
827.485779,311
827.604248,313
827.722595,312
827.841064,305
827.959412,336
828.077942,313
828.196289,309
828.314636,321
828.433105,318
828.551514,326
828.669861,324
828.78833,320
828.906677,334
829.025085,312
829.143433,326
829.261841,327
829.38031,313
829.498657,325
829.617004,321
829.735413,313
829.85376,314
829.972107,328
830.090515,319
830.208862,321
830.327209,312
830.445557,316
830.563904,315
830.682312,331
830.800659,329
830.919006,331
831.037354,308
831.155701,308
831.274048,331
831.392395,311
831.51062,320
831.629028,320
831.747314,314
831.865662,323
831.984009,315
832.102356,321
832.220642,319
832.338928,313
832.457275,313
832.575623,323
832.693909,318
832.812134,326
832.930481,313
833.048828,324
833.167114,311
833.2854,331
833.403687,316
833.521973,298
833.640259,313
833.758545,325
833.876831,318
833.995056,318
834.113281,310
834.231628,320
834.349915,317
834.468201,323
834.586426,328
834.704651,319
834.822998,315
834.941162,320
835.059448,327
835.177673,322
835.295959,326
835.414246,314
835.53241,314
835.650635,311
835.768921,327
835.887146,332
836.005371,324
836.123596,323
836.241821,322
836.360046,328
836.478271,320
836.596497,309
836.714722,320
836.832886,318
836.95105,325
837.069336,317
837.1875,330
837.305725,309
837.423889,317
837.542053,345
837.660339,310
837.778503,329
837.896667,314
838.014832,335
838.132996,316
838.25116,311
838.369385,307
838.487488,320
838.605713,319
838.723877,315
838.84198,308
838.960205,305
839.078308,319
839.196472,309
839.314636,313
839.4328,313
839.550964,317
839.669067,324
839.787231,342
839.905396,318
840.023499,314
840.141602,323
840.259766,322
840.377869,332
840.495972,325
840.614136,320
840.732239,306
840.850342,313
840.968445,318
841.086548,318
841.204651,316
841.322754,314
841.440918,316
841.55896,319
841.677002,323
841.795166,308
841.913208,314
842.031311,323
842.149353,316
842.267456,316
842.385498,309
842.503601,320
842.621643,320
842.739746,319
842.857788,314
842.97583,299
843.093933,311
843.211975,311
843.330017,313
843.44812,305
843.566101,309
843.684204,319
843.802246,316
843.920227,319
844.038269,315
844.156311,322
844.274292,317
844.392395,316
844.510376,311
844.628357,322
844.74646,304
844.864441,316
844.982422,313
845.100403,312
845.218384,320
845.336426,318
845.454468,316
845.572449,307
845.69043,320
845.808411,328
845.926453,306
846.044373,317
846.162354,324
846.280396,323
846.398315,331
846.516296,309
846.634216,319
846.752197,299
846.870178,319
846.988098,313
847.106079,321
847.22406,313
847.34198,307
847.4599,321
847.577881,310
847.695801,322
847.813782,323
847.931641,313
848.049561,326
848.167603,316
848.285461,298
848.403381,306
848.521362,309
848.639221,318
848.75708,331
848.875,308
848.99292,326
849.110901,313
849.22876,309
849.34668,320
849.464539,325
849.582458,313
849.700317,320
849.818176,322
849.936096,311
850.053955,324
850.171875,310
850.289673,323
850.407593,327
850.525452,302
850.643311,331
850.761169,307
850.878967,325
850.996887,317
851.114746,315
851.232544,307
851.350403,309
851.468262,321
851.58606,326
851.703979,323
851.821777,304
851.939636,310
852.057434,322
852.175232,322
852.293091,318
852.410889,314
852.528687,312
852.646545,308
852.764343,309
852.88208,328
852.999939,306
853.117676,307
853.235535,311
853.353271,318
853.471069,306
853.588928,309
853.706604,310
853.824402,318
853.9422,324
854.059998,317
854.177734,308
854.295532,327
854.413269,317
854.531006,312
854.648804,322
854.766541,309
854.884277,320
855.002014,307
855.119751,308
855.237549,332
855.355225,316
855.473022,305
855.590698,311
855.708435,314
855.826172,312
855.943848,314
856.061646,327
856.179321,321
856.296997,311
856.414795,299
856.53241,321
856.650085,312
856.767822,318
856.885559,327
857.003174,312
857.120911,310
857.238586,306
857.356201,311
857.473938,319
857.591614,325
857.709351,312
857.826965,311
857.944641,318
858.062317,310
858.179993,333
858.297668,319
858.415283,320
858.532959,308
858.650574,330
858.768188,312
858.885803,311
859.003479,322
859.121094,328
859.23877,320
859.356384,307
859.473999,314
859.591675,314
859.709229,310
859.826843,327
859.944458,302
860.062012,322
860.179626,319
860.297302,322
860.414856,322
860.532471,324
860.650024,324
860.767639,312
860.885193,312
861.002808,329
861.120361,319
861.237976,318
861.35553,312
861.473022,315
861.590698,307
861.708191,312
861.825745,323
861.943298,314
862.060852,324
862.178406,331
862.295959,317
862.413513,317
862.531006,312
862.64856,311
862.766113,304
862.883667,325
863.00116,318
863.118713,321
863.236206,335
863.353699,334
863.471252,312
863.588745,304
863.706177,302
863.82373,323
863.941162,300
864.058716,321
864.176208,310
864.29364,308
864.411194,324
864.528687,319
864.646118,313
864.763611,302
864.881042,313
864.998535,306
865.116028,317
865.233459,323
865.350891,315
865.468384,330
865.585754,313
865.703308,310
865.820679,313
865.938171,299
866.055542,328
866.173035,307
866.290466,315
866.407837,319
866.52533,301
866.6427,310
866.760071,328
866.877563,304
866.994934,311
867.112305,325
867.229736,314
867.347107,323
867.464539,303
867.58197,310
867.699341,310
867.81665,318
867.934082,310
868.051453,320
868.168823,310
868.286194,321
868.403564,319
868.520935,322
868.638306,311
868.755676,322
868.872986,314
868.990295,327
869.107727,318
869.225037,321
869.342346,311
869.459717,325
869.577026,314
869.694336,313
869.811707,323
869.929016,318
870.046326,316
870.163635,318
870.280945,314
870.398254,315
870.515564,315
870.632812,328
870.750183,304
870.867432,317
870.984741,316
871.102051,307
871.219299,308
871.336609,315
871.453918,326
871.571106,308
871.688416,326
871.805664,315
871.922852,323
872.040222,310
872.157471,310
872.274719,317
872.391968,315
872.509155,316
872.626465,305
872.743652,323
872.860962,301
872.978149,319
873.095337,316
873.212646,334
873.329834,304
873.44696,327
873.564209,313
873.681396,308
873.798645,299
873.915894,332
874.03302,326
874.150208,311
874.267456,304
874.384583,320
874.501831,322
874.618958,318
874.736145,298
874.853333,317
874.970459,318
875.087646,325
875.204834,321
875.32196,316
875.439148,318
875.556274,322
875.673401,310
875.790527,324
875.907715,325
876.024841,307
876.141968,313
876.259094,320
876.376282,315
876.493347,317
876.610474,326
876.7276,317
876.844727,309
876.961853,317
877.078918,306
877.195984,318
877.313171,316
877.430237,335
877.547302,317
877.664368,311
877.781433,320
877.898499,318
878.015625,319
878.13269,318
878.249695,314
878.366821,313
878.483887,307
878.600952,319
878.717957,323
878.834961,322
878.952087,325
879.069092,315
879.186157,312
879.303162,313
879.420227,306
879.537231,315
879.654236,315
879.77124,320
879.888306,317
880.005249,315
880.122314,307
880.239319,310
880.356323,324
880.473328,322
880.590271,319
880.707275,318
880.824341,320
880.941284,321
881.058228,314
881.175232,317
881.292236,319
881.40918,312
881.526123,314
881.643066,317
881.760071,316
881.877014,315
881.993958,324
882.11084,337
882.227783,309
882.344727,318
882.46167,323
882.578613,319
882.695618,324
882.812439,310
882.929382,298
883.046326,306
883.163208,317
883.280151,301
883.397034,306
883.513916,317
883.630798,311
883.747742,316
883.864563,314
883.981506,314
884.098389,314
884.21521,324
884.332153,302
884.448975,317
884.565796,308
884.682678,309
884.7995,310
884.916443,319
885.033264,305
885.150085,323
885.266968,319
885.383789,337
885.500671,316
885.617493,321
885.734314,317
885.851196,322
885.967896,319
886.084717,312
886.201599,321
886.318359,316
886.435181,310
886.552002,322
886.668762,317
886.785645,315
886.902344,307
887.019165,308
887.135925,320
887.252747,320
887.369446,314
887.486267,321
887.603027,305
887.719788,314
887.836548,317
887.953247,322
888.070068,320
888.186829,326
888.303528,328
888.420288,321
888.536987,326
888.653687,308
888.770447,320
888.887146,323
889.003967,314
889.120667,323
889.237305,327
889.354065,305
889.470703,320
889.587463,315
889.704163,342
889.820862,322
889.937561,302
890.054199,312
890.170837,317
890.287598,318
890.404236,322
890.520874,315
890.637634,314
890.754211,314
890.87085,317
890.987549,326
891.104187,304
891.220886,319
891.337463,315
891.454102,315
891.57074,319
891.687378,315
891.804077,304
891.920654,325
892.037231,317
892.15387,322
892.270447,316
892.387085,319
892.503723,315
892.6203,330
892.736877,313
892.853516,325
892.970032,294
893.08667,322
893.203186,320
893.319763,316
893.43634,323
893.552917,320
893.669556,292
893.786011,321
893.902588,312
894.019165,328
894.135681,314
894.252197,329
894.368835,306
894.485291,327
894.601868,309
894.718384,308
894.8349,310
894.951355,310
895.067932,304
895.184448,316
895.300964,324
895.417419,323
895.533936,318
895.650452,331
895.766907,317
895.883423,323
895.999878,321
896.116333,304
896.232849,316
896.349304,324
896.465759,308
896.582214,322
896.698669,303
896.815125,326
896.931641,313
897.048035,322
897.164551,329
897.280884,312
897.397339,322
897.513794,310
897.630249,305
897.746582,314
897.863098,319
897.979431,312
898.095886,303
898.212341,317
898.328674,305
898.445129,324
898.561462,315
898.677795,304
898.794312,314
898.910645,330
899.026978,318
899.143433,320
899.259766,306
899.37616,315
899.492493,327
899.608765,320
899.725159,313
899.841553,305
899.957947,305
900.07428,312
900.190552,311
900.306946,322
900.423157,299
900.53949,312
900.655884,309
900.772156,323
900.888489,324
901.004822,316
901.121033,297
901.237366,321
901.353699,322
901.46991,328
901.586304,315
901.702515,306
901.818787,317
901.93512,309
902.051331,310
902.167603,323
902.283875,315
902.400085,315
902.516418,319
902.632629,323
902.74884,324
902.865112,320
902.981384,306
903.097595,316
903.213867,317
903.330017,313
903.446289,306
903.5625,310
903.67865,332
903.794922,327
903.911072,320
904.027344,326
904.143494,306
904.259705,334
904.375916,299
904.492065,318
904.608215,329
904.724426,325
904.840576,312
904.956726,316
905.072876,328
905.189087,329
905.305176,314
905.421387,319
905.537537,316
905.653687,320
905.769775,308
905.885925,315
906.002014,328
906.118164,319
906.234314,308
906.350403,315
906.466492,320
906.582642,325
906.69873,320
906.814758,310
906.930908,315
907.046936,320
907.163086,310
907.279175,321
907.395264,319
907.511353,322
907.62738,300
907.743408,329
907.859497,317
907.975525,311
908.091553,324
908.207703,311
908.32373,328
908.439758,317
908.555786,303
908.671814,319
908.787842,311
908.90387,324
909.019775,307
909.135864,321
909.251892,312
909.367859,316
909.483826,332
909.599854,304
909.715881,309
909.831848,324
909.947815,332
910.063782,329
910.179749,323
910.295776,312
910.411743,330
910.527649,323
910.643616,324
910.759583,321
910.875488,316
910.991455,320
911.107361,317
911.223267,328
911.339294,322
911.4552,333
911.571106,322
911.687073,311
911.802979,314
911.918823,321
912.034729,315
912.150635,330
912.266602,307
912.382446,313
912.498352,317
912.614197,310
912.730103,316
912.846008,325
