792.44574,316
792.56488,353
792.68396,394
792.80304,389
792.92218,335
793.041199,316
793.160339,315
793.279419,327
793.398499,338
793.517578,315
793.636658,330
793.755737,336
793.874817,361
793.993896,335
794.112976,335
794.232056,321
794.351074,318
794.470215,328
794.589233,318
794.708313,308
794.827393,339
794.946411,320
795.065552,344
795.18457,351
795.303589,340
795.422668,327
795.541687,344
795.660767,342
795.779846,318
795.898865,332
796.017883,321
796.136963,322
796.255981,340
796.375061,328
796.49408,335
796.613037,320
796.732117,330
796.851135,344
796.970154,328
797.089233,323
797.208191,323
797.327271,333
797.446228,325
797.565186,335
797.684265,344
797.803223,333
797.922241,332
798.04126,326
798.160278,326
798.279297,340
798.398315,332
798.517273,325
798.636292,330
798.75531,334
798.874268,337
798.993286,327
799.112244,332
799.231323,333
799.350281,336
799.469238,329
799.588257,329
799.707153,322
799.826111,323
799.945129,334
800.064087,315
800.183044,336
800.302063,318
800.421021,343
800.539978,325
800.658936,318
800.777893,331
800.896912,331
801.015747,339
801.134705,331
801.253723,330
801.37262,335
801.491638,334
801.610535,331
801.729492,331
801.84845,337
801.967407,313
802.086243,343
802.205261,324
802.324158,328
802.443115,331
802.562073,318
802.680969,342
802.799927,327
802.918762,330
803.037659,334
803.156677,327
803.275574,323
803.39447,329
803.513428,323
803.632263,331
803.751221,342
803.870117,316
803.989014,324
804.107971,332
804.226746,319
804.345642,343
804.4646,329
804.583496,338
804.702393,331
804.821228,321
804.940125,335
805.059021,332
805.177917,320
805.296814,337
805.415649,336
805.534546,334
805.653442,331
805.772278,330
805.891113,328
806.01001,327
806.128906,336
806.247742,327
806.366577,316
806.485413,340
806.604309,333
806.723145,333
806.84198,336
806.960876,325
807.079712,329
807.198486,338
807.317383,326
807.436218,339
807.554993,329
807.673889,334
807.792725,339
807.91156,328
808.030396,326
808.14917,322
808.268005,329
808.386841,320
808.505676,343
808.624451,315
808.743286,336
808.862122,345
808.980896,345
809.099731,330
809.218506,331
809.337341,336
809.456116,323
809.57489,323
809.693726,340
809.8125,334
809.931274,341
810.050049,337
810.168884,325
810.287659,344
810.406372,333
810.525269,337
810.643982,341
810.762756,336
810.881531,334
811.000305,329
811.11908,334
811.237854,330
811.356567,327
811.475403,336
811.594116,326
811.71283,327
811.831604,328
811.950378,335
812.069153,321
812.187927,325
812.30658,335
812.425415,321
812.544128,340
812.662781,329
812.781616,331
812.900269,347
813.019043,339
813.137756,341
813.256531,340
813.375244,332
813.493896,327
813.612671,348
813.731384,330
813.850037,341
813.96875,324
814.087524,326
814.206238,334
814.324951,328
814.443604,330
814.562256,335
814.68103,332
814.799683,323
814.918335,338
815.037109,330
815.155762,319
815.274475,339
815.393188,327
815.511841,341
815.630554,327
815.749146,325
815.867859,329
815.986572,341
816.105164,323
816.223877,340
816.342529,336
816.461182,321
816.579895,338
816.698486,342
816.817139,333
816.935791,338
817.054504,334
817.173096,308
817.291748,339
817.4104,321
817.529053,325
817.647644,335
817.766235,326
817.884949,337
818.00354,325
818.122192,325
818.240845,332
818.359436,320
818.478088,328
818.59668,312
818.715271,320
818.833923,332
818.952515,340
819.071106,321
819.189758,332
819.30835,314
819.426941,325
819.545532,309
819.664124,326
819.782715,331
819.901306,326
820.019897,324
820.138489,319
820.25708,326
820.375671,319
820.494202,322
820.612732,316
820.731384,319
820.849915,323
820.968506,325
821.087097,315
821.205627,307
821.324158,326
821.442749,312
821.561279,315
821.679871,324
821.798401,316
821.916931,307
822.035461,324
822.154053,323
822.272583,315
822.391174,316
822.509583,320
822.628174,335
822.746704,326
822.865234,313
822.983765,309
823.102295,319
823.220825,315
823.339294,326
823.457825,335
823.576355,315
823.694824,337
823.813354,299
823.931885,328
824.050354,318
824.168884,329
824.287354,314
824.405823,323
824.524353,321
824.642822,296
824.761353,318
824.879822,322
824.998291,326
825.116699,316
825.235291,320
825.353699,315
825.472168,316
825.590637,325
825.709106,325
825.827576,323
825.946045,310
826.064453,308
826.182983,323
826.301392,313
826.4198,316
826.53833,307
826.656738,326
826.775208,313
826.893677,335
827.012024,310
827.130493,325
827.248962,324
827.36731,307
827.485779,314
827.604248,323
827.722595,314
827.841064,322
827.959412,319
828.077942,329
828.196289,311
828.314636,313
828.433105,319
828.551514,319
828.669861,320
828.78833,308
828.906677,309
829.025085,315
829.143433,326
829.261841,316
829.38031,313
829.498657,318
829.617004,319
829.735413,319
829.85376,324
829.972107,314
830.090515,319
830.208862,308
830.327209,326
830.445557,317
830.563904,307
830.682312,311
830.800659,317
830.919006,315
831.037354,312
831.155701,327
831.274048,316
831.392395,317
831.51062,310
831.629028,300
831.747314,322
831.865662,324
831.984009,331
832.102356,314
832.220642,318
832.338928,325
832.457275,308
832.575623,305
832.693909,312
832.812134,306
832.930481,304
833.048828,313
833.167114,318
833.2854,312
833.403687,328
833.521973,317
833.640259,314
833.758545,311
833.876831,325
833.995056,317
834.113281,318
834.231628,305
834.349915,323
834.468201,315
834.586426,319
834.704651,307
834.822998,317
834.941162,323
835.059448,323
835.177673,308
835.295959,303
835.414246,313
835.53241,331
835.650635,316
835.768921,308
835.887146,328
836.005371,315
836.123596,324
836.241821,324
836.360046,327
836.478271,315
836.596497,325
836.714722,302
836.832886,313
836.95105,319
837.069336,318
837.1875,320
837.305725,325
837.423889,322
837.542053,322
837.660339,326
837.778503,328
837.896667,318
838.014832,315
838.132996,311
838.25116,317
838.369385,328
838.487488,316
838.605713,320
838.723877,326
838.84198,331
838.960205,307
839.078308,305
839.196472,319
839.314636,309
839.4328,320
839.550964,320
839.669067,325
839.787231,319
839.905396,314
840.023499,321
840.141602,316
840.259766,312
840.377869,329
840.495972,318
840.614136,332
840.732239,319
840.850342,318
840.968445,328
841.086548,334
841.204651,322
841.322754,313
841.440918,322
841.55896,316
841.677002,318
841.795166,324
841.913208,310
842.031311,317
842.149353,310
842.267456,320
842.385498,321
842.503601,306
842.621643,319
842.739746,307
842.857788,321
842.97583,317
843.093933,326
843.211975,303
843.330017,319
843.44812,310
843.566101,303
843.684204,318
843.802246,333
843.920227,308
844.038269,329
844.156311,303
844.274292,324
844.392395,321
844.510376,309
844.628357,314
844.74646,323
844.864441,310
844.982422,315
845.100403,330
845.218384,311
845.336426,310
845.454468,309
845.572449,319
845.69043,314
845.808411,316
845.926453,311
846.044373,319
846.162354,322
846.280396,313
846.398315,319
846.516296,308
846.634216,316
846.752197,303
846.870178,325
846.988098,323
847.106079,324
847.22406,315
847.34198,311
847.4599,309
847.577881,314
847.695801,313
847.813782,306
847.931641,303
848.049561,321
848.167603,319
848.285461,311
848.403381,317
848.521362,314
848.639221,314
848.75708,320
848.875,312
848.99292,322
849.110901,305
849.22876,319
849.34668,311
849.464539,317
849.582458,300
849.700317,306
849.818176,313
849.936096,321
850.053955,305
850.171875,319
850.289673,315
850.407593,300
850.525452,326
850.643311,324
850.761169,311
850.878967,309
850.996887,304
851.114746,325
851.232544,312
851.350403,308
851.468262,297
851.58606,320
851.703979,307
851.821777,312
851.939636,329
852.057434,314
852.175232,317
852.293091,316
852.410889,304
852.528687,314
852.646545,312
852.764343,318
852.88208,320
852.999939,310
853.117676,316
853.235535,322
853.353271,318
853.471069,310
853.588928,304
853.706604,321
853.824402,323
853.9422,329
854.059998,315
854.177734,313
854.295532,310
854.413269,318
854.531006,315
854.648804,307
854.766541,304
854.884277,323
855.002014,314
855.119751,310
855.237549,314
855.355225,321
855.473022,325
855.590698,304
855.708435,317
855.826172,306
855.943848,323
856.061646,308
856.179321,301
856.296997,325
856.414795,324
856.53241,320
856.650085,326
856.767822,312
856.885559,318
857.003174,326
857.120911,308
857.238586,306
857.356201,309
857.473938,325
857.591614,323
857.709351,313
857.826965,321
857.944641,320
858.062317,325
858.179993,326
858.297668,303
858.415283,332
858.532959,309
858.650574,324
858.768188,309
858.885803,319
859.003479,328
859.121094,326
859.23877,314
859.356384,315
859.473999,319
859.591675,308
859.709229,307
859.826843,319
859.944458,312
860.062012,326
860.179626,304
860.297302,324
860.414856,317
860.532471,327
860.650024,309
860.767639,319
860.885193,319
861.002808,319
861.120361,321
861.237976,314
861.35553,307
861.473022,308
861.590698,318
861.708191,312
861.825745,317
861.943298,310
862.060852,312
862.178406,318
862.295959,317
862.413513,310
862.531006,300
862.64856,311
862.766113,324
862.883667,314
863.00116,306
863.118713,321
863.236206,326
863.353699,322
863.471252,306
863.588745,315
863.706177,319
863.82373,317
863.941162,312
864.058716,326
864.176208,319
864.29364,313
864.411194,307
864.528687,321
864.646118,311
864.763611,320
864.881042,320
864.998535,302
865.116028,330
865.233459,312
865.350891,311
865.468384,314
865.585754,320
865.703308,310
865.820679,308
865.938171,327
866.055542,319
866.173035,314
866.290466,309
866.407837,320
866.52533,314
866.6427,312
866.760071,320
866.877563,319
866.994934,312
867.112305,306
867.229736,325
867.347107,321
867.464539,314
867.58197,317
867.699341,302
867.81665,313
867.934082,310
868.051453,319
868.168823,320
868.286194,331
868.403564,311
868.520935,316
868.638306,314
868.755676,310
868.872986,308
868.990295,313
869.107727,295
869.225037,315
869.342346,324
869.459717,312
869.577026,307
869.694336,300
869.811707,308
869.929016,316
870.046326,316
870.163635,323
870.280945,316
870.398254,312
870.515564,321
870.632812,318
870.750183,316
870.867432,319
870.984741,318
871.102051,314
871.219299,304
871.336609,328
871.453918,320
871.571106,312
871.688416,321
871.805664,322
871.922852,302
872.040222,330
872.157471,321
872.274719,300
872.391968,313
872.509155,327
872.626465,300
872.743652,326
872.860962,316
872.978149,309
873.095337,316
873.212646,304
873.329834,311
873.44696,311
873.564209,309
873.681396,330
873.798645,315
873.915894,320
874.03302,323
874.150208,323
874.267456,311
874.384583,326
874.501831,323
874.618958,327
874.736145,299
874.853333,312
874.970459,311
875.087646,318
875.204834,315
875.32196,317
875.439148,314
875.556274,328
875.673401,317
875.790527,319
875.907715,304
876.024841,309
876.141968,323
876.259094,329
876.376282,324
876.493347,317
876.610474,323
876.7276,324
876.844727,310
876.961853,316
877.078918,308
877.195984,321
877.313171,315
877.430237,320
877.547302,311
877.664368,331
877.781433,315
877.898499,326
878.015625,309
878.13269,328
878.249695,321
878.366821,304
878.483887,326
878.600952,326
878.717957,320
878.834961,299
878.952087,320
879.069092,324
879.186157,307
879.303162,306
879.420227,309
879.537231,321
879.654236,311
879.77124,328
879.888306,310
880.005249,320
880.122314,320
880.239319,308
880.356323,312
880.473328,321
880.590271,306
880.707275,329
880.824341,314
880.941284,303
881.058228,316
881.175232,305
881.292236,303
881.40918,321
881.526123,325
881.643066,312
881.760071,306
881.877014,317
881.993958,308
882.11084,316
882.227783,314
882.344727,322
882.46167,307
882.578613,323
882.695618,306
882.812439,303
882.929382,309
883.046326,316
883.163208,304
883.280151,321
883.397034,314
883.513916,309
883.630798,315
883.747742,314
883.864563,332
883.981506,324
884.098389,311
884.21521,303
884.332153,314
884.448975,322
884.565796,315
884.682678,327
884.7995,314
884.916443,304
885.033264,314
885.150085,312
885.266968,321
885.383789,314
885.500671,320
885.617493,326
885.734314,308
885.851196,313
885.967896,304
886.084717,327
886.201599,312
886.318359,326
886.435181,309
886.552002,315
886.668762,318
886.785645,325
886.902344,319
887.019165,315
887.135925,318
887.252747,314
887.369446,319
887.486267,309
887.603027,319
887.719788,328
887.836548,324
887.953247,315
888.070068,328
888.186829,308
888.303528,309
888.420288,309
888.536987,319
888.653687,320
888.770447,301
888.887146,322
889.003967,313
889.120667,329
889.237305,307
889.354065,329
889.470703,321
889.587463,308
889.704163,323
889.820862,317
889.937561,333
890.054199,303
890.170837,322
890.287598,324
890.404236,317
890.520874,332
890.637634,320
890.754211,321
890.87085,310
890.987549,311
891.104187,308
891.220886,319
891.337463,300
891.454102,330
891.57074,315
891.687378,301
891.804077,326
891.920654,314
892.037231,303
892.15387,302
892.270447,304
892.387085,316
892.503723,316
892.6203,317
892.736877,305
892.853516,314
892.970032,323
893.08667,327
893.203186,316
893.319763,311
893.43634,323
893.552917,321
893.669556,316
893.786011,320
893.902588,310
894.019165,318
894.135681,309
894.252197,298
894.368835,318
894.485291,323
894.601868,308
894.718384,315
894.8349,317
894.951355,325
895.067932,313
895.184448,307
895.300964,320
895.417419,308
895.533936,322
895.650452,328
895.766907,314
895.883423,316
895.999878,315
896.116333,334
896.232849,307
896.349304,323
896.465759,322
896.582214,307
896.698669,325
896.815125,327
896.931641,314
897.048035,327
897.164551,318
897.280884,321
897.397339,324
897.513794,327
897.630249,314
897.746582,324
897.863098,318
897.979431,311
898.095886,321
898.212341,307
898.328674,323
898.445129,309
898.561462,325
898.677795,308
898.794312,309
898.910645,323
899.026978,319
899.143433,334
899.259766,320
899.37616,316
899.492493,319
899.608765,317
899.725159,325
899.841553,310
899.957947,324
900.07428,330
900.190552,324
900.306946,321
900.423157,329
900.53949,315
900.655884,307
900.772156,309
900.888489,321
901.004822,322
901.121033,311
901.237366,315
901.353699,317
901.46991,320
901.586304,322
901.702515,314
901.818787,320
901.93512,318
902.051331,317
902.167603,309
902.283875,307
902.400085,326
902.516418,322
902.632629,309
902.74884,316
902.865112,315
902.981384,313
903.097595,317
903.213867,309
903.330017,334
903.446289,321
903.5625,326
903.67865,324
903.794922,311
903.911072,303
904.027344,318
904.143494,313
904.259705,318
904.375916,316
904.492065,309
904.608215,328
904.724426,316
904.840576,322
904.956726,315
905.072876,303
905.189087,320
905.305176,322
905.421387,322
905.537537,317
905.653687,319
905.769775,323
905.885925,329
906.002014,304
906.118164,324
906.234314,308
906.350403,313
906.466492,319
906.582642,306
906.69873,322
906.814758,313
906.930908,317
907.046936,307
907.163086,322
907.279175,311
907.395264,314
907.511353,336
907.62738,329
907.743408,303
907.859497,301
907.975525,334
908.091553,316
908.207703,306
908.32373,316
908.439758,320
908.555786,318
908.671814,315
908.787842,292
908.90387,330
909.019775,316
909.135864,318
909.251892,329
909.367859,318
909.483826,321
909.599854,321
909.715881,309
909.831848,319
909.947815,312
910.063782,314
910.179749,311
910.295776,330
910.411743,319
910.527649,318
910.643616,307
910.759583,322
910.875488,320
910.991455,313
911.107361,309
911.223267,316
911.339294,306
911.4552,327
911.571106,312
911.687073,318
911.802979,321
911.918823,324
912.034729,325
912.150635,308
912.266602,311
912.382446,321
912.498352,315
912.614197,317
912.730103,313
912.846008,318
792.44574,307
792.56488,346
792.68396,404
792.80304,388
792.92218,329
793.041199,310
793.160339,325
793.279419,337
793.398499,331
793.517578,327
793.636658,330
793.755737,344
793.874817,356
793.993896,346
794.112976,332
794.232056,322
794.351074,322
794.470215,319
794.589233,345
794.708313,326
794.827393,348
794.946411,333
795.065552,346
795.18457,333
795.303589,336
795.422668,338
795.541687,330
795.660767,335
795.779846,328
795.898865,318
796.017883,345
796.136963,333
796.255981,326
796.375061,317
796.49408,345
796.613037,324
796.732117,329
796.851135,334
796.970154,316
797.089233,322
797.208191,326
797.327271,330
797.446228,322
797.565186,329
797.684265,330
797.803223,317
797.922241,329
798.04126,315
798.160278,341
798.279297,340
798.398315,340
798.517273,331
798.636292,336
798.75531,342
798.874268,329
798.993286,332
799.112244,331
799.231323,328
799.350281,330
799.469238,336
799.588257,333
799.707153,323
799.826111,329
799.945129,318
800.064087,332
800.183044,332
800.302063,325
800.421021,327
800.539978,339
800.658936,316
800.777893,335
800.896912,327
801.015747,333
801.134705,323
801.253723,333
801.37262,316
801.491638,324
801.610535,328
801.729492,322
801.84845,327
801.967407,333
802.086243,327
802.205261,331
802.324158,334
802.443115,330
802.562073,322
802.680969,329
802.799927,340
802.918762,323
803.037659,328
803.156677,335
803.275574,322
803.39447,324
803.513428,328
803.632263,320
803.751221,329
803.870117,331
803.989014,342
804.107971,336
804.226746,329
804.345642,340
804.4646,341
804.583496,324
804.702393,332
804.821228,332
804.940125,319
805.059021,326
805.177917,330
805.296814,336
805.415649,341
805.534546,328
805.653442,332
805.772278,329
805.891113,321
806.01001,323
806.128906,334
806.247742,331
806.366577,328
806.485413,332
806.604309,323
806.723145,324
806.84198,329
806.960876,339
807.079712,328
807.198486,319
807.317383,323
807.436218,317
807.554993,316
807.673889,324
807.792725,333
807.91156,335
808.030396,343
808.14917,323
808.268005,335
808.386841,318
808.505676,338
808.624451,329
808.743286,333
808.862122,336
808.980896,342
809.099731,340
809.218506,331
809.337341,324
809.456116,332
809.57489,323
809.693726,331
809.8125,328
809.931274,332
810.050049,324
810.168884,332
810.287659,332
810.406372,333
810.525269,323
810.643982,324
810.762756,326
810.881531,317
811.000305,334
811.11908,329
811.237854,326
811.356567,327
811.475403,326
811.594116,329
811.71283,332
811.831604,329
811.950378,332
812.069153,335
812.187927,348
812.30658,336
812.425415,342
812.544128,329
812.662781,334
812.781616,318
812.900269,319
813.019043,338
813.137756,331
813.256531,325
813.375244,334
813.493896,327
813.612671,324
813.731384,330
813.850037,330
813.96875,321
814.087524,332
814.206238,324
814.324951,340
814.443604,327
814.562256,329
814.68103,337
814.799683,347
814.918335,335
815.037109,342
815.155762,339
815.274475,330
815.393188,325
815.511841,339
815.630554,328
815.749146,343
815.867859,333
815.986572,339
816.105164,316
816.223877,344
816.342529,307
816.461182,334
816.579895,331
816.698486,325
816.817139,330
816.935791,331
817.054504,335
817.173096,337
817.291748,337
817.4104,337
817.529053,326
817.647644,322
817.766235,318
817.884949,318
818.00354,334
818.122192,316
818.240845,326
818.359436,328
818.478088,330
818.59668,317
818.715271,319
818.833923,335
818.952515,319
819.071106,325
819.189758,313
819.30835,317
819.426941,337
819.545532,324
819.664124,328
819.782715,325
819.901306,337
820.019897,307
820.138489,322
820.25708,327
820.375671,324
820.494202,336
820.612732,328
820.731384,307
820.849915,312
820.968506,311
821.087097,313
821.205627,331
821.324158,317
821.442749,312
821.561279,322
821.679871,331
821.798401,324
821.916931,334
822.035461,320
822.154053,324
822.272583,313
822.391174,309
822.509583,319
822.628174,320
822.746704,314
822.865234,321
822.983765,320
823.102295,322
823.220825,307
823.339294,323
823.457825,310
823.576355,319
823.694824,327
823.813354,313
823.931885,313
824.050354,303
824.168884,323
824.287354,322
824.405823,314
824.524353,315
824.642822,311
824.761353,311
824.879822,318
824.998291,306
825.116699,330
825.235291,315
825.353699,322
825.472168,314
825.590637,309
825.709106,350
825.827576,319
825.946045,314
826.064453,317
826.182983,307
826.301392,317
826.4198,312
826.53833,302
826.656738,328
826.775208,304
826.893677,312
827.012024,316
827.130493,312
827.248962,328
827.36731,312
827.485779,312
827.604248,314
827.722595,311
827.841064,324
827.959412,324
828.077942,307
828.196289,313
828.314636,312
828.433105,319
828.551514,320
828.669861,320
828.78833,320
828.906677,314
829.025085,332
829.143433,316
829.261841,314
829.38031,314
829.498657,315
829.617004,317
829.735413,325
829.85376,299
829.972107,310
830.090515,317
830.208862,319
830.327209,329
830.445557,310
830.563904,308
830.682312,316
830.800659,315
830.919006,319
831.037354,319
831.155701,313
831.274048,316
831.392395,316
831.51062,311
831.629028,322
831.747314,320
831.865662,307
831.984009,326
832.102356,305
832.220642,319
832.338928,326
832.457275,314
832.575623,322
832.693909,315
832.812134,310
832.930481,316
833.048828,316
833.167114,313
833.2854,318
833.403687,314
833.521973,323
833.640259,317
833.758545,309
833.876831,304
833.995056,318
834.113281,317
834.231628,323
834.349915,315
834.468201,309
834.586426,322
834.704651,331
834.822998,309
834.941162,322
835.059448,304
835.177673,317
835.295959,320
835.414246,318
835.53241,301
835.650635,311
835.768921,322
835.887146,311
836.005371,322
836.123596,307
836.241821,314
836.360046,313
836.478271,321
836.596497,324
836.714722,318
836.832886,327
836.95105,304
837.069336,315
837.1875,318
837.305725,321
837.423889,304
837.542053,327
837.660339,304
837.778503,336
837.896667,323
838.014832,321
838.132996,322
838.25116,312
838.369385,323
838.487488,319
838.605713,313
838.723877,314
838.84198,311
838.960205,326
839.078308,328
839.196472,317
839.314636,312
839.4328,318
839.550964,318
839.669067,320
839.787231,323
839.905396,322
840.023499,317
840.141602,319
840.259766,314
840.377869,324
840.495972,309
840.614136,311
840.732239,317
840.850342,333
840.968445,309
841.086548,327
841.204651,317
841.322754,316
841.440918,318
841.55896,321
841.677002,311
841.795166,320
841.913208,322
842.031311,316
842.149353,312
842.267456,302
842.385498,309
842.503601,323
842.621643,305
842.739746,316
842.857788,312
842.97583,307
843.093933,313
843.211975,320
843.330017,322
843.44812,313
843.566101,315
843.684204,306
843.802246,309
843.920227,300
844.038269,319
844.156311,323
844.274292,310
844.392395,316
844.510376,309
844.628357,324
844.74646,306
844.864441,314
844.982422,317
845.100403,313
845.218384,308
845.336426,308
845.454468,306
845.572449,316
845.69043,304
845.808411,312
845.926453,304
846.044373,321
846.162354,310
846.280396,313
846.398315,307
846.516296,309
846.634216,313
846.752197,309
846.870178,319
846.988098,313
847.106079,316
847.22406,311
847.34198,320
847.4599,318
847.577881,307
847.695801,298
847.813782,317
847.931641,316
848.049561,302
848.167603,309
848.285461,317
848.403381,324
848.521362,307
848.639221,316
848.75708,304
848.875,321
848.99292,332
849.110901,315
849.22876,299
849.34668,313
849.464539,319
849.582458,318
849.700317,301
849.818176,308
849.936096,317
850.053955,312
850.171875,328
850.289673,317
850.407593,320
850.525452,319
850.643311,315
850.761169,325
850.878967,320
850.996887,324
851.114746,313
851.232544,327
851.350403,311
851.468262,299
851.58606,318
851.703979,311
851.821777,304
851.939636,337
852.057434,311
852.175232,323
852.293091,301
852.410889,305
852.528687,307
852.646545,325
852.764343,318
852.88208,327
852.999939,298
853.117676,335
853.235535,314
853.353271,319
853.471069,306
853.588928,303
853.706604,313
853.824402,319
853.9422,302
854.059998,317
854.177734,311
854.295532,316
854.413269,308
854.531006,305
854.648804,318
854.766541,317
854.884277,299
855.002014,325
855.119751,314
855.237549,307
855.355225,301
855.473022,321
855.590698,327
855.708435,307
855.826172,305
855.943848,307
856.061646,306
856.179321,317
856.296997,311
856.414795,322
856.53241,331
856.650085,303
856.767822,311
856.885559,310
857.003174,301
857.120911,304
857.238586,315
857.356201,315
857.473938,309
857.591614,324
857.709351,320
857.826965,314
857.944641,318
858.062317,321
858.179993,318
858.297668,296
858.415283,308
858.532959,315
858.650574,293
858.768188,319
858.885803,313
859.003479,297
859.121094,303
859.23877,322
859.356384,305
859.473999,314
859.591675,312
859.709229,322
859.826843,313
859.944458,314
860.062012,305
860.179626,317
860.297302,325
860.414856,312
860.532471,314
860.650024,307
860.767639,317
860.885193,306
861.002808,305
861.120361,321
861.237976,310
861.35553,322
861.473022,301
861.590698,309
861.708191,314
861.825745,302
861.943298,309
862.060852,315
862.178406,303
862.295959,316
862.413513,308
862.531006,315
862.64856,310
862.766113,316
862.883667,310
863.00116,315
863.118713,304
863.236206,317
863.353699,302
863.471252,317
863.588745,316
863.706177,321
863.82373,295
863.941162,320
864.058716,314
864.176208,312
864.29364,321
864.411194,314
864.528687,311
864.646118,332
864.763611,314
864.881042,310
864.998535,309
865.116028,312
865.233459,299
865.350891,320
865.468384,309
865.585754,332
865.703308,305
865.820679,327
865.938171,312
866.055542,328
866.173035,305
866.290466,315
866.407837,322
866.52533,327
866.6427,324
866.760071,304
866.877563,313
866.994934,319
867.112305,315
867.229736,309
867.347107,315
867.464539,314
867.58197,313
867.699341,322
867.81665,319
867.934082,333
868.051453,316
868.168823,324
868.286194,307
868.403564,319
868.520935,307
868.638306,322
868.755676,316
868.872986,320
868.990295,309
869.107727,320
869.225037,315
869.342346,315
869.459717,308
869.577026,304
869.694336,318
869.811707,315
869.929016,314
870.046326,313
870.163635,308
870.280945,321
870.398254,302
870.515564,325
870.632812,315
870.750183,317
870.867432,300
870.984741,317
871.102051,309
871.219299,315
871.336609,319
871.453918,322
871.571106,307
871.688416,313
871.805664,319
871.922852,321
872.040222,304
872.157471,319
872.274719,298
872.391968,315
872.509155,316
872.626465,325
872.743652,310
872.860962,298
872.978149,310
873.095337,311
873.212646,308
873.329834,309
873.44696,319
873.564209,307
873.681396,314
873.798645,328
873.915894,311
874.03302,324
874.150208,313
874.267456,315
874.384583,309
874.501831,315
874.618958,317
874.736145,321
874.853333,319
874.970459,314
875.087646,319
875.204834,312
875.32196,291
875.439148,325
875.556274,311
875.673401,313
875.790527,322
875.907715,313
876.024841,318
876.141968,316
876.259094,314
876.376282,308
876.493347,317
876.610474,310
876.7276,319
876.844727,316
876.961853,307
877.078918,312
877.195984,309
877.313171,318
877.430237,297
877.547302,309
877.664368,314
877.781433,320
877.898499,322
878.015625,309
878.13269,309
878.249695,319
878.366821,311
878.483887,319
878.600952,318
878.717957,322
878.834961,305
878.952087,310
879.069092,310
879.186157,321
879.303162,314
879.420227,310
879.537231,308
879.654236,329
879.77124,302
879.888306,324
880.005249,305
880.122314,319
880.239319,311
880.356323,315
880.473328,309
880.590271,326
880.707275,304
880.824341,315
880.941284,311
881.058228,311
881.175232,312
881.292236,314
881.40918,305
881.526123,300
881.643066,308
881.760071,304
881.877014,307
881.993958,328
882.11084,306
882.227783,322
882.344727,302
882.46167,315
882.578613,306
882.695618,309
882.812439,302
882.929382,324
883.046326,303
883.163208,313
883.280151,300
883.397034,314
883.513916,306
883.630798,318
883.747742,318
883.864563,311
883.981506,304
884.098389,324
884.21521,328
884.332153,305
884.448975,313
884.565796,323
884.682678,308
884.7995,297
884.916443,314
885.033264,316
885.150085,315
885.266968,328
885.383789,307
885.500671,322
885.617493,312
885.734314,321
885.851196,304
885.967896,329
886.084717,310
886.201599,315
886.318359,310
886.435181,315
886.552002,320
886.668762,304
886.785645,305
886.902344,302
887.019165,311
887.135925,318
887.252747,313
887.369446,321
887.486267,310
887.603027,305
887.719788,319
887.836548,316
887.953247,309
888.070068,326
888.186829,322
888.303528,319
888.420288,300
888.536987,326
888.653687,323
888.770447,329
888.887146,321
889.003967,327
889.120667,319
889.237305,317
889.354065,306
889.470703,315
889.587463,307
889.704163,304
889.820862,304
889.937561,316
890.054199,316
890.170837,333
890.287598,303
890.404236,310
890.520874,305
890.637634,320
890.754211,311
890.87085,330
890.987549,314
891.104187,319
891.220886,331
891.337463,323
891.454102,310
891.57074,319
891.687378,316
891.804077,303
891.920654,314
892.037231,317
892.15387,309
892.270447,313
892.387085,307
892.503723,320
892.6203,313
892.736877,323
892.853516,311
892.970032,317
893.08667,320
893.203186,314
893.319763,321
893.43634,321
893.552917,312
893.669556,309
893.786011,310
893.902588,313
894.019165,311
894.135681,323
894.252197,308
894.368835,314
894.485291,321
894.601868,312
894.718384,302
894.8349,325
894.951355,309
895.067932,311
895.184448,319
895.300964,325
895.417419,316
895.533936,314
895.650452,323
895.766907,324
895.883423,312
895.999878,323
896.116333,308
896.232849,324
896.349304,299
896.465759,314
896.582214,300
896.698669,305
896.815125,310
896.931641,312
897.048035,305
897.164551,327
897.280884,309
897.397339,313
897.513794,316
897.630249,310
897.746582,321
897.863098,318
897.979431,314
898.095886,311
898.212341,312
898.328674,322
898.445129,309
898.561462,324
898.677795,320
898.794312,320
898.910645,303
899.026978,318
899.143433,318
899.259766,321
899.37616,311
899.492493,331
899.608765,298
899.725159,340
899.841553,317
899.957947,335
900.07428,313
900.190552,318
900.306946,307
900.423157,315
900.53949,308
900.655884,318
900.772156,312
900.888489,316
901.004822,321
901.121033,318
901.237366,309
901.353699,315
901.46991,310
901.586304,312
901.702515,315
901.818787,333
901.93512,305
902.051331,330
902.167603,315
902.283875,332
902.400085,313
902.516418,318
902.632629,322
902.74884,320
902.865112,327
902.981384,323
903.097595,302
903.213867,323
903.330017,311
903.446289,313
903.5625,317
903.67865,323
903.794922,329
903.911072,314
904.027344,316
904.143494,325
904.259705,307
904.375916,309
904.492065,314
904.608215,320
904.724426,297
904.840576,310
904.956726,309
905.072876,327
905.189087,308
905.305176,326
905.421387,315
905.537537,305
905.653687,309
905.769775,319
905.885925,326
906.002014,308
906.118164,317
906.234314,305
906.350403,317
906.466492,312
906.582642,311
906.69873,320
906.814758,323
906.930908,324
907.046936,322
907.163086,313
907.279175,327
907.395264,315
907.511353,304
907.62738,317
907.743408,305
907.859497,326
907.975525,306
908.091553,324
908.207703,318
908.32373,318
908.439758,301
908.555786,321
908.671814,310
908.787842,325
908.90387,308
909.019775,312
909.135864,315
909.251892,317
909.367859,327
909.483826,312
909.599854,320
909.715881,317
909.831848,319
909.947815,320
910.063782,308
910.179749,319
910.295776,323
910.411743,321
910.527649,322
910.643616,315
910.759583,313
910.875488,311
910.991455,314
911.107361,325
911.223267,319
911.339294,317
911.4552,307
911.571106,300
911.687073,322
911.802979,303
911.918823,314
912.034729,309
912.150635,313
912.266602,317
912.382446,303
912.498352,325
912.614197,310
912.730103,329
912.846008,308
792.44574,318
792.56488,343
792.68396,395
792.80304,387
792.92218,323
793.041199,317
793.160339,313
793.279419,338
793.398499,342
793.517578,304
793.636658,320
793.755737,337
793.874817,352
793.993896,341
794.112976,344
794.232056,313
794.351074,328
794.470215,334
794.589233,334
794.708313,323
794.827393,321
794.946411,335
795.065552,339
795.18457,336
795.303589,330
795.422668,321
795.541687,347
795.660767,335
795.779846,335
795.898865,316
796.017883,337
796.136963,335
796.255981,332
796.375061,325
796.49408,334
796.613037,345
796.732117,344
796.851135,329
796.970154,332
797.089233,334
797.208191,342
797.327271,333
797.446228,329
797.565186,326
797.684265,335
797.803223,315
797.922241,326
798.04126,324
798.160278,315
798.279297,330
798.398315,343
798.517273,342
798.636292,335
798.75531,327
798.874268,334
798.993286,344
799.112244,324
799.231323,327
799.350281,319
799.469238,330
799.588257,320
799.707153,326
799.826111,338
799.945129,344
800.064087,325
800.183044,327
800.302063,321
800.421021,323
800.539978,318
800.658936,333
800.777893,332
800.896912,335
801.015747,328
801.134705,323
801.253723,338
801.37262,321
801.491638,334
801.610535,322
801.729492,338
801.84845,327
801.967407,319
802.086243,318
802.205261,341
802.324158,309
802.443115,319
802.562073,327
802.680969,337
802.799927,321
802.918762,339
803.037659,329
803.156677,335
803.275574,318
803.39447,327
803.513428,333
803.632263,329
803.751221,338
803.870117,326
803.989014,330
804.107971,312
804.226746,330
804.345642,334
804.4646,323
804.583496,327
804.702393,322
804.821228,334
804.940125,338
805.059021,332
805.177917,333
805.296814,317
805.415649,322
805.534546,331
805.653442,321
805.772278,346
805.891113,336
806.01001,336
806.128906,332
806.247742,335
806.366577,329
806.485413,331
806.604309,352
806.723145,333
806.84198,332
806.960876,314
807.079712,339
807.198486,337
807.317383,332
807.436218,331
807.554993,332
807.673889,326
807.792725,339
807.91156,329
808.030396,346
808.14917,328
808.268005,325
808.386841,325
808.505676,340
808.624451,326
808.743286,335
808.862122,322
808.980896,322
809.099731,336
809.218506,332
809.337341,345
809.456116,318
809.57489,346
809.693726,329
809.8125,333
809.931274,341
810.050049,328
810.168884,334
810.287659,331
810.406372,330
810.525269,320
810.643982,333
810.762756,323
810.881531,323
811.000305,334
811.11908,324
811.237854,340
811.356567,345
811.475403,331
811.594116,337
811.71283,331
811.831604,321
811.950378,331
812.069153,326
812.187927,346
812.30658,332
812.425415,333
812.544128,336
812.662781,330
812.781616,338
812.900269,336
813.019043,336
813.137756,337
813.256531,333
813.375244,320
813.493896,336
813.612671,340
813.731384,323
813.850037,332
813.96875,329
814.087524,336
814.206238,318
814.324951,332
814.443604,347
814.562256,333
814.68103,333
814.799683,335
814.918335,326
815.037109,333
815.155762,337
815.274475,354
815.393188,331
815.511841,332
815.630554,328
815.749146,324
815.867859,326
815.986572,335
816.105164,330
816.223877,336
816.342529,325
816.461182,328
816.579895,335
816.698486,326
816.817139,331
816.935791,330
817.054504,338
817.173096,333
817.291748,334
817.4104,329
817.529053,326
817.647644,337
817.766235,332
817.884949,334
818.00354,328
818.122192,343
818.240845,326
818.359436,329
818.478088,323
818.59668,326
818.715271,314
818.833923,318
818.952515,330
819.071106,335
819.189758,322
819.30835,319
819.426941,305
819.545532,317
819.664124,313
819.782715,313
819.901306,312
820.019897,333
820.138489,308
820.25708,326
820.375671,309
820.494202,314
820.612732,315
820.731384,328
820.849915,312
820.968506,324
821.087097,323
821.205627,303
821.324158,319
821.442749,316
821.561279,326
821.679871,315
821.798401,320
821.916931,326
822.035461,319
822.154053,320
822.272583,319
822.391174,326
822.509583,309
822.628174,321
822.746704,313
822.865234,330
822.983765,307
823.102295,324
823.220825,318
823.339294,329
823.457825,307
823.576355,313
823.694824,323
823.813354,303
823.931885,313
824.050354,329
824.168884,316
824.287354,334
824.405823,320
824.524353,315
824.642822,333
824.761353,330
824.879822,313
824.998291,323
825.116699,333
825.235291,319
825.353699,317
825.472168,322
825.590637,326
825.709106,321
825.827576,323
825.946045,310
826.064453,312
826.182983,315
826.301392,313
826.4198,310
826.53833,315
826.656738,323
826.775208,331
826.893677,321
827.012024,310
827.130493,323
827.248962,319
827.36731,330
827.485779,306
827.604248,322
827.722595,308
827.841064,320
827.959412,303
828.077942,314
828.196289,319
828.314636,327
828.433105,308
828.551514,312
828.669861,314
828.78833,321
828.906677,312
829.025085,328
829.143433,321
829.261841,322
829.38031,334
829.498657,308
829.617004,321
829.735413,315
829.85376,308
829.972107,325
830.090515,315
830.208862,316
830.327209,314
830.445557,304
830.563904,313
830.682312,321
830.800659,312
830.919006,332
831.037354,310
831.155701,325
831.274048,320
831.392395,315
831.51062,325
831.629028,307
831.747314,312
831.865662,314
831.984009,312
832.102356,320
832.220642,313
832.338928,310
832.457275,327
832.575623,315
832.693909,323
832.812134,342
832.930481,306
833.048828,321
833.167114,313
833.2854,326
833.403687,318
833.521973,308
833.640259,313
833.758545,323
833.876831,304
833.995056,313
834.113281,287
834.231628,327
834.349915,303
834.468201,310
834.586426,316
834.704651,319
834.822998,307
834.941162,312
835.059448,318
835.177673,315
835.295959,307
835.414246,321
835.53241,316
835.650635,311
835.768921,323
835.887146,315
836.005371,319
836.123596,332
836.241821,321
836.360046,311
836.478271,313
836.596497,320
836.714722,299
836.832886,328
836.95105,329
837.069336,317
837.1875,306
837.305725,315
837.423889,325
837.542053,324
837.660339,313
837.778503,316
837.896667,315
838.014832,309
838.132996,323
838.25116,328
838.369385,320
838.487488,327
838.605713,322
838.723877,324
838.84198,315
838.960205,321
839.078308,305
839.196472,314
839.314636,321
839.4328,310
839.550964,298
839.669067,324
839.787231,305
839.905396,306
840.023499,319
840.141602,331
840.259766,309
840.377869,312
840.495972,315
840.614136,314
840.732239,331
840.850342,319
840.968445,324
841.086548,326
841.204651,325
841.322754,314
841.440918,305
841.55896,307
841.677002,320
841.795166,329
841.913208,313
842.031311,330
842.149353,328
842.267456,317
842.385498,309
842.503601,328
842.621643,315
842.739746,326
842.857788,325
842.97583,310
843.093933,296
843.211975,320
843.330017,303
843.44812,316
843.566101,314
843.684204,309
843.802246,332
843.920227,316
844.038269,318
844.156311,304
844.274292,312
844.392395,320
844.510376,326
844.628357,327
844.74646,318
844.864441,314
844.982422,307
845.100403,330
845.218384,312
845.336426,330
845.454468,323
845.572449,319
845.69043,312
845.808411,306
845.926453,307
846.044373,323
846.162354,312
846.280396,316
846.398315,302
846.516296,310
846.634216,312
846.752197,308
846.870178,330
846.988098,306
847.106079,318
847.22406,317
847.34198,320
847.4599,332
847.577881,308
847.695801,309
847.813782,312
847.931641,316
848.049561,313
848.167603,308
848.285461,302
848.403381,317
848.521362,298
848.639221,320
848.75708,321
848.875,312
848.99292,318
849.110901,316
849.22876,313
849.34668,327
849.464539,311
849.582458,312
849.700317,313
849.818176,318
849.936096,313
850.053955,323
850.171875,310
850.289673,325
850.407593,303
850.525452,320
850.643311,302
850.761169,333
850.878967,314
850.996887,314
851.114746,325
851.232544,325
851.350403,325
851.468262,316
851.58606,313
851.703979,318
851.821777,313
851.939636,318
852.057434,322
852.175232,310
852.293091,319
852.410889,317
852.528687,306
852.646545,328
852.764343,312
852.88208,326
852.999939,314
853.117676,334
853.235535,315
853.353271,319
853.471069,312
853.588928,324
853.706604,320
853.824402,324
853.9422,303
854.059998,329
854.177734,298
854.295532,329
854.413269,312
854.531006,324
854.648804,312
854.766541,311
854.884277,321
855.002014,319
855.119751,314
855.237549,321
855.355225,325
855.473022,326
855.590698,317
855.708435,321
855.826172,299
855.943848,307
856.061646,323
856.179321,324
856.296997,311
856.414795,325
856.53241,326
856.650085,331
856.767822,317
856.885559,317
857.003174,303
857.120911,313
857.238586,309
857.356201,311
857.473938,329
857.591614,310
857.709351,312
857.826965,328
857.944641,311
858.062317,325
858.179993,320
858.297668,310
858.415283,310
858.532959,309
858.650574,314
858.768188,332
858.885803,322
859.003479,311
859.121094,319
859.23877,309
859.356384,320
859.473999,313
859.591675,311
859.709229,310
859.826843,318
859.944458,324
860.062012,306
860.179626,304
860.297302,314
860.414856,306
860.532471,309
860.650024,328
860.767639,316
860.885193,325
861.002808,308
861.120361,327
861.237976,297
861.35553,323
861.473022,305
861.590698,318
861.708191,308
861.825745,321
861.943298,328
862.060852,302
862.178406,307
862.295959,325
862.413513,307
862.531006,311
862.64856,311
862.766113,311
862.883667,299
863.00116,314
863.118713,318
863.236206,314
863.353699,314
863.471252,315
863.588745,319
863.706177,320
863.82373,328
863.941162,325
864.058716,316
864.176208,327
864.29364,323
864.411194,312
864.528687,314
864.646118,324
864.763611,316
864.881042,321
864.998535,313
865.116028,315
865.233459,309
865.350891,320
865.468384,301
865.585754,301
865.703308,313
865.820679,321
865.938171,315
866.055542,312
866.173035,301
866.290466,311
866.407837,313
866.52533,314
866.6427,315
866.760071,315
866.877563,319
866.994934,322
867.112305,317
867.229736,332
867.347107,309
867.464539,323
867.58197,313
867.699341,322
867.81665,312
867.934082,309
868.051453,319
868.168823,323
868.286194,304
868.403564,329
868.520935,316
868.638306,315
868.755676,299
868.872986,302
868.990295,320
869.107727,320
869.225037,306
869.342346,312
869.459717,317
869.577026,325
869.694336,307
869.811707,316
869.929016,315
870.046326,323
870.163635,304
870.280945,306
870.398254,325
870.515564,315
870.632812,309
870.750183,319
870.867432,303
870.984741,329
871.102051,314
871.219299,324
871.336609,305
871.453918,319
871.571106,320
871.688416,312
871.805664,313
871.922852,332
872.040222,311
872.157471,329
872.274719,307
872.391968,318
872.509155,306
872.626465,312
872.743652,320
872.860962,322
872.978149,307
873.095337,322
873.212646,301
873.329834,311
873.44696,313
873.564209,304
873.681396,316
873.798645,316
873.915894,317
874.03302,310
874.150208,302
874.267456,322
874.384583,297
874.501831,327
874.618958,302
874.736145,314
874.853333,306
874.970459,321
875.087646,311
875.204834,331
875.32196,302
875.439148,315
875.556274,320
875.673401,324
875.790527,325
875.907715,322
876.024841,313
876.141968,312
876.259094,327
876.376282,322
876.493347,321
876.610474,313
876.7276,314
876.844727,323
876.961853,323
877.078918,315
877.195984,324
877.313171,307
877.430237,320
877.547302,313
877.664368,301
877.781433,307
877.898499,308
878.015625,321
878.13269,305
878.249695,326
878.366821,322
878.483887,310
878.600952,306
878.717957,315
878.834961,324
878.952087,312
879.069092,296
879.186157,326
879.303162,314
879.420227,315
879.537231,309
879.654236,330
879.77124,314
879.888306,329
880.005249,320
880.122314,321
880.239319,306
880.356323,323
880.473328,310
880.590271,320
880.707275,319
880.824341,319
880.941284,313
881.058228,316
881.175232,314
881.292236,315
881.40918,314
881.526123,325
881.643066,305
881.760071,305
881.877014,316
881.993958,320
882.11084,313
882.227783,324
882.344727,321
882.46167,323
882.578613,307
882.695618,316
882.812439,323
882.929382,314
883.046326,312
883.163208,316
883.280151,319
883.397034,313
883.513916,315
883.630798,315
883.747742,309
883.864563,312
883.981506,317
884.098389,316
884.21521,314
884.332153,309
884.448975,314
884.565796,320
884.682678,303
884.7995,333
884.916443,302
885.033264,325
885.150085,312
885.266968,305
885.383789,310
885.500671,320
885.617493,308
885.734314,316
885.851196,313
885.967896,312
886.084717,308
886.201599,332
886.318359,317
886.435181,319
886.552002,319
886.668762,308
886.785645,309
886.902344,318
887.019165,312
887.135925,313
887.252747,308
887.369446,319
887.486267,324
887.603027,329
887.719788,316
887.836548,327
887.953247,327
888.070068,323
888.186829,304
888.303528,317
888.420288,315
888.536987,323
888.653687,321
888.770447,322
888.887146,306
889.003967,305
889.120667,317
889.237305,310
889.354065,312
889.470703,317
889.587463,311
889.704163,314
889.820862,319
889.937561,322
890.054199,325
890.170837,319
890.287598,319
890.404236,314
890.520874,312
890.637634,319
890.754211,308
890.87085,318
890.987549,311
891.104187,328
891.220886,317
891.337463,325
891.454102,325
891.57074,310
891.687378,313
891.804077,313
891.920654,312
892.037231,313
892.15387,318
892.270447,320
892.387085,325
892.503723,322
892.6203,323
892.736877,325
892.853516,301
892.970032,316
893.08667,312
893.203186,333
893.319763,316
893.43634,329
893.552917,312
893.669556,324
893.786011,310
893.902588,309
894.019165,294
894.135681,328
894.252197,310
894.368835,323
894.485291,311
894.601868,317
894.718384,302
894.8349,315
894.951355,313
895.067932,326
895.184448,305
895.300964,325
895.417419,312
895.533936,336
895.650452,314
895.766907,334
895.883423,325
895.999878,320
896.116333,312
896.232849,317
896.349304,317
896.465759,313
896.582214,312
896.698669,318
896.815125,307
896.931641,321
897.048035,317
897.164551,330
897.280884,308
897.397339,318
897.513794,307
897.630249,326
897.746582,313
897.863098,308
897.979431,316
898.095886,324
898.212341,319
898.328674,323
898.445129,316
898.561462,335
898.677795,308
898.794312,320
898.910645,305
899.026978,327
899.143433,310
899.259766,323
899.37616,317
899.492493,309
899.608765,309
899.725159,320
899.841553,312
899.957947,319
900.07428,311
900.190552,322
900.306946,316
900.423157,321
900.53949,309
900.655884,321
900.772156,310
900.888489,339
901.004822,306
901.121033,316
901.237366,326
901.353699,309
901.46991,313
901.586304,312
901.702515,312
901.818787,315
901.93512,323
902.051331,320
902.167603,303
902.283875,325
902.400085,313
902.516418,319
902.632629,311
902.74884,324
902.865112,322
902.981384,328
903.097595,309
903.213867,332
903.330017,310
903.446289,328
903.5625,317
903.67865,328
903.794922,316
903.911072,314
904.027344,314
904.143494,317
904.259705,324
904.375916,315
904.492065,324
904.608215,335
904.724426,305
904.840576,327
904.956726,323
905.072876,315
905.189087,317
905.305176,313
905.421387,316
905.537537,305
905.653687,316
905.769775,316
905.885925,320
906.002014,319
906.118164,312
906.234314,307
906.350403,315
906.466492,326
906.582642,312
906.69873,312
906.814758,312
906.930908,314
907.046936,310
907.163086,312
907.279175,318
907.395264,321
907.511353,327
907.62738,304
907.743408,300
907.859497,329
907.975525,331
908.091553,313
908.207703,314
908.32373,316
908.439758,305
908.555786,312
908.671814,327
908.787842,320
908.90387,312
909.019775,315
909.135864,304
909.251892,312
909.367859,304
909.483826,334
909.599854,306
909.715881,324
909.831848,322
909.947815,316
910.063782,316
910.179749,322
910.295776,314
910.411743,328
910.527649,318
910.643616,310
910.759583,326
910.875488,313
910.991455,316
911.107361,322
911.223267,302
911.339294,338
911.4552,310
911.571106,314
911.687073,297
911.802979,333
911.918823,309
912.034729,316
912.150635,314
912.266602,314
912.382446,300
912.498352,320
912.614197,301
912.730103,324
912.846008,314
