792.44574,337
792.56488,334
792.68396,410
792.80304,380
792.92218,350
793.041199,322
793.160339,322
793.279419,332
793.398499,353
793.517578,306
793.636658,311
793.755737,330
793.874817,351
793.993896,343
794.112976,338
794.232056,329
794.351074,336
794.470215,339
794.589233,326
794.708313,334
794.827393,328
794.946411,328
795.065552,346
795.18457,333
795.303589,331
795.422668,344
795.541687,323
795.660767,337
795.779846,328
795.898865,335
796.017883,323
796.136963,324
796.255981,331
796.375061,326
796.49408,335
796.613037,317
796.732117,349
796.851135,322
796.970154,339
797.089233,337
797.208191,333
797.327271,319
797.446228,324
797.565186,336
797.684265,333
797.803223,320
797.922241,327
798.04126,333
798.160278,331
798.279297,326
798.398315,323
798.517273,323
798.636292,342
798.75531,333
798.874268,334
798.993286,324
799.112244,320
799.231323,334
799.350281,325
799.469238,319
799.588257,338
799.707153,331
799.826111,325
799.945129,328
800.064087,349
800.183044,309
800.302063,329
800.421021,324
800.539978,321
800.658936,344
800.777893,319
800.896912,333
801.015747,314
801.134705,330
801.253723,327
801.37262,330
801.491638,305
801.610535,334
801.729492,331
801.84845,333
801.967407,318
802.086243,337
802.205261,337
802.324158,322
802.443115,334
802.562073,336
802.680969,322
802.799927,325
802.918762,331
803.037659,331
803.156677,327
803.275574,331
803.39447,319
803.513428,315
803.632263,335
803.751221,319
803.870117,327
803.989014,340
804.107971,313
804.226746,326
804.345642,324
804.4646,325
804.583496,328
804.702393,320
804.821228,331
804.940125,338
805.059021,326
805.177917,329
805.296814,308
805.415649,325
805.534546,314
805.653442,340
805.772278,319
805.891113,334
806.01001,339
806.128906,334
806.247742,322
806.366577,332
806.485413,337
806.604309,331
806.723145,324
806.84198,319
806.960876,332
807.079712,333
807.198486,343
807.317383,332
807.436218,335
807.554993,341
807.673889,329
807.792725,339
807.91156,326
808.030396,335
808.14917,320
808.268005,340
808.386841,340
808.505676,332
808.624451,343
808.743286,324
808.862122,326
808.980896,345
809.099731,321
809.218506,338
809.337341,330
809.456116,343
809.57489,337
809.693726,332
809.8125,326
809.931274,342
810.050049,352
810.168884,333
810.287659,335
810.406372,325
810.525269,335
810.643982,339
810.762756,323
810.881531,331
811.000305,324
811.11908,333
811.237854,321
811.356567,336
811.475403,326
811.594116,339
811.71283,322
811.831604,330
811.950378,329
812.069153,324
812.187927,335
812.30658,344
812.425415,323
812.544128,340
812.662781,335
812.781616,341
812.900269,324
813.019043,348
813.137756,329
813.256531,331
813.375244,327
813.493896,334
813.612671,333
813.731384,331
813.850037,338
813.96875,326
814.087524,329
814.206238,326
814.324951,331
814.443604,335
814.562256,328
814.68103,335
814.799683,325
814.918335,332
815.037109,331
815.155762,333
815.274475,334
815.393188,325
815.511841,325
815.630554,322
815.749146,320
815.867859,330
815.986572,333
816.105164,333
816.223877,326
816.342529,332
816.461182,330
816.579895,342
816.698486,327
816.817139,336
816.935791,338
817.054504,323
817.173096,342
817.291748,337
817.4104,326
817.529053,336
817.647644,333
817.766235,323
817.884949,337
818.00354,323
818.122192,330
818.240845,315
818.359436,327
818.478088,329
818.59668,319
818.715271,337
818.833923,318
818.952515,321
819.071106,336
819.189758,329
819.30835,319
819.426941,324
819.545532,329
819.664124,309
819.782715,321
819.901306,300
820.019897,323
820.138489,335
820.25708,322
820.375671,317
820.494202,324
820.612732,309
820.731384,325
820.849915,332
820.968506,318
821.087097,323
821.205627,317
821.324158,322
821.442749,310
821.561279,335
821.679871,321
821.798401,309
821.916931,321
822.035461,315
822.154053,316
822.272583,317
822.391174,324
822.509583,314
822.628174,327
822.746704,317
822.865234,321
822.983765,313
823.102295,313
823.220825,332
823.339294,317
823.457825,314
823.576355,326
823.694824,314
823.813354,332
823.931885,311
824.050354,325
824.168884,323
824.287354,321
824.405823,313
824.524353,305
824.642822,316
824.761353,324
824.879822,321
824.998291,315
825.116699,322
825.235291,315
825.353699,329
825.472168,319
825.590637,315
825.709106,321
825.827576,313
825.946045,323
826.064453,324
826.182983,330
826.301392,306
826.4198,320
826.53833,315
826.656738,311
826.775208,318
826.893677,318
827.012024,315
827.130493,326
827.248962,304
827.36731,322
827.485779,318
827.604248,313
827.722595,331
827.841064,323
827.959412,320
828.077942,303
828.196289,317
828.314636,320
828.433105,321
828.551514,329
828.669861,316
828.78833,303
828.906677,320
829.025085,316
829.143433,319
829.261841,318
829.38031,331
829.498657,322
829.617004,319
829.735413,320
829.85376,316
829.972107,319
830.090515,295
830.208862,308
830.327209,308
830.445557,326
830.563904,319
830.682312,323
830.800659,318
830.919006,312
831.037354,325
831.155701,324
831.274048,320
831.392395,315
831.51062,305
831.629028,326
831.747314,314
831.865662,328
831.984009,324
832.102356,318
832.220642,318
832.338928,312
832.457275,318
832.575623,308
832.693909,329
832.812134,320
832.930481,315
833.048828,318
833.167114,321
833.2854,330
833.403687,321
833.521973,312
833.640259,329
833.758545,323
833.876831,321
833.995056,316
834.113281,322
834.231628,316
834.349915,318
834.468201,321
834.586426,315
834.704651,302
834.822998,310
834.941162,317
835.059448,324
835.177673,317
835.295959,313
835.414246,312
835.53241,320
835.650635,325
835.768921,314
835.887146,316
836.005371,312
836.123596,312
836.241821,315
836.360046,307
836.478271,328
836.596497,312
836.714722,316
836.832886,314
836.95105,315
837.069336,336
837.1875,312
837.305725,322
837.423889,319
837.542053,314
837.660339,310
837.778503,325
837.896667,313
838.014832,318
838.132996,314
838.25116,318
838.369385,318
838.487488,325
838.605713,318
838.723877,313
838.84198,322
838.960205,310
839.078308,314
839.196472,322
839.314636,319
839.4328,333
839.550964,322
839.669067,312
839.787231,314
839.905396,312
840.023499,305
840.141602,324
840.259766,320
840.377869,313
840.495972,324
840.614136,312
840.732239,316
840.850342,314
840.968445,325
841.086548,317
841.204651,318
841.322754,316
841.440918,311
841.55896,304
841.677002,315
841.795166,310
841.913208,321
842.031311,316
842.149353,322
842.267456,319
842.385498,314
842.503601,322
842.621643,315
842.739746,323
842.857788,313
842.97583,316
843.093933,303
843.211975,315
843.330017,322
843.44812,302
843.566101,307
843.684204,326
843.802246,308
843.920227,323
844.038269,319
844.156311,311
844.274292,323
844.392395,308
844.510376,315
844.628357,319
844.74646,320
844.864441,311
844.982422,320
845.100403,311
845.218384,328
845.336426,311
845.454468,327
845.572449,316
845.69043,318
845.808411,300
845.926453,305
846.044373,309
846.162354,323
846.280396,312
846.398315,330
846.516296,321
846.634216,322
846.752197,324
846.870178,312
846.988098,310
847.106079,322
847.22406,315
847.34198,331
847.4599,311
847.577881,308
847.695801,318
847.813782,327
847.931641,312
848.049561,318
848.167603,310
848.285461,305
848.403381,313
848.521362,316
848.639221,302
848.75708,312
848.875,310
848.99292,307
849.110901,308
849.22876,309
849.34668,309
849.464539,315
849.582458,322
849.700317,317
849.818176,313
849.936096,321
850.053955,313
850.171875,321
850.289673,309
850.407593,310
850.525452,319
850.643311,313
850.761169,328
850.878967,305
850.996887,304
851.114746,313
851.232544,295
851.350403,323
851.468262,297
851.58606,323
851.703979,314
851.821777,315
851.939636,304
852.057434,308
852.175232,305
852.293091,326
852.410889,319
852.528687,319
852.646545,317
852.764343,312
852.88208,311
852.999939,311
853.117676,311
853.235535,314
853.353271,314
853.471069,296
853.588928,327
853.706604,322
853.824402,321
853.9422,313
854.059998,306
854.177734,314
854.295532,312
854.413269,322
854.531006,307
854.648804,310
854.766541,291
854.884277,328
855.002014,301
855.119751,319
855.237549,314
855.355225,313
855.473022,312
855.590698,302
855.708435,316
855.826172,308
855.943848,317
856.061646,324
856.179321,303
856.296997,303
856.414795,307
856.53241,322
856.650085,312
856.767822,323
856.885559,319
857.003174,312
857.120911,314
857.238586,326
857.356201,319
857.473938,313
857.591614,311
857.709351,311
857.826965,311
857.944641,326
858.062317,313
858.179993,315
858.297668,320
858.415283,304
858.532959,307
858.650574,315
858.768188,327
858.885803,312
859.003479,317
859.121094,322
859.23877,322
859.356384,318
859.473999,323
859.591675,312
859.709229,299
859.826843,305
859.944458,329
860.062012,314
860.179626,320
860.297302,316
860.414856,316
860.532471,314
860.650024,315
860.767639,314
860.885193,308
861.002808,316
861.120361,331
861.237976,311
861.35553,312
861.473022,322
861.590698,318
861.708191,314
861.825745,327
861.943298,322
862.060852,312
862.178406,321
862.295959,314
862.413513,308
862.531006,311
862.64856,313
862.766113,321
862.883667,322
863.00116,327
863.118713,322
863.236206,312
863.353699,322
863.471252,312
863.588745,313
863.706177,313
863.82373,308
863.941162,304
864.058716,317
864.176208,314
864.29364,318
864.411194,328
864.528687,324
864.646118,308
864.763611,318
864.881042,309
864.998535,310
865.116028,314
865.233459,313
865.350891,329
865.468384,317
865.585754,313
865.703308,316
865.820679,321
865.938171,315
866.055542,307
866.173035,315
866.290466,311
866.407837,322
866.52533,309
866.6427,316
866.760071,323
866.877563,317
866.994934,326
867.112305,313
867.229736,312
867.347107,321
867.464539,323
867.58197,307
867.699341,315
867.81665,315
867.934082,317
868.051453,310
868.168823,314
868.286194,324
868.403564,308
868.520935,311
868.638306,317
868.755676,319
868.872986,314
868.990295,325
869.107727,310
869.225037,315
869.342346,316
869.459717,315
869.577026,315
869.694336,318
869.811707,323
869.929016,316
870.046326,309
870.163635,314
870.280945,319
870.398254,322
870.515564,328
870.632812,311
870.750183,322
870.867432,316
870.984741,319
871.102051,323
871.219299,300
871.336609,310
871.453918,311
871.571106,324
871.688416,311
871.805664,311
871.922852,336
872.040222,303
872.157471,315
872.274719,317
872.391968,303
872.509155,324
872.626465,313
872.743652,321
872.860962,301
872.978149,324
873.095337,319
873.212646,316
873.329834,313
873.44696,329
873.564209,325
873.681396,327
873.798645,317
873.915894,325
874.03302,314
874.150208,317
874.267456,316
874.384583,307
874.501831,328
874.618958,316
874.736145,322
874.853333,321
874.970459,310
875.087646,312
875.204834,308
875.32196,305
875.439148,318
875.556274,312
875.673401,320
875.790527,305
875.907715,321
876.024841,320
876.141968,317
876.259094,315
876.376282,311
876.493347,324
876.610474,321
876.7276,313
876.844727,317
876.961853,311
877.078918,321
877.195984,322
877.313171,314
877.430237,307
877.547302,312
877.664368,315
877.781433,334
877.898499,311
878.015625,323
878.13269,307
878.249695,311
878.366821,319
878.483887,325
878.600952,321
878.717957,313
878.834961,322
878.952087,322
879.069092,315
879.186157,319
879.303162,309
879.420227,322
879.537231,324
879.654236,292
879.77124,320
879.888306,306
880.005249,321
880.122314,322
880.239319,311
880.356323,323
880.473328,309
880.590271,322
880.707275,318
880.824341,308
880.941284,322
881.058228,299
881.175232,311
881.292236,321
881.40918,307
881.526123,313
881.643066,300
881.760071,313
881.877014,315
881.993958,312
882.11084,320
882.227783,331
882.344727,309
882.46167,308
882.578613,312
882.695618,313
882.812439,315
882.929382,315
883.046326,316
883.163208,325
883.280151,315
883.397034,313
883.513916,316
883.630798,305
883.747742,324
883.864563,319
883.981506,319
884.098389,308
884.21521,335
884.332153,308
884.448975,312
884.565796,318
884.682678,315
884.7995,315
884.916443,312
885.033264,313
885.150085,320
885.266968,316
885.383789,326
885.500671,308
885.617493,323
885.734314,336
885.851196,307
885.967896,320
886.084717,329
886.201599,306
886.318359,336
886.435181,304
886.552002,316
886.668762,323
886.785645,317
886.902344,321
887.019165,319
887.135925,307
887.252747,313
887.369446,313
887.486267,315
887.603027,308
887.719788,320
887.836548,311
887.953247,316
888.070068,333
888.186829,307
888.303528,317
888.420288,313
888.536987,328
888.653687,308
888.770447,309
888.887146,325
889.003967,313
889.120667,328
889.237305,325
889.354065,312
889.470703,316
889.587463,329
889.704163,320
889.820862,312
889.937561,302
890.054199,314
890.170837,320
890.287598,315
890.404236,307
890.520874,318
890.637634,325
890.754211,316
890.87085,322
890.987549,323
891.104187,308
891.220886,329
891.337463,321
891.454102,310
891.57074,318
891.687378,322
891.804077,318
891.920654,307
892.037231,311
892.15387,319
892.270447,309
892.387085,313
892.503723,315
892.6203,316
892.736877,313
892.853516,311
892.970032,322
893.08667,307
893.203186,330
893.319763,315
893.43634,318
893.552917,319
893.669556,312
893.786011,312
893.902588,312
894.019165,328
894.135681,319
894.252197,320
894.368835,317
894.485291,322
894.601868,298
894.718384,307
894.8349,310
894.951355,316
895.067932,319
895.184448,320
895.300964,313
895.417419,318
895.533936,322
895.650452,315
895.766907,302
895.883423,323
895.999878,313
896.116333,320
896.232849,320
896.349304,316
896.465759,318
896.582214,314
896.698669,315
896.815125,315
896.931641,326
897.048035,322
897.164551,303
897.280884,311
897.397339,315
897.513794,310
897.630249,316
897.746582,314
897.863098,310
897.979431,319
898.095886,309
898.212341,313
898.328674,317
898.445129,309
898.561462,304
898.677795,318
898.794312,318
898.910645,311
899.026978,313
899.143433,332
899.259766,317
899.37616,318
899.492493,311
899.608765,325
899.725159,321
899.841553,315
899.957947,315
900.07428,313
900.190552,307
900.306946,320
900.423157,322
900.53949,305
900.655884,312
900.772156,334
900.888489,318
901.004822,307
901.121033,302
901.237366,327
901.353699,308
901.46991,320
901.586304,317
901.702515,332
901.818787,317
901.93512,324
902.051331,310
902.167603,305
902.283875,317
902.400085,314
902.516418,313
902.632629,321
902.74884,321
902.865112,318
902.981384,310
903.097595,321
903.213867,306
903.330017,308
903.446289,310
903.5625,315
903.67865,329
903.794922,321
903.911072,299
904.027344,313
904.143494,325
904.259705,321
904.375916,310
904.492065,321
904.608215,320
904.724426,319
904.840576,314
904.956726,313
905.072876,318
905.189087,318
905.305176,299
905.421387,315
905.537537,319
905.653687,315
905.769775,330
905.885925,318
906.002014,308
906.118164,305
906.234314,318
906.350403,317
906.466492,313
906.582642,320
906.69873,323
906.814758,325
906.930908,317
907.046936,321
907.163086,320
907.279175,326
907.395264,301
907.511353,314
907.62738,307
907.743408,315
907.859497,320
907.975525,316
908.091553,314
908.207703,321
908.32373,321
908.439758,322
908.555786,316
908.671814,317
908.787842,303
908.90387,327
909.019775,304
909.135864,306
909.251892,304
909.367859,324
909.483826,321
909.599854,319
909.715881,307
909.831848,315
909.947815,313
910.063782,325
910.179749,334
910.295776,309
910.411743,317
910.527649,315
910.643616,322
910.759583,319
910.875488,313
910.991455,312
911.107361,310
911.223267,305
911.339294,313
911.4552,332
911.571106,314
911.687073,330
911.802979,312
911.918823,320
912.034729,311
912.150635,318
912.266602,320
912.382446,319
912.498352,313
912.614197,309
912.730103,303
912.846008,301
792.44574,311
792.56488,356
792.68396,399
792.80304,394
792.92218,324
793.041199,308
793.160339,324
793.279419,333
793.398499,336
793.517578,314
793.636658,301
793.755737,340
793.874817,352
793.993896,344
794.112976,321
794.232056,333
794.351074,327
794.470215,334
794.589233,324
794.708313,324
794.827393,337
794.946411,329
795.065552,334
795.18457,340
795.303589,311
795.422668,319
795.541687,328
795.660767,323
795.779846,332
795.898865,329
796.017883,336
796.136963,319
796.255981,341
796.375061,326
796.49408,329
796.613037,320
796.732117,318
796.851135,323
796.970154,348
797.089233,324
797.208191,315
797.327271,318
797.446228,343
797.565186,330
797.684265,340
797.803223,329
797.922241,317
798.04126,334
798.160278,336
798.279297,331
798.398315,323
798.517273,334
798.636292,333
798.75531,329
798.874268,324
798.993286,327
799.112244,324
799.231323,319
799.350281,343
799.469238,333
799.588257,339
799.707153,333
799.826111,340
799.945129,319
800.064087,338
800.183044,337
800.302063,336
800.421021,332
800.539978,326
800.658936,313
800.777893,327
800.896912,337
801.015747,332
801.134705,333
801.253723,316
801.37262,338
801.491638,338
801.610535,326
801.729492,314
801.84845,318
801.967407,331
802.086243,335
802.205261,323
802.324158,325
802.443115,327
802.562073,323
802.680969,325
802.799927,334
802.918762,321
803.037659,323
803.156677,325
803.275574,331
803.39447,328
803.513428,325
803.632263,329
803.751221,323
803.870117,329
803.989014,334
804.107971,331
804.226746,329
804.345642,334
804.4646,325
804.583496,330
804.702393,334
804.821228,320
804.940125,333
805.059021,328
805.177917,320
805.296814,330
805.415649,332
805.534546,323
805.653442,324
805.772278,338
805.891113,322
806.01001,335
806.128906,339
806.247742,336
806.366577,337
806.485413,324
806.604309,339
806.723145,341
806.84198,323
806.960876,333
807.079712,321
807.198486,330
807.317383,326
807.436218,322
807.554993,327
807.673889,318
807.792725,333
807.91156,332
808.030396,330
808.14917,335
808.268005,334
808.386841,332
808.505676,324
808.624451,341
808.743286,331
808.862122,323
808.980896,349
809.099731,329
809.218506,315
809.337341,326
809.456116,330
809.57489,330
809.693726,349
809.8125,336
809.931274,313
810.050049,329
810.168884,342
810.287659,340
810.406372,347
810.525269,327
810.643982,331
810.762756,324
810.881531,318
811.000305,337
811.11908,339
811.237854,317
811.356567,329
811.475403,337
811.594116,328
811.71283,329
811.831604,335
811.950378,325
812.069153,317
812.187927,343
812.30658,330
812.425415,327
812.544128,328
812.662781,343
812.781616,333
812.900269,329
813.019043,327
813.137756,325
813.256531,337
813.375244,321
813.493896,325
813.612671,340
813.731384,334
813.850037,325
813.96875,333
814.087524,335
814.206238,328
814.324951,330
814.443604,335
814.562256,329
814.68103,316
814.799683,338
814.918335,344
815.037109,335
815.155762,318
815.274475,332
815.393188,317
815.511841,336
815.630554,330
815.749146,321
815.867859,317
815.986572,329
816.105164,319
816.223877,330
816.342529,330
816.461182,315
816.579895,332
816.698486,324
816.817139,328
816.935791,334
817.054504,328
817.173096,337
817.291748,326
817.4104,339
817.529053,336
817.647644,332
817.766235,334
817.884949,324
818.00354,314
818.122192,336
818.240845,324
818.359436,315
818.478088,329
818.59668,331
818.715271,321
818.833923,335
818.952515,320
819.071106,329
819.189758,317
819.30835,311
819.426941,321
819.545532,332
819.664124,317
819.782715,312
819.901306,316
820.019897,320
820.138489,313
820.25708,316
820.375671,315
820.494202,307
820.612732,327
820.731384,317
820.849915,312
820.968506,325
821.087097,327
821.205627,312
821.324158,315
821.442749,328
821.561279,324
821.679871,313
821.798401,323
821.916931,325
822.035461,314
822.154053,325
822.272583,315
822.391174,329
822.509583,319
822.628174,321
822.746704,321
822.865234,328
822.983765,315
823.102295,316
823.220825,309
823.339294,307
823.457825,330
823.576355,319
823.694824,306
823.813354,313
823.931885,315
824.050354,324
824.168884,317
824.287354,313
824.405823,313
824.524353,321
824.642822,326
824.761353,314
824.879822,317
824.998291,316
825.116699,317
825.235291,317
825.353699,306
825.472168,319
825.590637,314
825.709106,323
825.827576,318
825.946045,307
826.064453,325
826.182983,322
826.301392,318
826.4198,312
826.53833,319
826.656738,332
826.775208,320
826.893677,317
827.012024,313
827.130493,311
827.248962,320
827.36731,321
827.485779,314
827.604248,313
827.722595,321
827.841064,315
827.959412,331
828.077942,317
828.196289,325
828.314636,319
828.433105,326
828.551514,308
828.669861,319
828.78833,323
828.906677,306
829.025085,311
829.143433,307
829.261841,306
829.38031,324
829.498657,306
829.617004,321
829.735413,318
829.85376,313
829.972107,312
830.090515,310
830.208862,319
830.327209,312
830.445557,313
830.563904,326
830.682312,335
830.800659,321
830.919006,325
831.037354,318
831.155701,317
831.274048,314
831.392395,318
831.51062,299
831.629028,318
831.747314,324
831.865662,308
831.984009,318
832.102356,317
832.220642,326
832.338928,333
832.457275,314
832.575623,321
832.693909,315
832.812134,320
832.930481,319
833.048828,328
833.167114,307
833.2854,329
833.403687,311
833.521973,320
833.640259,318
833.758545,317
833.876831,307
833.995056,317
834.113281,317
834.231628,318
834.349915,315
834.468201,318
834.586426,310
834.704651,317
834.822998,307
834.941162,328
835.059448,318
835.177673,316
835.295959,310
835.414246,326
835.53241,321
835.650635,324
835.768921,330
835.887146,302
836.005371,316
836.123596,300
836.241821,317
836.360046,314
836.478271,309
836.596497,312
836.714722,312
836.832886,326
836.95105,313
837.069336,320
837.1875,320
837.305725,319
837.423889,317
837.542053,316
837.660339,311
837.778503,320
837.896667,313
838.014832,314
838.132996,328
838.25116,317
838.369385,316
838.487488,328
838.605713,322
838.723877,320
838.84198,314
838.960205,333
839.078308,307
839.196472,317
839.314636,324
839.4328,307
839.550964,315
839.669067,307
839.787231,313
839.905396,317
840.023499,306
840.141602,315
840.259766,331
840.377869,321
840.495972,320
840.614136,314
840.732239,323
840.850342,319
840.968445,303
841.086548,318
841.204651,316
841.322754,319
841.440918,326
841.55896,330
841.677002,304
841.795166,303
841.913208,325
842.031311,316
842.149353,315
842.267456,316
842.385498,318
842.503601,327
842.621643,315
842.739746,324
842.857788,314
842.97583,311
843.093933,321
843.211975,313
843.330017,310
843.44812,321
843.566101,329
843.684204,328
843.802246,316
843.920227,315
844.038269,307
844.156311,320
844.274292,320
844.392395,327
844.510376,310
844.628357,313
844.74646,316
844.864441,317
844.982422,314
845.100403,327
845.218384,316
845.336426,315
845.454468,316
845.572449,321
845.69043,315
845.808411,320
845.926453,315
846.044373,310
846.162354,327
846.280396,310
846.398315,328
846.516296,314
846.634216,323
846.752197,317
846.870178,317
846.988098,320
847.106079,310
847.22406,314
847.34198,320
847.4599,305
847.577881,303
847.695801,333
847.813782,316
847.931641,333
848.049561,312
848.167603,305
848.285461,310
848.403381,315
848.521362,314
848.639221,315
848.75708,316
848.875,308
848.99292,315
849.110901,311
849.22876,320
849.34668,307
849.464539,319
849.582458,326
849.700317,312
849.818176,323
849.936096,308
850.053955,309
850.171875,310
850.289673,315
850.407593,317
850.525452,311
850.643311,307
850.761169,316
850.878967,313
850.996887,325
851.114746,305
851.232544,308
851.350403,315
851.468262,306
851.58606,314
851.703979,320
851.821777,320
851.939636,328
852.057434,309
852.175232,313
852.293091,306
852.410889,309
852.528687,315
852.646545,318
852.764343,304
852.88208,314
852.999939,314
853.117676,319
853.235535,315
853.353271,331
853.471069,318
853.588928,312
853.706604,316
853.824402,311
853.9422,307
854.059998,325
854.177734,316
854.295532,304
854.413269,315
854.531006,318
854.648804,323
854.766541,315
854.884277,310
855.002014,330
855.119751,309
855.237549,317
855.355225,319
855.473022,320
855.590698,308
855.708435,311
855.826172,307
855.943848,326
856.061646,303
856.179321,322
856.296997,313
856.414795,323
856.53241,310
856.650085,325
856.767822,314
856.885559,305
857.003174,324
857.120911,324
857.238586,322
857.356201,320
857.473938,318
857.591614,327
857.709351,326
857.826965,326
857.944641,318
858.062317,302
858.179993,327
858.297668,314
858.415283,320
858.532959,326
858.650574,309
858.768188,315
858.885803,323
859.003479,306
859.121094,316
859.23877,305
859.356384,313
859.473999,331
859.591675,320
859.709229,331
859.826843,313
859.944458,322
860.062012,293
860.179626,308
860.297302,315
860.414856,318
860.532471,309
860.650024,307
860.767639,329
860.885193,314
861.002808,316
861.120361,304
861.237976,323
861.35553,320
861.473022,318
861.590698,306
861.708191,320
861.825745,317
861.943298,313
862.060852,323
862.178406,315
862.295959,314
862.413513,320
862.531006,320
862.64856,307
862.766113,314
862.883667,318
863.00116,303
863.118713,314
863.236206,329
863.353699,312
863.471252,315
863.588745,318
863.706177,317
863.82373,317
863.941162,312
864.058716,318
864.176208,333
864.29364,319
864.411194,314
864.528687,317
864.646118,323
864.763611,310
864.881042,317
864.998535,313
865.116028,321
865.233459,330
865.350891,302
865.468384,306
865.585754,323
865.703308,305
865.820679,301
865.938171,312
866.055542,314
866.173035,311
866.290466,326
866.407837,297
866.52533,316
866.6427,320
866.760071,316
866.877563,299
866.994934,328
867.112305,306
867.229736,325
867.347107,320
867.464539,303
867.58197,307
867.699341,318
867.81665,324
867.934082,319
868.051453,320
868.168823,323
868.286194,309
868.403564,323
868.520935,308
868.638306,316
868.755676,330
868.872986,315
868.990295,317
869.107727,316
869.225037,320
869.342346,324
869.459717,307
869.577026,324
869.694336,312
869.811707,322
869.929016,305
870.046326,314
870.163635,312
870.280945,318
870.398254,314
870.515564,319
870.632812,330
870.750183,323
870.867432,312
870.984741,309
871.102051,311
871.219299,309
871.336609,312
871.453918,318
871.571106,315
871.688416,323
871.805664,319
871.922852,329
872.040222,322
872.157471,316
872.274719,312
872.391968,302
872.509155,327
872.626465,315
872.743652,309
872.860962,320
872.978149,302
873.095337,331
873.212646,326
873.329834,332
873.44696,300
873.564209,317
873.681396,316
873.798645,329
873.915894,310
874.03302,319
874.150208,316
874.267456,325
874.384583,326
874.501831,325
874.618958,311
874.736145,317
874.853333,318
874.970459,320
875.087646,318
875.204834,322
875.32196,310
875.439148,321
875.556274,309
875.673401,319
875.790527,321
875.907715,310
876.024841,320
876.141968,321
876.259094,311
876.376282,322
876.493347,312
876.610474,319
876.7276,317
876.844727,303
876.961853,313
877.078918,318
877.195984,319
877.313171,314
877.430237,319
877.547302,324
877.664368,317
877.781433,314
877.898499,319
878.015625,313
878.13269,303
878.249695,309
878.366821,313
878.483887,315
878.600952,298
878.717957,319
878.834961,317
878.952087,317
879.069092,319
879.186157,316
879.303162,314
879.420227,307
879.537231,308
879.654236,318
879.77124,307
879.888306,314
880.005249,323
880.122314,314
880.239319,311
880.356323,316
880.473328,316
880.590271,321
880.707275,304
880.824341,326
880.941284,329
881.058228,318
881.175232,305
881.292236,326
881.40918,314
881.526123,319
881.643066,305
881.760071,316
881.877014,308
881.993958,310
882.11084,307
882.227783,312
882.344727,306
882.46167,336
882.578613,316
882.695618,299
882.812439,325
882.929382,329
883.046326,313
883.163208,322
883.280151,311
883.397034,321
883.513916,309
883.630798,313
883.747742,308
883.864563,313
883.981506,321
884.098389,319
884.21521,321
884.332153,316
884.448975,313
884.565796,313
884.682678,320
884.7995,317
884.916443,321
885.033264,319
885.150085,315
885.266968,327
885.383789,315
885.500671,314
885.617493,313
885.734314,322
885.851196,333
885.967896,316
886.084717,297
886.201599,317
886.318359,309
886.435181,311
886.552002,312
886.668762,327
886.785645,302
886.902344,324
887.019165,317
887.135925,307
887.252747,318
887.369446,306
887.486267,314
887.603027,314
887.719788,311
887.836548,323
887.953247,326
888.070068,313
888.186829,320
888.303528,316
888.420288,312
888.536987,321
888.653687,320
888.770447,311
888.887146,315
889.003967,325
889.120667,317
889.237305,319
889.354065,311
889.470703,306
889.587463,318
889.704163,308
889.820862,314
889.937561,306
890.054199,316
890.170837,309
890.287598,310
890.404236,321
890.520874,304
890.637634,314
890.754211,307
890.87085,311
890.987549,309
891.104187,320
891.220886,298
891.337463,323
891.454102,321
891.57074,307
891.687378,298
891.804077,315
891.920654,311
892.037231,326
892.15387,308
892.270447,307
892.387085,308
892.503723,337
892.6203,302
892.736877,309
892.853516,316
892.970032,310
893.08667,311
893.203186,319
893.319763,314
893.43634,319
893.552917,320
893.669556,326
893.786011,293
893.902588,312
894.019165,312
894.135681,327
894.252197,313
894.368835,320
894.485291,306
894.601868,306
894.718384,318
894.8349,330
894.951355,319
895.067932,323
895.184448,303
895.300964,315
895.417419,312
895.533936,323
895.650452,314
895.766907,315
895.883423,324
895.999878,323
896.116333,309
896.232849,319
896.349304,314
896.465759,316
896.582214,318
896.698669,302
896.815125,322
896.931641,318
897.048035,325
897.164551,327
897.280884,310
897.397339,303
897.513794,314
897.630249,310
897.746582,316
897.863098,325
897.979431,326
898.095886,323
898.212341,321
898.328674,314
898.445129,315
898.561462,315
898.677795,324
898.794312,326
898.910645,300
899.026978,317
899.143433,309
899.259766,308
899.37616,313
899.492493,329
899.608765,300
899.725159,318
899.841553,312
899.957947,326
900.07428,322
900.190552,307
900.306946,311
900.423157,310
900.53949,310
900.655884,321
900.772156,323
900.888489,317
901.004822,320
901.121033,322
901.237366,328
901.353699,309
901.46991,331
901.586304,323
901.702515,321
901.818787,327
901.93512,308
902.051331,327
902.167603,307
902.283875,317
902.400085,312
902.516418,319
902.632629,313
902.74884,309
902.865112,317
902.981384,317
903.097595,318
903.213867,328
903.330017,322
903.446289,332
903.5625,311
903.67865,317
903.794922,309
903.911072,312
904.027344,309
904.143494,316
904.259705,321
904.375916,325
904.492065,306
904.608215,306
904.724426,317
904.840576,309
904.956726,315
905.072876,316
905.189087,316
905.305176,323
905.421387,325
905.537537,336
905.653687,318
905.769775,325
905.885925,317
906.002014,319
906.118164,308
906.234314,311
906.350403,323
906.466492,324
906.582642,325
906.69873,320
906.814758,298
906.930908,312
907.046936,316
907.163086,323
907.279175,319
907.395264,308
907.511353,308
907.62738,312
907.743408,311
907.859497,325
907.975525,314
908.091553,325
908.207703,323
908.32373,309
908.439758,319
908.555786,306
908.671814,313
908.787842,303
908.90387,309
909.019775,327
909.135864,313
909.251892,321
909.367859,303
909.483826,315
909.599854,324
909.715881,312
909.831848,315
909.947815,318
910.063782,323
910.179749,320
910.295776,309
910.411743,323
910.527649,304
910.643616,318
910.759583,312
910.875488,324
910.991455,307
911.107361,311
911.223267,309
911.339294,322
911.4552,312
911.571106,328
911.687073,316
911.802979,315
911.918823,304
912.034729,316
912.150635,308
912.266602,315
912.382446,295
912.498352,314
912.614197,309
912.730103,318
912.846008,303
792.44574,320
792.56488,352
792.68396,378
792.80304,392
792.92218,334
793.041199,307
793.160339,329
793.279419,338
793.398499,337
793.517578,313
793.636658,302
793.755737,319
793.874817,334
793.993896,339
794.112976,332
794.232056,307
794.351074,328
794.470215,332
794.589233,329
794.708313,325
794.827393,322
794.946411,325
795.065552,344
795.18457,316
795.303589,336
795.422668,327
795.541687,323
795.660767,345
795.779846,336
795.898865,329
796.017883,334
796.136963,317
796.255981,338
796.375061,329
796.49408,326
796.613037,328
796.732117,335
796.851135,320
796.970154,326
797.089233,313
797.208191,337
797.327271,335
797.446228,325
797.565186,337
797.684265,322
797.803223,325
797.922241,333
798.04126,326
798.160278,323
798.279297,331
798.398315,321
798.517273,325
798.636292,321
798.75531,314
798.874268,331
798.993286,337
799.112244,332
799.231323,341
799.350281,323
799.469238,332
799.588257,324
799.707153,333
799.826111,331
799.945129,328
800.064087,332
800.183044,318
800.302063,334
800.421021,313
800.539978,319
800.658936,321
800.777893,315
800.896912,315
801.015747,328
801.134705,326
801.253723,326
801.37262,325
801.491638,324
801.610535,333
801.729492,334
801.84845,329
801.967407,316
802.086243,319
802.205261,333
802.324158,329
802.443115,319
802.562073,333
802.680969,332
802.799927,323
802.918762,337
803.037659,322
803.156677,319
803.275574,327
803.39447,322
803.513428,321
803.632263,339
803.751221,323
803.870117,319
803.989014,326
804.107971,319
804.226746,323
804.345642,334
804.4646,335
804.583496,325
804.702393,326
804.821228,335
804.940125,327
805.059021,330
805.177917,311
805.296814,344
805.415649,322
805.534546,329
805.653442,320
805.772278,337
805.891113,324
806.01001,327
806.128906,328
806.247742,328
806.366577,345
806.485413,340
806.604309,326
806.723145,322
806.84198,318
806.960876,321
807.079712,324
807.198486,341
807.317383,312
807.436218,327
807.554993,325
807.673889,319
807.792725,328
807.91156,322
808.030396,330
808.14917,327
808.268005,340
808.386841,330
808.505676,330
808.624451,337
808.743286,322
808.862122,343
808.980896,319
809.099731,338
809.218506,318
809.337341,341
809.456116,319
809.57489,344
809.693726,322
809.8125,341
809.931274,343
810.050049,319
810.168884,342
810.287659,340
810.406372,326
810.525269,338
810.643982,315
810.762756,335
810.881531,327
811.000305,337
811.11908,325
811.237854,335
811.356567,336
811.475403,331
811.594116,322
811.71283,326
811.831604,339
811.950378,324
812.069153,329
812.187927,341
812.30658,342
812.425415,344
812.544128,335
812.662781,324
812.781616,327
812.900269,338
813.019043,331
813.137756,341
813.256531,308
813.375244,347
813.493896,319
813.612671,332
813.731384,327
813.850037,333
813.96875,319
814.087524,351
814.206238,324
814.324951,339
814.443604,322
814.562256,333
814.68103,320
814.799683,323
814.918335,321
815.037109,337
815.155762,321
815.274475,326
815.393188,331
815.511841,325
815.630554,329
815.749146,324
815.867859,341
815.986572,322
816.105164,330
816.223877,327
816.342529,314
816.461182,323
816.579895,334
816.698486,325
816.817139,333
816.935791,338
817.054504,320
817.173096,320
817.291748,325
817.4104,327
817.529053,335
817.647644,338
817.766235,329
817.884949,325
818.00354,318
818.122192,323
818.240845,332
818.359436,310
818.478088,336
818.59668,336
818.715271,333
818.833923,322
818.952515,323
819.071106,328
819.189758,320
819.30835,326
819.426941,327
819.545532,318
819.664124,323
819.782715,312
819.901306,307
820.019897,320
820.138489,321
820.25708,330
820.375671,314
820.494202,315
820.612732,328
820.731384,323
820.849915,321
820.968506,328
821.087097,320
821.205627,314
821.324158,310
821.442749,321
821.561279,328
821.679871,316
821.798401,314
821.916931,323
822.035461,328
822.154053,317
822.272583,328
822.391174,311
822.509583,308
822.628174,316
822.746704,324
822.865234,315
822.983765,322
823.102295,311
823.220825,313
823.339294,312
823.457825,315
823.576355,315
823.694824,309
823.813354,323
823.931885,318
824.050354,327
824.168884,296
824.287354,311
824.405823,318
824.524353,333
824.642822,312
824.761353,317
824.879822,326
824.998291,315
825.116699,305
825.235291,328
825.353699,324
825.472168,303
825.590637,312
825.709106,323
825.827576,317
825.946045,317
826.064453,316
826.182983,306
826.301392,323
826.4198,310
826.53833,322
826.656738,317
826.775208,298
826.893677,316
827.012024,319
827.130493,326
827.248962,308
827.36731,299
827.485779,318
827.604248,312
827.722595,316
827.841064,312
827.959412,314
828.077942,315
828.196289,317
828.314636,312
828.433105,320
828.551514,305
828.669861,305
828.78833,312
828.906677,309
829.025085,321
829.143433,307
829.261841,312
829.38031,308
829.498657,323
829.617004,318
829.735413,308
829.85376,306
829.972107,314
830.090515,309
830.208862,316
830.327209,327
830.445557,315
830.563904,307
830.682312,328
830.800659,308
830.919006,316
831.037354,310
831.155701,318
831.274048,308
831.392395,308
831.51062,313
831.629028,318
831.747314,322
831.865662,317
831.984009,310
832.102356,325
832.220642,309
832.338928,324
832.457275,306
832.575623,312
832.693909,314
832.812134,321
832.930481,324
833.048828,312
833.167114,316
833.2854,324
833.403687,309
833.521973,323
833.640259,302
833.758545,312
833.876831,312
833.995056,306
834.113281,305
834.231628,340
834.349915,305
834.468201,323
834.586426,309
834.704651,315
834.822998,305
834.941162,317
835.059448,305
835.177673,324
835.295959,314
835.414246,307
835.53241,307
835.650635,306
835.768921,320
835.887146,315
836.005371,310
836.123596,316
836.241821,316
836.360046,310
836.478271,314
836.596497,317
836.714722,307
836.832886,325
836.95105,315
837.069336,314
837.1875,321
837.305725,328
837.423889,322
837.542053,325
837.660339,311
837.778503,323
837.896667,313
838.014832,321
838.132996,308
838.25116,323
838.369385,316
838.487488,325
838.605713,315
838.723877,306
838.84198,320
838.960205,322
839.078308,312
839.196472,319
839.314636,308
839.4328,321
839.550964,323
839.669067,317
839.787231,314
839.905396,312
840.023499,323
840.141602,316
840.259766,305
840.377869,321
840.495972,313
840.614136,303
840.732239,300
840.850342,332
840.968445,319
841.086548,331
841.204651,318
841.322754,307
841.440918,303
841.55896,322
841.677002,294
841.795166,324
841.913208,318
842.031311,322
842.149353,311
842.267456,308
842.385498,320
842.503601,319
842.621643,298
842.739746,313
842.857788,317
842.97583,334
843.093933,312
843.211975,328
843.330017,330
843.44812,309
843.566101,315
843.684204,310
843.802246,312
843.920227,331
844.038269,319
844.156311,322
844.274292,314
844.392395,307
844.510376,312
844.628357,309
844.74646,316
844.864441,323
844.982422,307
845.100403,314
845.218384,307
845.336426,328
845.454468,297
845.572449,329
845.69043,303
845.808411,317
845.926453,313
846.044373,307
846.162354,303
846.280396,326
846.398315,312
846.516296,323
846.634216,307
846.752197,319
846.870178,312
846.988098,300
847.106079,315
847.22406,316
847.34198,314
847.4599,313
847.577881,315
847.695801,316
847.813782,327
847.931641,323
848.049561,293
848.167603,325
848.285461,322
848.403381,317
848.521362,311
848.639221,320
848.75708,316
848.875,311
848.99292,309
849.110901,315
849.22876,314
849.34668,311
849.464539,302
849.582458,316
849.700317,317
849.818176,311
849.936096,309
850.053955,324
850.171875,315
850.289673,323
850.407593,304
850.525452,312
850.643311,303
850.761169,329
850.878967,330
850.996887,313
851.114746,314
851.232544,324
851.350403,304
851.468262,315
851.58606,305
851.703979,322
851.821777,305
851.939636,323
852.057434,325
852.175232,316
852.293091,299
852.410889,311
852.528687,312
852.646545,309
852.764343,319
852.88208,312
852.999939,317
853.117676,325
853.235535,313
853.353271,322
853.471069,309
853.588928,320
853.706604,294
853.824402,316
853.9422,310
854.059998,326
854.177734,316
854.295532,307
854.413269,317
854.531006,308
854.648804,313
854.766541,313
854.884277,311
855.002014,328
855.119751,296
855.237549,314
855.355225,315
855.473022,309
855.590698,306
855.708435,315
855.826172,311
855.943848,318
856.061646,310
856.179321,318
856.296997,312
856.414795,309
856.53241,312
856.650085,316
856.767822,310
856.885559,319
857.003174,311
857.120911,321
857.238586,316
857.356201,315
857.473938,312
857.591614,314
857.709351,314
857.826965,317
857.944641,307
858.062317,316
858.179993,315
858.297668,334
858.415283,312
858.532959,302
858.650574,325
858.768188,325
858.885803,307
859.003479,308
859.121094,313
859.23877,319
859.356384,310
859.473999,322
859.591675,306
859.709229,301
859.826843,314
859.944458,307
860.062012,328
860.179626,317
860.297302,311
860.414856,318
860.532471,303
860.650024,315
860.767639,319
860.885193,318
861.002808,314
861.120361,308
861.237976,315
861.35553,318
861.473022,314
861.590698,320
861.708191,327
861.825745,310
861.943298,320
862.060852,307
862.178406,327
862.295959,316
862.413513,306
862.531006,302
862.64856,310
862.766113,332
862.883667,315
863.00116,322
863.118713,314
863.236206,327
863.353699,310
863.471252,321
863.588745,310
863.706177,311
863.82373,305
863.941162,321
864.058716,315
864.176208,316
864.29364,310
864.411194,319
864.528687,316
864.646118,325
864.763611,323
864.881042,323
864.998535,301
865.116028,322
865.233459,314
865.350891,336
865.468384,304
865.585754,323
865.703308,319
865.820679,327
865.938171,312
866.055542,305
866.173035,304
866.290466,314
866.407837,304
866.52533,312
866.6427,321
866.760071,326
866.877563,309
866.994934,317
867.112305,297
867.229736,315
867.347107,306
867.464539,320
867.58197,310
867.699341,326
867.81665,313
867.934082,307
868.051453,323
868.168823,315
868.286194,310
868.403564,311
868.520935,317
868.638306,328
868.755676,316
868.872986,306
868.990295,309
869.107727,301
869.225037,315
869.342346,313
869.459717,319
869.577026,322
869.694336,298
869.811707,314
869.929016,309
870.046326,316
870.163635,335
870.280945,326
870.398254,309
870.515564,315
870.632812,321
870.750183,318
870.867432,306
870.984741,314
871.102051,310
871.219299,316
871.336609,311
871.453918,316
871.571106,306
871.688416,326
871.805664,317
871.922852,302
872.040222,315
872.157471,317
872.274719,323
872.391968,328
872.509155,316
872.626465,326
872.743652,317
872.860962,311
872.978149,328
873.095337,318
873.212646,313
873.329834,322
873.44696,308
873.564209,310
873.681396,305
873.798645,319
873.915894,300
874.03302,311
874.150208,310
874.267456,313
874.384583,324
874.501831,323
874.618958,310
874.736145,325
874.853333,309
874.970459,317
875.087646,313
875.204834,312
875.32196,318
875.439148,314
875.556274,314
875.673401,321
875.790527,321
875.907715,312
876.024841,321
876.141968,300
876.259094,313
876.376282,314
876.493347,329
876.610474,318
876.7276,302
876.844727,302
876.961853,304
877.078918,308
877.195984,312
877.313171,324
877.430237,319
877.547302,320
877.664368,318
877.781433,311
877.898499,309
878.015625,315
878.13269,314
878.249695,317
878.366821,310
878.483887,327
878.600952,318
878.717957,328
878.834961,309
878.952087,306
879.069092,300
879.186157,324
879.303162,301
879.420227,320
879.537231,318
879.654236,314
879.77124,308
879.888306,311
880.005249,316
880.122314,324
880.239319,298
880.356323,321
880.473328,291
880.590271,318
880.707275,318
880.824341,305
880.941284,303
881.058228,317
881.175232,315
881.292236,320
881.40918,309
881.526123,318
881.643066,322
881.760071,320
881.877014,332
881.993958,311
882.11084,320
882.227783,326
882.344727,316
882.46167,313
882.578613,295
882.695618,318
882.812439,305
882.929382,327
883.046326,316
883.163208,319
883.280151,320
883.397034,321
883.513916,303
883.630798,326
883.747742,302
883.864563,324
883.981506,316
884.098389,318
884.21521,310
884.332153,322
884.448975,308
884.565796,324
884.682678,317
884.7995,312
884.916443,300
885.033264,321
885.150085,323
885.266968,330
885.383789,327
885.500671,324
885.617493,318
885.734314,316
885.851196,319
885.967896,317
886.084717,308
886.201599,323
886.318359,307
886.435181,321
886.552002,313
886.668762,326
886.785645,302
886.902344,333
887.019165,307
887.135925,309
887.252747,316
887.369446,326
887.486267,306
887.603027,319
887.719788,312
887.836548,321
887.953247,311
888.070068,302
888.186829,302
888.303528,321
888.420288,306
888.536987,308
888.653687,301
888.770447,332
888.887146,322
889.003967,317
889.120667,320
889.237305,323
889.354065,306
889.470703,316
889.587463,310
889.704163,325
889.820862,306
889.937561,330
890.054199,308
890.170837,315
890.287598,314
890.404236,312
890.520874,319
890.637634,300
890.754211,335
890.87085,311
890.987549,303
891.104187,312
891.220886,321
891.337463,321
891.454102,321
891.57074,311
891.687378,320
891.804077,308
891.920654,311
892.037231,322
892.15387,318
892.270447,325
892.387085,315
892.503723,311
892.6203,330
892.736877,321
892.853516,315
892.970032,316
893.08667,314
893.203186,313
893.319763,302
893.43634,319
893.552917,314
893.669556,316
893.786011,327
893.902588,317
894.019165,306
894.135681,304
894.252197,307
894.368835,308
894.485291,307
894.601868,319
894.718384,317
894.8349,311
894.951355,308
895.067932,310
895.184448,300
895.300964,317
895.417419,305
895.533936,311
895.650452,314
895.766907,327
895.883423,313
895.999878,311
896.116333,316
896.232849,322
896.349304,313
896.465759,331
896.582214,309
896.698669,320
896.815125,307
896.931641,327
897.048035,323
897.164551,319
897.280884,308
897.397339,317
897.513794,313
897.630249,328
897.746582,306
897.863098,322
897.979431,312
898.095886,305
898.212341,306
898.328674,324
898.445129,305
898.561462,305
898.677795,311
898.794312,314
898.910645,318
899.026978,315
899.143433,310
899.259766,316
899.37616,324
899.492493,309
899.608765,318
899.725159,307
899.841553,326
899.957947,330
900.07428,303
900.190552,332
900.306946,307
900.423157,313
900.53949,309
900.655884,311
900.772156,305
900.888489,322
901.004822,315
901.121033,319
901.237366,315
901.353699,326
901.46991,294
901.586304,321
901.702515,315
901.818787,324
901.93512,322
902.051331,322
902.167603,330
902.283875,321
902.400085,312
902.516418,312
902.632629,302
902.74884,322
902.865112,314
902.981384,311
903.097595,310
903.213867,315
903.330017,318
903.446289,326
903.5625,318
903.67865,325
903.794922,300
903.911072,307
904.027344,316
904.143494,321
904.259705,301
904.375916,322
904.492065,330
904.608215,318
904.724426,307
904.840576,321
904.956726,317
905.072876,323
905.189087,322
905.305176,314
905.421387,298
905.537537,320
905.653687,313
905.769775,317
905.885925,311
906.002014,306
906.118164,309
906.234314,330
906.350403,318
906.466492,308
906.582642,312
906.69873,322
906.814758,309
906.930908,322
907.046936,320
907.163086,321
907.279175,303
907.395264,314
907.511353,323
907.62738,336
907.743408,304
907.859497,329
907.975525,305
908.091553,306
908.207703,314
908.32373,308
908.439758,307
908.555786,311
908.671814,319
908.787842,315
908.90387,329
909.019775,312
909.135864,318
909.251892,314
909.367859,315
909.483826,309
909.599854,304
909.715881,329
909.831848,314
909.947815,314
910.063782,317
910.179749,329
910.295776,320
910.411743,306
910.527649,304
910.643616,320
910.759583,311
910.875488,312
910.991455,318
911.107361,321
911.223267,305
911.339294,320
911.4552,308
911.571106,317
911.687073,305
911.802979,313
911.918823,305
912.034729,327
912.150635,309
912.266602,311
912.382446,323
912.498352,309
912.614197,306
912.730103,314
912.846008,324
