792.44574,320
792.56488,349
792.68396,399
792.80304,382
792.92218,340
793.041199,305
793.160339,333
793.279419,327
793.398499,333
793.517578,318
793.636658,322
793.755737,341
793.874817,352
793.993896,344
794.112976,338
794.232056,324
794.351074,317
794.470215,329
794.589233,322
794.708313,330
794.827393,325
794.946411,339
795.065552,345
795.18457,335
795.303589,346
795.422668,332
795.541687,345
795.660767,335
795.779846,344
795.898865,324
796.017883,330
796.136963,338
796.255981,332
796.375061,333
796.49408,333
796.613037,333
796.732117,341
796.851135,331
796.970154,336
797.089233,314
797.208191,339
797.327271,318
797.446228,336
797.565186,320
797.684265,326
797.803223,342
797.922241,333
798.04126,319
798.160278,340
798.279297,336
798.398315,324
798.517273,332
798.636292,331
798.75531,332
798.874268,338
798.993286,331
799.112244,332
799.231323,332
799.350281,333
799.469238,322
799.588257,335
799.707153,329
799.826111,335
799.945129,326
800.064087,335
800.183044,329
800.302063,325
800.421021,325
800.539978,342
800.658936,337
800.777893,332
800.896912,313
801.015747,335
801.134705,324
801.253723,324
801.37262,336
801.491638,333
801.610535,329
801.729492,331
801.84845,335
801.967407,322
802.086243,337
802.205261,331
802.324158,326
802.443115,325
802.562073,338
802.680969,338
802.799927,322
802.918762,337
803.037659,342
803.156677,334
803.275574,324
803.39447,322
803.513428,322
803.632263,333
803.751221,318
803.870117,327
803.989014,342
804.107971,323
804.226746,334
804.345642,326
804.4646,343
804.583496,325
804.702393,316
804.821228,339
804.940125,325
805.059021,342
805.177917,323
805.296814,340
805.415649,321
805.534546,323
805.653442,334
805.772278,350
805.891113,335
806.01001,333
806.128906,325
806.247742,339
806.366577,324
806.485413,327
806.604309,338
806.723145,323
806.84198,339
806.960876,332
807.079712,333
807.198486,339
807.317383,334
807.436218,317
807.554993,331
807.673889,333
807.792725,331
807.91156,344
808.030396,327
808.14917,326
808.268005,321
808.386841,326
808.505676,329
808.624451,337
808.743286,332
808.862122,334
808.980896,330
809.099731,332
809.218506,330
809.337341,346
809.456116,327
809.57489,320
809.693726,327
809.8125,333
809.931274,345
810.050049,334
810.168884,329
810.287659,346
810.406372,316
810.525269,346
810.643982,335
810.762756,316
810.881531,338
811.000305,345
811.11908,324
811.237854,333
811.356567,324
811.475403,319
811.594116,334
811.71283,329
811.831604,327
811.950378,345
812.069153,323
812.187927,334
812.30658,338
812.425415,334
812.544128,317
812.662781,337
812.781616,330
812.900269,334
813.019043,332
813.137756,328
813.256531,338
813.375244,346
813.493896,341
813.612671,332
813.731384,345
813.850037,329
813.96875,325
814.087524,331
814.206238,333
814.324951,340
814.443604,319
814.562256,339
814.68103,318
814.799683,337
814.918335,337
815.037109,333
815.155762,329
815.274475,323
815.393188,336
815.511841,331
815.630554,324
815.749146,325
815.867859,333
815.986572,337
816.105164,326
816.223877,344
816.342529,333
816.461182,338
816.579895,339
816.698486,338
816.817139,330
816.935791,327
817.054504,334
817.173096,332
817.291748,317
817.4104,328
817.529053,323
817.647644,339
817.766235,325
817.884949,325
818.00354,346
818.122192,326
818.240845,324
818.359436,316
818.478088,332
818.59668,324
818.715271,327
818.833923,330
818.952515,320
819.071106,324
819.189758,327
819.30835,333
819.426941,314
819.545532,325
819.664124,321
819.782715,326
819.901306,320
820.019897,318
820.138489,324
820.25708,318
820.375671,310
820.494202,319
820.612732,314
820.731384,318
820.849915,325
820.968506,326
821.087097,308
821.205627,326
821.324158,303
821.442749,334
821.561279,313
821.679871,317
821.798401,313
821.916931,321
822.035461,316
822.154053,330
822.272583,316
822.391174,321
822.509583,321
822.628174,318
822.746704,308
822.865234,323
822.983765,315
823.102295,320
823.220825,313
823.339294,321
823.457825,331
823.576355,308
823.694824,321
823.813354,334
823.931885,314
824.050354,329
824.168884,304
824.287354,317
824.405823,320
824.524353,323
824.642822,322
824.761353,313
824.879822,331
824.998291,327
825.116699,326
825.235291,321
825.353699,318
825.472168,322
825.590637,323
825.709106,324
825.827576,307
825.946045,319
826.064453,320
826.182983,332
826.301392,314
826.4198,331
826.53833,320
826.656738,323
826.775208,307
826.893677,330
827.012024,322
827.130493,316
827.248962,313
827.36731,308
827.485779,322
827.604248,320
827.722595,311
827.841064,333
827.959412,317
828.077942,311
828.196289,335
828.314636,315
828.433105,309
828.551514,329
828.669861,311
828.78833,311
828.906677,321
829.025085,308
829.143433,308
829.261841,311
829.38031,313
829.498657,327
829.617004,296
829.735413,314
829.85376,314
829.972107,315
830.090515,315
830.208862,326
830.327209,316
830.445557,319
830.563904,313
830.682312,328
830.800659,311
830.919006,317
831.037354,307
831.155701,320
831.274048,323
831.392395,312
831.51062,314
831.629028,311
831.747314,316
831.865662,309
831.984009,305
832.102356,326
832.220642,316
832.338928,327
832.457275,325
832.575623,323
832.693909,328
832.812134,307
832.930481,313
833.048828,318
833.167114,309
833.2854,318
833.403687,318
833.521973,327
833.640259,310
833.758545,315
833.876831,305
833.995056,322
834.113281,318
834.231628,313
834.349915,312
834.468201,311
834.586426,311
834.704651,321
834.822998,321
834.941162,317
835.059448,312
835.177673,318
835.295959,310
835.414246,321
835.53241,313
835.650635,314
835.768921,318
835.887146,311
836.005371,321
836.123596,308
836.241821,323
836.360046,327
836.478271,310
836.596497,326
836.714722,329
836.832886,318
836.95105,321
837.069336,325
837.1875,318
837.305725,321
837.423889,309
837.542053,321
837.660339,332
837.778503,320
837.896667,311
838.014832,315
838.132996,309
838.25116,333
838.369385,319
838.487488,328
838.605713,312
838.723877,305
838.84198,320
838.960205,311
839.078308,320
839.196472,316
839.314636,316
839.4328,316
839.550964,325
839.669067,314
839.787231,321
839.905396,315
840.023499,324
840.141602,316
840.259766,307
840.377869,323
840.495972,316
840.614136,320
840.732239,327
840.850342,322
840.968445,323
841.086548,305
841.204651,318
841.322754,329
841.440918,305
841.55896,316
841.677002,310
841.795166,335
841.913208,304
842.031311,315
842.149353,320
842.267456,319
842.385498,316
842.503601,318
842.621643,308
842.739746,322
842.857788,305
842.97583,334
843.093933,318
843.211975,317
843.330017,308
843.44812,317
843.566101,322
843.684204,318
843.802246,303
843.920227,313
844.038269,308
844.156311,322
844.274292,314
844.392395,325
844.510376,301
844.628357,331
844.74646,309
844.864441,329
844.982422,306
845.100403,319
845.218384,309
845.336426,324
845.454468,319
845.572449,306
845.69043,318
845.808411,333
845.926453,321
846.044373,314
846.162354,309
846.280396,324
846.398315,316
846.516296,318
846.634216,300
846.752197,318
846.870178,311
846.988098,329
847.106079,312
847.22406,316
847.34198,315
847.4599,307
847.577881,318
847.695801,332
847.813782,312
847.931641,324
848.049561,306
848.167603,316
848.285461,308
848.403381,320
848.521362,310
848.639221,321
848.75708,319
848.875,321
848.99292,311
849.110901,322
849.22876,296
849.34668,319
849.464539,304
849.582458,316
849.700317,321
849.818176,317
849.936096,317
850.053955,322
850.171875,319
850.289673,323
850.407593,320
850.525452,307
850.643311,315
850.761169,315
850.878967,321
850.996887,312
851.114746,301
851.232544,320
851.350403,319
851.468262,304
851.58606,317
851.703979,313
851.821777,304
851.939636,318
852.057434,310
852.175232,312
852.293091,313
852.410889,319
852.528687,306
852.646545,314
852.764343,315
852.88208,318
852.999939,310
853.117676,313
853.235535,311
853.353271,323
853.471069,324
853.588928,317
853.706604,316
853.824402,312
853.9422,322
854.059998,309
854.177734,314
854.295532,310
854.413269,302
854.531006,316
854.648804,309
854.766541,330
854.884277,317
855.002014,313
855.119751,312
855.237549,323
855.355225,321
855.473022,318
855.590698,304
855.708435,317
855.826172,309
855.943848,319
856.061646,308
856.179321,308
856.296997,305
856.414795,320
856.53241,326
856.650085,324
856.767822,310
856.885559,322
857.003174,310
857.120911,329
857.238586,320
857.356201,314
857.473938,311
857.591614,324
857.709351,312
857.826965,320
857.944641,312
858.062317,310
858.179993,298
858.297668,313
858.415283,313
858.532959,311
858.650574,303
858.768188,308
858.885803,300
859.003479,302
859.121094,304
859.23877,311
859.356384,319
859.473999,321
859.591675,317
859.709229,321
859.826843,313
859.944458,316
860.062012,306
860.179626,307
860.297302,321
860.414856,306
860.532471,311
860.650024,322
860.767639,311
860.885193,312
861.002808,309
861.120361,310
861.237976,315
861.35553,326
861.473022,303
861.590698,317
861.708191,329
861.825745,324
861.943298,302
862.060852,315
862.178406,326
862.295959,321
862.413513,320
862.531006,320
862.64856,309
862.766113,311
862.883667,318
863.00116,315
863.118713,312
863.236206,329
863.353699,321
863.471252,309
863.588745,313
863.706177,312
863.82373,311
863.941162,317
864.058716,320
864.176208,321
864.29364,314
864.411194,324
864.528687,310
864.646118,318
864.763611,320
864.881042,313
864.998535,309
865.116028,319
865.233459,320
865.350891,319
865.468384,316
865.585754,316
865.703308,309
865.820679,319
865.938171,314
866.055542,321
866.173035,313
866.290466,311
866.407837,313
866.52533,317
866.6427,315
866.760071,319
866.877563,306
866.994934,315
867.112305,310
867.229736,323
867.347107,325
867.464539,323
867.58197,309
867.699341,315
867.81665,322
867.934082,324
868.051453,313
868.168823,301
868.286194,329
868.403564,325
868.520935,309
868.638306,336
868.755676,313
868.872986,314
868.990295,309
869.107727,318
869.225037,311
869.342346,319
869.459717,297
869.577026,309
869.694336,320
869.811707,329
869.929016,313
870.046326,302
870.163635,307
870.280945,325
870.398254,304
870.515564,322
870.632812,312
870.750183,308
870.867432,315
870.984741,311
871.102051,313
871.219299,309
871.336609,315
871.453918,307
871.571106,316
871.688416,317
871.805664,329
871.922852,333
872.040222,310
872.157471,313
872.274719,309
872.391968,334
872.509155,313
872.626465,318
872.743652,329
872.860962,304
872.978149,316
873.095337,317
873.212646,313
873.329834,317
873.44696,293
873.564209,317
873.681396,318
873.798645,329
873.915894,328
874.03302,322
874.150208,319
874.267456,316
874.384583,310
874.501831,310
874.618958,316
874.736145,329
874.853333,323
874.970459,316
875.087646,316
875.204834,318
875.32196,310
875.439148,328
875.556274,309
875.673401,328
875.790527,314
875.907715,324
876.024841,315
876.141968,319
876.259094,317
876.376282,323
876.493347,319
876.610474,321
876.7276,312
876.844727,305
876.961853,313
877.078918,317
877.195984,306
877.313171,302
877.430237,307
877.547302,324
877.664368,315
877.781433,318
877.898499,307
878.015625,325
878.13269,313
878.249695,329
878.366821,310
878.483887,313
878.600952,310
878.717957,322
878.834961,321
878.952087,329
879.069092,321
879.186157,316
879.303162,311
879.420227,327
879.537231,306
879.654236,316
879.77124,304
879.888306,318
880.005249,311
880.122314,313
880.239319,309
880.356323,318
880.473328,307
880.590271,328
880.707275,318
880.824341,312
880.941284,315
881.058228,323
881.175232,318
881.292236,320
881.40918,303
881.526123,324
881.643066,321
881.760071,307
881.877014,307
881.993958,314
882.11084,321
882.227783,315
882.344727,307
882.46167,320
882.578613,295
882.695618,323
882.812439,296
882.929382,326
883.046326,294
883.163208,318
883.280151,305
883.397034,309
883.513916,311
883.630798,315
883.747742,314
883.864563,322
883.981506,319
884.098389,315
884.21521,303
884.332153,312
884.448975,309
884.565796,330
884.682678,318
884.7995,324
884.916443,307
885.033264,320
885.150085,306
885.266968,316
885.383789,322
885.500671,323
885.617493,317
885.734314,321
885.851196,302
885.967896,333
886.084717,301
886.201599,330
886.318359,305
886.435181,315
886.552002,311
886.668762,314
886.785645,308
886.902344,320
887.019165,304
887.135925,328
887.252747,315
887.369446,326
887.486267,323
887.603027,332
887.719788,304
887.836548,316
887.953247,308
888.070068,332
888.186829,306
888.303528,314
888.420288,313
888.536987,330
888.653687,309
888.770447,328
888.887146,315
889.003967,316
889.120667,311
889.237305,327
889.354065,322
889.470703,314
889.587463,321
889.704163,321
889.820862,311
889.937561,310
890.054199,320
890.170837,319
890.287598,310
890.404236,304
890.520874,309
890.637634,316
890.754211,313
890.87085,313
890.987549,312
891.104187,319
891.220886,304
891.337463,321
891.454102,318
891.57074,309
891.687378,316
891.804077,323
891.920654,321
892.037231,311
892.15387,317
892.270447,323
892.387085,314
892.503723,323
892.6203,327
892.736877,319
892.853516,318
892.970032,326
893.08667,311
893.203186,324
893.319763,317
893.43634,318
893.552917,323
893.669556,304
893.786011,307
893.902588,323
894.019165,315
894.135681,316
894.252197,306
894.368835,312
894.485291,310
894.601868,322
894.718384,307
894.8349,311
894.951355,314
895.067932,321
895.184448,314
895.300964,333
895.417419,291
895.533936,313
895.650452,316
895.766907,325
895.883423,317
895.999878,334
896.116333,316
896.232849,324
896.349304,316
896.465759,322
896.582214,317
896.698669,320
896.815125,317
896.931641,315
897.048035,317
897.164551,306
897.280884,312
897.397339,321
897.513794,331
897.630249,327
897.746582,319
897.863098,315
897.979431,315
898.095886,330
898.212341,310
898.328674,311
898.445129,319
898.561462,316
898.677795,306
898.794312,319
898.910645,302
899.026978,318
899.143433,315
899.259766,313
899.37616,313
899.492493,312
899.608765,318
899.725159,321
899.841553,317
899.957947,308
900.07428,320
900.190552,318
900.306946,322
900.423157,328
900.53949,318
900.655884,316
900.772156,314
900.888489,309
901.004822,319
901.121033,317
901.237366,305
901.353699,318
901.46991,317
901.586304,324
901.702515,317
901.818787,312
901.93512,314
902.051331,340
902.167603,305
902.283875,305
902.400085,321
902.516418,324
902.632629,311
902.74884,327
902.865112,325
902.981384,315
903.097595,313
903.213867,322
903.330017,304
903.446289,303
903.5625,311
903.67865,328
903.794922,316
903.911072,327
904.027344,303
904.143494,320
904.259705,312
904.375916,314
904.492065,311
904.608215,322
904.724426,297
904.840576,313
904.956726,312
905.072876,323
905.189087,317
905.305176,324
905.421387,319
905.537537,306
905.653687,322
905.769775,333
905.885925,317
906.002014,324
906.118164,315
906.234314,322
906.350403,315
906.466492,314
906.582642,332
906.69873,314
906.814758,318
906.930908,316
907.046936,318
907.163086,323
907.279175,306
907.395264,317
907.511353,312
907.62738,315
907.743408,314
907.859497,309
907.975525,321
908.091553,310
908.207703,321
908.32373,315
908.439758,307
908.555786,319
908.671814,312
908.787842,313
908.90387,317
909.019775,318
909.135864,320
909.251892,320
909.367859,315
909.483826,310
909.599854,314
909.715881,318
909.831848,321
909.947815,314
910.063782,308
910.179749,322
910.295776,310
910.411743,312
910.527649,319
910.643616,318
910.759583,302
910.875488,328
910.991455,327
911.107361,308
911.223267,321
911.339294,310
911.4552,314
911.571106,326
911.687073,326
911.802979,327
911.918823,303
912.034729,311
912.150635,322
912.266602,321
912.382446,306
912.498352,315
912.614197,310
912.730103,326
912.846008,309
792.44574,327
792.56488,340
792.68396,408
792.80304,385
792.92218,333
793.041199,317
793.160339,331
793.279419,349
793.398499,340
793.517578,321
793.636658,336
793.755737,340
793.874817,365
793.993896,340
794.112976,328
794.232056,323
794.351074,325
794.470215,341
794.589233,335
794.708313,321
794.827393,329
794.946411,336
795.065552,344
795.18457,335
795.303589,330
795.422668,340
795.541687,326
795.660767,323
795.779846,334
795.898865,335
796.017883,337
796.136963,337
796.255981,337
796.375061,337
796.49408,339
796.613037,347
796.732117,327
796.851135,342
796.970154,341
797.089233,319
797.208191,335
797.327271,330
797.446228,319
797.565186,334
797.684265,324
797.803223,330
797.922241,338
798.04126,336
798.160278,330
798.279297,330
798.398315,315
798.517273,331
798.636292,324
798.75531,331
798.874268,332
798.993286,327
799.112244,329
799.231323,330
799.350281,306
799.469238,349
799.588257,335
799.707153,330
799.826111,337
799.945129,336
800.064087,334
800.183044,337
800.302063,344
800.421021,324
800.539978,314
800.658936,331
800.777893,339
800.896912,327
801.015747,328
801.134705,323
801.253723,334
801.37262,339
801.491638,333
801.610535,333
801.729492,331
801.84845,329
801.967407,338
802.086243,324
802.205261,318
802.324158,333
802.443115,327
802.562073,326
802.680969,339
802.799927,322
802.918762,344
803.037659,328
803.156677,337
803.275574,334
803.39447,335
803.513428,335
803.632263,334
803.751221,341
803.870117,333
803.989014,331
804.107971,325
804.226746,343
804.345642,353
804.4646,340
804.583496,321
804.702393,316
804.821228,325
804.940125,336
805.059021,333
805.177917,330
805.296814,332
805.415649,329
805.534546,351
805.653442,334
805.772278,337
805.891113,327
806.01001,343
806.128906,322
806.247742,330
806.366577,313
806.485413,338
806.604309,339
806.723145,322
806.84198,322
806.960876,336
807.079712,338
807.198486,332
807.317383,337
807.436218,334
807.554993,336
807.673889,343
807.792725,342
807.91156,336
808.030396,337
808.14917,325
808.268005,353
808.386841,319
808.505676,333
808.624451,339
808.743286,331
808.862122,330
808.980896,332
809.099731,345
809.218506,330
809.337341,352
809.456116,336
809.57489,329
809.693726,335
809.8125,331
809.931274,332
810.050049,329
810.168884,328
810.287659,343
810.406372,335
810.525269,338
810.643982,317
810.762756,335
810.881531,333
811.000305,339
811.11908,347
811.237854,347
811.356567,332
811.475403,335
811.594116,335
811.71283,338
811.831604,321
811.950378,341
812.069153,344
812.187927,346
812.30658,344
812.425415,331
812.544128,325
812.662781,335
812.781616,334
812.900269,338
813.019043,334
813.137756,349
813.256531,344
813.375244,344
813.493896,328
813.612671,335
813.731384,342
813.850037,337
813.96875,313
814.087524,329
814.206238,327
814.324951,336
814.443604,320
814.562256,336
814.68103,328
814.799683,335
814.918335,328
815.037109,352
815.155762,333
815.274475,330
815.393188,335
815.511841,333
815.630554,329
815.749146,335
815.867859,324
815.986572,323
816.105164,324
816.223877,345
816.342529,317
816.461182,331
816.579895,337
816.698486,331
816.817139,322
816.935791,331
817.054504,333
817.173096,337
817.291748,321
817.4104,325
817.529053,328
817.647644,345
817.766235,322
817.884949,341
818.00354,322
818.122192,313
818.240845,310
818.359436,324
818.478088,342
818.59668,315
818.715271,318
818.833923,328
818.952515,323
819.071106,325
819.189758,336
819.30835,326
819.426941,334
819.545532,324
819.664124,328
819.782715,320
819.901306,320
820.019897,322
820.138489,314
820.25708,323
820.375671,317
820.494202,317
820.612732,325
820.731384,326
820.849915,323
820.968506,327
821.087097,313
821.205627,312
821.324158,320
821.442749,320
821.561279,323
821.679871,326
821.798401,331
821.916931,311
822.035461,329
822.154053,314
822.272583,330
822.391174,318
822.509583,309
822.628174,319
822.746704,326
822.865234,321
822.983765,303
823.102295,312
823.220825,335
823.339294,318
823.457825,315
823.576355,310
823.694824,327
823.813354,325
823.931885,323
824.050354,328
824.168884,313
824.287354,313
824.405823,323
824.524353,317
824.642822,319
824.761353,326
824.879822,321
824.998291,321
825.116699,307
825.235291,313
825.353699,338
825.472168,319
825.590637,313
825.709106,323
825.827576,315
825.946045,330
826.064453,310
826.182983,350
826.301392,315
826.4198,321
826.53833,313
826.656738,316
826.775208,316
826.893677,329
827.012024,319
827.130493,321
827.248962,317
827.36731,337
827.485779,320
827.604248,313
827.722595,313
827.841064,326
827.959412,312
828.077942,332
828.196289,320
828.314636,312
828.433105,313
828.551514,323
828.669861,313
828.78833,302
828.906677,320
829.025085,316
829.143433,316
829.261841,314
829.38031,315
829.498657,318
829.617004,310
829.735413,323
829.85376,312
829.972107,307
830.090515,310
830.208862,330
830.327209,325
830.445557,321
830.563904,303
830.682312,318
830.800659,288
830.919006,318
831.037354,322
831.155701,304
831.274048,317
831.392395,320
831.51062,324
831.629028,324
831.747314,309
831.865662,315
831.984009,312
832.102356,325
832.220642,313
832.338928,322
832.457275,318
832.575623,309
832.693909,312
832.812134,317
832.930481,314
833.048828,314
833.167114,304
833.2854,318
833.403687,321
833.521973,314
833.640259,335
833.758545,327
833.876831,318
833.995056,328
834.113281,308
834.231628,321
834.349915,298
834.468201,323
834.586426,316
834.704651,324
834.822998,308
834.941162,318
835.059448,316
835.177673,316
835.295959,317
835.414246,314
835.53241,311
835.650635,319
835.768921,324
835.887146,310
836.005371,321
836.123596,309
836.241821,309
836.360046,331
836.478271,303
836.596497,328
836.714722,319
836.832886,331
836.95105,322
837.069336,312
837.1875,321
837.305725,323
837.423889,315
837.542053,323
837.660339,319
837.778503,318
837.896667,323
838.014832,316
838.132996,320
838.25116,309
838.369385,317
838.487488,329
838.605713,305
838.723877,322
838.84198,316
838.960205,316
839.078308,312
839.196472,316
839.314636,316
839.4328,324
839.550964,324
839.669067,317
839.787231,303
839.905396,320
840.023499,304
840.141602,311
840.259766,307
840.377869,317
840.495972,326
840.614136,316
840.732239,311
840.850342,324
840.968445,325
841.086548,324
841.204651,318
841.322754,314
841.440918,316
841.55896,324
841.677002,327
841.795166,315
841.913208,313
842.031311,296
842.149353,320
842.267456,327
842.385498,316
842.503601,331
842.621643,318
842.739746,320
842.857788,307
842.97583,305
843.093933,315
843.211975,316
843.330017,320
843.44812,324
843.566101,321
843.684204,329
843.802246,317
843.920227,324
844.038269,309
844.156311,324
844.274292,313
844.392395,326
844.510376,322
844.628357,316
844.74646,295
844.864441,319
844.982422,321
845.100403,319
845.218384,308
845.336426,313
845.454468,315
845.572449,298
845.69043,321
845.808411,318
845.926453,301
846.044373,325
846.162354,330
846.280396,328
846.398315,324
846.516296,312
846.634216,325
846.752197,323
846.870178,307
846.988098,313
847.106079,314
847.22406,301
847.34198,310
847.4599,317
847.577881,322
847.695801,322
847.813782,317
847.931641,317
848.049561,322
848.167603,322
848.285461,311
848.403381,331
848.521362,315
848.639221,319
848.75708,326
848.875,326
848.99292,311
849.110901,308
849.22876,313
849.34668,310
849.464539,304
849.582458,312
849.700317,304
849.818176,331
849.936096,324
850.053955,320
850.171875,303
850.289673,327
850.407593,311
850.525452,316
850.643311,313
850.761169,315
850.878967,326
850.996887,321
851.114746,311
851.232544,310
851.350403,302
851.468262,306
851.58606,323
851.703979,315
851.821777,313
851.939636,311
852.057434,315
852.175232,327
852.293091,315
852.410889,327
852.528687,322
852.646545,318
852.764343,326
852.88208,314
852.999939,305
853.117676,320
853.235535,305
853.353271,322
853.471069,325
853.588928,316
853.706604,317
853.824402,314
853.9422,320
854.059998,331
854.177734,306
854.295532,308
854.413269,304
854.531006,321
854.648804,307
854.766541,311
854.884277,333
855.002014,308
855.119751,313
855.237549,324
855.355225,315
855.473022,311
855.590698,305
855.708435,314
855.826172,321
855.943848,312
856.061646,316
856.179321,320
856.296997,316
856.414795,317
856.53241,311
856.650085,302
856.767822,317
856.885559,331
857.003174,321
857.120911,313
857.238586,309
857.356201,320
857.473938,325
857.591614,307
857.709351,326
857.826965,324
857.944641,324
858.062317,310
858.179993,313
858.297668,308
858.415283,324
858.532959,313
858.650574,312
858.768188,332
858.885803,317
859.003479,322
859.121094,310
859.23877,313
859.356384,314
859.473999,325
859.591675,316
859.709229,320
859.826843,317
859.944458,320
860.062012,311
860.179626,319
860.297302,318
860.414856,321
860.532471,306
860.650024,323
860.767639,318
860.885193,315
861.002808,327
861.120361,309
861.237976,326
861.35553,319
861.473022,314
861.590698,329
861.708191,305
861.825745,305
861.943298,310
862.060852,314
862.178406,321
862.295959,322
862.413513,327
862.531006,311
862.64856,313
862.766113,325
862.883667,306
863.00116,313
863.118713,310
863.236206,320
863.353699,318
863.471252,317
863.588745,317
863.706177,322
863.82373,310
863.941162,336
864.058716,303
864.176208,312
864.29364,317
864.411194,325
864.528687,312
864.646118,321
864.763611,314
864.881042,320
864.998535,315
865.116028,308
865.233459,318
865.350891,319
865.468384,322
865.585754,319
865.703308,317
865.820679,309
865.938171,311
866.055542,314
866.173035,306
866.290466,323
866.407837,326
866.52533,315
866.6427,304
866.760071,322
866.877563,321
866.994934,319
867.112305,302
867.229736,319
867.347107,301
867.464539,325
867.58197,315
867.699341,319
867.81665,323
867.934082,312
868.051453,310
868.168823,326
868.286194,323
868.403564,317
868.520935,318
868.638306,317
868.755676,320
868.872986,318
868.990295,315
869.107727,318
869.225037,311
869.342346,318
869.459717,325
869.577026,330
869.694336,308
869.811707,319
869.929016,322
870.046326,310
870.163635,318
870.280945,314
870.398254,322
870.515564,326
870.632812,308
870.750183,324
870.867432,296
870.984741,315
871.102051,314
871.219299,308
871.336609,320
871.453918,320
871.571106,313
871.688416,313
871.805664,307
871.922852,314
872.040222,310
872.157471,318
872.274719,305
872.391968,321
872.509155,301
872.626465,326
872.743652,311
872.860962,314
872.978149,308
873.095337,311
873.212646,318
873.329834,328
873.44696,308
873.564209,317
873.681396,318
873.798645,316
873.915894,322
874.03302,313
874.150208,305
874.267456,309
874.384583,325
874.501831,326
874.618958,315
874.736145,322
874.853333,299
874.970459,320
875.087646,318
875.204834,314
875.32196,319
875.439148,320
875.556274,318
875.673401,317
875.790527,310
875.907715,324
876.024841,321
876.141968,318
876.259094,315
876.376282,322
876.493347,318
876.610474,313
876.7276,308
876.844727,337
876.961853,310
877.078918,320
877.195984,311
877.313171,311
877.430237,315
877.547302,328
877.664368,322
877.781433,318
877.898499,319
878.015625,318
878.13269,317
878.249695,312
878.366821,302
878.483887,324
878.600952,329
878.717957,312
878.834961,307
878.952087,323
879.069092,308
879.186157,314
879.303162,320
879.420227,315
879.537231,310
879.654236,324
879.77124,316
879.888306,332
880.005249,314
880.122314,311
880.239319,317
880.356323,324
880.473328,324
880.590271,314
880.707275,311
880.824341,319
880.941284,311
881.058228,317
881.175232,314
881.292236,321
881.40918,316
881.526123,327
881.643066,316
881.760071,316
881.877014,316
881.993958,318
882.11084,316
882.227783,311
882.344727,308
882.46167,319
882.578613,318
882.695618,316
882.812439,314
882.929382,319
883.046326,300
883.163208,324
883.280151,311
883.397034,311
883.513916,323
883.630798,314
883.747742,323
883.864563,318
883.981506,323
884.098389,316
884.21521,307
884.332153,322
884.448975,316
884.565796,321
884.682678,307
884.7995,316
884.916443,305
885.033264,310
885.150085,305
885.266968,302
885.383789,309
885.500671,312
885.617493,322
885.734314,309
885.851196,306
885.967896,321
886.084717,312
886.201599,320
886.318359,318
886.435181,337
886.552002,313
886.668762,328
886.785645,308
886.902344,298
887.019165,318
887.135925,315
887.252747,322
887.369446,316
887.486267,316
887.603027,318
887.719788,319
887.836548,308
887.953247,327
888.070068,326
888.186829,304
888.303528,318
888.420288,306
888.536987,320
888.653687,315
888.770447,317
888.887146,324
889.003967,328
889.120667,323
889.237305,327
889.354065,313
889.470703,316
889.587463,310
889.704163,310
889.820862,317
889.937561,315
890.054199,300
890.170837,309
890.287598,314
890.404236,312
890.520874,322
890.637634,320
890.754211,310
890.87085,313
890.987549,326
891.104187,314
891.220886,315
891.337463,312
891.454102,309
891.57074,317
891.687378,310
891.804077,323
891.920654,308
892.037231,316
892.15387,322
892.270447,323
892.387085,316
892.503723,313
892.6203,311
892.736877,317
892.853516,318
892.970032,308
893.08667,310
893.203186,311
893.319763,315
893.43634,319
893.552917,321
893.669556,312
893.786011,321
893.902588,332
894.019165,308
894.135681,323
894.252197,302
894.368835,316
894.485291,314
894.601868,321
894.718384,315
894.8349,324
894.951355,311
895.067932,319
895.184448,308
895.300964,320
895.417419,316
895.533936,318
895.650452,315
895.766907,321
895.883423,318
895.999878,315
896.116333,323
896.232849,318
896.349304,309
896.465759,329
896.582214,298
896.698669,318
896.815125,310
896.931641,321
897.048035,322
897.164551,317
897.280884,324
897.397339,326
897.513794,320
897.630249,312
897.746582,311
897.863098,333
897.979431,322
898.095886,318
898.212341,320
898.328674,325
898.445129,316
898.561462,322
898.677795,318
898.794312,308
898.910645,311
899.026978,321
899.143433,317
899.259766,320
899.37616,321
899.492493,306
899.608765,320
899.725159,311
899.841553,313
899.957947,323
900.07428,318
900.190552,324
900.306946,310
900.423157,327
900.53949,316
900.655884,310
900.772156,316
900.888489,324
901.004822,306
901.121033,318
901.237366,316
901.353699,313
901.46991,306
901.586304,316
901.702515,329
901.818787,321
901.93512,321
902.051331,323
902.167603,315
902.283875,317
902.400085,304
902.516418,330
902.632629,314
902.74884,331
902.865112,331
902.981384,327
903.097595,306
903.213867,319
903.330017,320
903.446289,308
903.5625,314
903.67865,316
903.794922,322
903.911072,319
904.027344,317
904.143494,319
904.259705,317
904.375916,317
904.492065,311
904.608215,329
904.724426,316
904.840576,338
904.956726,328
905.072876,292
905.189087,315
905.305176,315
905.421387,299
905.537537,321
905.653687,318
905.769775,307
905.885925,313
906.002014,314
906.118164,311
906.234314,321
906.350403,306
906.466492,324
906.582642,316
906.69873,315
906.814758,310
906.930908,326
907.046936,320
907.163086,320
907.279175,304
907.395264,316
907.511353,307
907.62738,325
907.743408,323
907.859497,303
907.975525,306
908.091553,318
908.207703,320
908.32373,327
908.439758,328
908.555786,325
908.671814,308
908.787842,318
908.90387,327
909.019775,331
909.135864,324
909.251892,320
909.367859,316
909.483826,324
909.599854,312
909.715881,320
909.831848,303
909.947815,313
910.063782,326
910.179749,313
910.295776,311
910.411743,316
910.527649,315
910.643616,332
910.759583,326
910.875488,317
910.991455,321
911.107361,314
911.223267,323
911.339294,321
911.4552,311
911.571106,323
911.687073,323
911.802979,307
911.918823,305
912.034729,330
912.150635,314
912.266602,310
912.382446,312
912.498352,324
912.614197,305
912.730103,326
912.846008,311
792.44574,311
792.56488,374
792.68396,392
792.80304,388
792.92218,345
793.041199,331
793.160339,336
793.279419,335
793.398499,334
793.517578,299
793.636658,311
793.755737,339
793.874817,355
793.993896,347
794.112976,331
794.232056,323
794.351074,325
794.470215,338
794.589233,323
794.708313,311
794.827393,329
794.946411,320
795.065552,343
795.18457,357
795.303589,333
795.422668,331
795.541687,345
795.660767,324
795.779846,333
795.898865,324
796.017883,343
796.136963,330
796.255981,339
796.375061,313
796.49408,333
796.613037,328
796.732117,327
796.851135,328
796.970154,335
797.089233,327
797.208191,333
797.327271,335
797.446228,334
797.565186,333
797.684265,345
797.803223,330
797.922241,325
798.04126,315
798.160278,329
798.279297,333
798.398315,327
798.517273,318
798.636292,320
798.75531,328
798.874268,337
798.993286,327
799.112244,330
799.231323,331
799.350281,325
799.469238,341
799.588257,324
799.707153,331
799.826111,345
799.945129,331
800.064087,318
800.183044,331
800.302063,326
800.421021,313
800.539978,341
800.658936,316
800.777893,336
800.896912,325
801.015747,328
801.134705,332
801.253723,341
801.37262,332
801.491638,336
801.610535,344
801.729492,344
801.84845,315
801.967407,338
802.086243,332
802.205261,344
802.324158,325
802.443115,324
802.562073,337
802.680969,341
802.799927,341
802.918762,333
803.037659,339
803.156677,324
803.275574,335
803.39447,326
803.513428,332
803.632263,342
803.751221,332
803.870117,335
803.989014,326
804.107971,335
804.226746,333
804.345642,333
804.4646,332
804.583496,332
804.702393,339
804.821228,334
804.940125,341
805.059021,341
805.177917,325
805.296814,336
805.415649,325
805.534546,339
805.653442,317
805.772278,339
805.891113,320
806.01001,331
806.128906,325
806.247742,324
806.366577,327
806.485413,337
806.604309,324
806.723145,336
806.84198,330
806.960876,322
807.079712,331
807.198486,327
807.317383,316
807.436218,336
807.554993,346
807.673889,334
807.792725,328
807.91156,332
808.030396,334
808.14917,315
808.268005,337
808.386841,335
808.505676,326
808.624451,348
808.743286,319
808.862122,331
808.980896,331
809.099731,337
809.218506,341
809.337341,319
809.456116,336
809.57489,337
809.693726,326
809.8125,348
809.931274,338
810.050049,335
810.168884,327
810.287659,344
810.406372,343
810.525269,346
810.643982,339
810.762756,341
810.881531,326
811.000305,325
811.11908,346
811.237854,321
811.356567,333
811.475403,335
811.594116,326
811.71283,329
811.831604,340
811.950378,333
812.069153,328
812.187927,348
812.30658,336
812.425415,323
812.544128,331
812.662781,338
812.781616,333
812.900269,333
813.019043,321
813.137756,340
813.256531,326
813.375244,343
813.493896,330
813.612671,335
813.731384,336
813.850037,340
813.96875,342
814.087524,334
814.206238,329
814.324951,335
814.443604,331
814.562256,342
814.68103,348
814.799683,333
814.918335,328
815.037109,339
815.155762,319
815.274475,339
815.393188,326
815.511841,333
815.630554,332
815.749146,317
815.867859,338
815.986572,335
816.105164,329
816.223877,327
816.342529,339
816.461182,334
816.579895,331
816.698486,341
816.817139,325
816.935791,331
817.054504,321
817.173096,331
817.291748,338
817.4104,327
817.529053,333
817.647644,337
817.766235,335
817.884949,322
818.00354,331
818.122192,320
818.240845,334
818.359436,311
818.478088,333
818.59668,316
818.715271,322
818.833923,335
818.952515,328
819.071106,318
819.189758,332
819.30835,332
819.426941,323
819.545532,326
819.664124,318
819.782715,317
819.901306,319
820.019897,318
820.138489,324
820.25708,312
820.375671,322
820.494202,325
820.612732,327
820.731384,323
820.849915,305
820.968506,318
821.087097,316
821.205627,335
821.324158,311
821.442749,333
821.561279,310
821.679871,334
821.798401,308
821.916931,317
822.035461,320
822.154053,323
822.272583,323
822.391174,324
822.509583,326
822.628174,314
822.746704,307
822.865234,327
822.983765,308
823.102295,325
823.220825,326
823.339294,320
823.457825,309
823.576355,310
823.694824,309
823.813354,323
823.931885,324
824.050354,313
824.168884,329
824.287354,313
824.405823,316
824.524353,320
824.642822,319
824.761353,304
824.879822,317
824.998291,311
825.116699,331
825.235291,324
825.353699,326
825.472168,320
825.590637,323
825.709106,319
825.827576,318
825.946045,326
826.064453,320
826.182983,319
826.301392,314
826.4198,330
826.53833,317
826.656738,327
826.775208,308
826.893677,324
827.012024,312
827.130493,323
827.248962,318
827.36731,316
827.485779,319
827.604248,325
827.722595,327
827.841064,329
827.959412,296
828.077942,317
828.196289,322
828.314636,333
828.433105,298
828.551514,324
828.669861,307
828.78833,316
828.906677,321
829.025085,314
829.143433,316
829.261841,316
829.38031,326
829.498657,315
829.617004,317
829.735413,321
829.85376,312
829.972107,333
830.090515,306
830.208862,303
830.327209,324
830.445557,305
830.563904,322
830.682312,318
830.800659,314
830.919006,308
831.037354,324
831.155701,310
831.274048,314
831.392395,319
831.51062,312
831.629028,319
831.747314,309
831.865662,318
831.984009,312
832.102356,304
832.220642,324
832.338928,317
832.457275,323
832.575623,313
832.693909,325
832.812134,316
832.930481,329
833.048828,308
833.167114,314
833.2854,320
833.403687,321
833.521973,315
833.640259,317
833.758545,318
833.876831,323
833.995056,328
834.113281,324
834.231628,307
834.349915,311
834.468201,311
834.586426,317
834.704651,311
834.822998,305
834.941162,325
835.059448,328
835.177673,317
835.295959,328
835.414246,313
835.53241,319
835.650635,307
835.768921,318
835.887146,334
836.005371,313
836.123596,322
836.241821,318
836.360046,314
836.478271,317
836.596497,312
836.714722,309
836.832886,327
836.95105,312
837.069336,320
837.1875,329
837.305725,309
837.423889,328
837.542053,324
837.660339,329
837.778503,320
837.896667,311
838.014832,324
838.132996,301
838.25116,343
838.369385,308
838.487488,309
838.605713,314
838.723877,320
838.84198,321
838.960205,332
839.078308,297
839.196472,315
839.314636,324
839.4328,326
839.550964,321
839.669067,317
839.787231,320
839.905396,322
840.023499,311
840.141602,319
840.259766,316
840.377869,317
840.495972,312
840.614136,317
840.732239,320
840.850342,316
840.968445,325
841.086548,308
841.204651,319
841.322754,322
841.440918,309
841.55896,321
841.677002,325
841.795166,329
841.913208,317
842.031311,321
842.149353,313
842.267456,312
842.385498,311
842.503601,336
842.621643,312
842.739746,314
842.857788,318
842.97583,329
843.093933,317
843.211975,322
843.330017,306
843.44812,309
843.566101,323
843.684204,319
843.802246,323
843.920227,323
844.038269,313
844.156311,317
844.274292,300
844.392395,318
844.510376,303
844.628357,321
844.74646,325
844.864441,308
844.982422,307
845.100403,316
845.218384,305
845.336426,330
845.454468,312
845.572449,310
845.69043,320
845.808411,310
845.926453,313
846.044373,311
846.162354,297
846.280396,324
846.398315,311
846.516296,306
846.634216,319
846.752197,313
846.870178,306
846.988098,308
847.106079,324
847.22406,316
847.34198,318
847.4599,327
847.577881,312
847.695801,315
847.813782,329
847.931641,320
848.049561,312
848.167603,303
848.285461,314
848.403381,330
848.521362,324
848.639221,325
848.75708,313
848.875,313
848.99292,320
849.110901,321
849.22876,314
849.34668,324
849.464539,304
849.582458,317
849.700317,302
849.818176,314
849.936096,320
850.053955,334
850.171875,314
850.289673,306
850.407593,306
850.525452,329
850.643311,322
850.761169,312
850.878967,310
850.996887,316
851.114746,313
851.232544,312
851.350403,322
851.468262,323
851.58606,313
851.703979,325
851.821777,322
851.939636,306
852.057434,307
852.175232,318
852.293091,319
852.410889,327
852.528687,309
852.646545,318
852.764343,319
852.88208,316
852.999939,306
853.117676,316
853.235535,323
853.353271,319
853.471069,307
853.588928,314
853.706604,310
853.824402,313
853.9422,307
854.059998,320
854.177734,315
854.295532,319
854.413269,320
854.531006,309
854.648804,298
854.766541,318
854.884277,310
855.002014,319
855.119751,312
855.237549,313
855.355225,309
855.473022,314
855.590698,312
855.708435,311
855.826172,314
855.943848,322
856.061646,298
856.179321,314
856.296997,316
856.414795,317
856.53241,316
856.650085,323
856.767822,306
856.885559,311
857.003174,314
857.120911,315
857.238586,317
857.356201,317
857.473938,308
857.591614,325
857.709351,326
857.826965,318
857.944641,329
858.062317,321
858.179993,312
858.297668,319
858.415283,325
858.532959,322
858.650574,309
858.768188,326
858.885803,310
859.003479,306
859.121094,308
859.23877,320
859.356384,324
859.473999,319
859.591675,327
859.709229,311
859.826843,318
859.944458,318
860.062012,320
860.179626,314
860.297302,299
860.414856,307
860.532471,307
860.650024,314
860.767639,298
860.885193,315
861.002808,331
861.120361,310
861.237976,314
861.35553,307
861.473022,306
861.590698,311
861.708191,288
861.825745,321
861.943298,319
862.060852,313
862.178406,323
862.295959,303
862.413513,315
862.531006,319
862.64856,310
862.766113,320
862.883667,312
863.00116,324
863.118713,314
863.236206,327
863.353699,302
863.471252,314
863.588745,320
863.706177,324
863.82373,314
863.941162,319
864.058716,308
864.176208,326
864.29364,323
864.411194,317
864.528687,318
864.646118,325
864.763611,318
864.881042,325
864.998535,315
865.116028,319
865.233459,299
865.350891,325
865.468384,297
865.585754,320
865.703308,312
865.820679,317
865.938171,308
866.055542,316
866.173035,308
866.290466,326
866.407837,317
866.52533,316
866.6427,315
866.760071,316
866.877563,322
866.994934,319
867.112305,314
867.229736,312
867.347107,309
867.464539,325
867.58197,312
867.699341,321
867.81665,313
867.934082,312
868.051453,307
868.168823,311
868.286194,319
868.403564,313
868.520935,312
868.638306,308
868.755676,300
868.872986,325
868.990295,317
869.107727,308
869.225037,322
869.342346,319
869.459717,313
869.577026,316
869.694336,322
869.811707,321
869.929016,316
870.046326,326
870.163635,310
870.280945,312
870.398254,319
870.515564,321
870.632812,308
870.750183,307
870.867432,312
870.984741,323
871.102051,315
871.219299,312
871.336609,317
871.453918,321
871.571106,313
871.688416,315
871.805664,320
871.922852,316
872.040222,331
872.157471,320
872.274719,309
872.391968,322
872.509155,313
872.626465,314
872.743652,318
872.860962,305
872.978149,329
873.095337,316
873.212646,316
873.329834,323
873.44696,308
873.564209,327
873.681396,313
873.798645,307
873.915894,314
874.03302,301
874.150208,318
874.267456,326
874.384583,306
874.501831,319
874.618958,326
874.736145,316
874.853333,312
874.970459,316
875.087646,311
875.204834,312
875.32196,315
875.439148,330
875.556274,316
875.673401,318
875.790527,309
875.907715,314
876.024841,310
876.141968,326
876.259094,302
876.376282,311
876.493347,314
876.610474,326
876.7276,309
876.844727,321
876.961853,298
877.078918,321
877.195984,314
877.313171,324
877.430237,311
877.547302,316
877.664368,318
877.781433,304
877.898499,303
878.015625,340
878.13269,306
878.249695,323
878.366821,312
878.483887,318
878.600952,302
878.717957,311
878.834961,325
878.952087,313
879.069092,299
879.186157,316
879.303162,318
879.420227,323
879.537231,311
879.654236,309
879.77124,308
879.888306,306
880.005249,316
880.122314,328
880.239319,307
880.356323,319
880.473328,303
880.590271,325
880.707275,322
880.824341,331
880.941284,305
881.058228,313
881.175232,319
881.292236,305
881.40918,304
881.526123,320
881.643066,314
881.760071,308
881.877014,316
881.993958,327
882.11084,310
882.227783,319
882.344727,323
882.46167,321
882.578613,321
882.695618,318
882.812439,308
882.929382,320
883.046326,314
883.163208,313
883.280151,306
883.397034,322
883.513916,319
883.630798,320
883.747742,316
883.864563,323
883.981506,298
884.098389,314
884.21521,308
884.332153,289
884.448975,305
884.565796,323
884.682678,305
884.7995,328
884.916443,314
885.033264,318
885.150085,314
885.266968,313
885.383789,311
885.500671,318
885.617493,310
885.734314,315
885.851196,308
885.967896,324
886.084717,314
886.201599,315
886.318359,320
886.435181,311
886.552002,335
886.668762,321
886.785645,314
886.902344,320
887.019165,329
887.135925,320
887.252747,331
887.369446,326
887.486267,316
887.603027,327
887.719788,335
887.836548,318
887.953247,310
888.070068,309
888.186829,321
888.303528,315
888.420288,318
888.536987,318
888.653687,306
888.770447,323
888.887146,312
889.003967,305
889.120667,311
889.237305,318
889.354065,317
889.470703,327
889.587463,306
889.704163,324
889.820862,319
889.937561,329
890.054199,321
890.170837,328
890.287598,313
890.404236,317
890.520874,318
890.637634,319
890.754211,310
890.87085,319
890.987549,312
891.104187,326
891.220886,310
891.337463,318
891.454102,313
891.57074,305
891.687378,315
891.804077,315
891.920654,312
892.037231,305
892.15387,325
892.270447,322
892.387085,310
892.503723,306
892.6203,317
892.736877,325
892.853516,312
892.970032,312
893.08667,300
893.203186,318
893.319763,325
893.43634,325
893.552917,308
893.669556,305
893.786011,307
893.902588,323
894.019165,318
894.135681,313
894.252197,321
894.368835,315
894.485291,308
894.601868,321
894.718384,319
894.8349,308
894.951355,332
895.067932,325
895.184448,310
895.300964,307
895.417419,313
895.533936,336
895.650452,317
895.766907,313
895.883423,318
895.999878,318
896.116333,325
896.232849,326
896.349304,307
896.465759,316
896.582214,309
896.698669,315
896.815125,326
896.931641,329
897.048035,310
897.164551,318
897.280884,320
897.397339,321
897.513794,316
897.630249,333
897.746582,323
897.863098,320
897.979431,289
898.095886,322
898.212341,322
898.328674,324
898.445129,296
898.561462,317
898.677795,309
898.794312,320
898.910645,312
899.026978,323
899.143433,302
899.259766,315
899.37616,311
899.492493,311
899.608765,305
899.725159,312
899.841553,309
899.957947,327
900.07428,312
900.190552,315
900.306946,315
900.423157,330
900.53949,308
900.655884,310
900.772156,321
900.888489,319
901.004822,313
901.121033,307
901.237366,313
901.353699,316
901.46991,324
901.586304,320
901.702515,308
901.818787,323
901.93512,326
902.051331,338
902.167603,323
902.283875,323
902.400085,314
902.516418,311
902.632629,319
902.74884,320
902.865112,326
902.981384,310
903.097595,308
903.213867,327
903.330017,308
903.446289,323
903.5625,320
903.67865,309
903.794922,306
903.911072,327
904.027344,325
904.143494,327
904.259705,306
904.375916,322
904.492065,341
904.608215,313
904.724426,319
904.840576,313
904.956726,325
905.072876,300
905.189087,308
905.305176,307
905.421387,315
905.537537,314
905.653687,322
905.769775,317
905.885925,304
906.002014,310
906.118164,317
906.234314,321
906.350403,312
906.466492,312
906.582642,304
906.69873,326
906.814758,322
906.930908,311
907.046936,318
907.163086,326
907.279175,304
907.395264,320
907.511353,320
907.62738,321
907.743408,309
907.859497,319
907.975525,320
908.091553,314
908.207703,316
908.32373,321
908.439758,317
908.555786,327
908.671814,309
908.787842,319
908.90387,317
909.019775,321
909.135864,312
909.251892,316
909.367859,310
909.483826,312
909.599854,315
909.715881,333
909.831848,308
909.947815,319
910.063782,324
910.179749,328
910.295776,313
910.411743,311
910.527649,307
910.643616,314
910.759583,318
910.875488,326
910.991455,316
911.107361,320
911.223267,311
911.339294,326
911.4552,316
911.571106,325
911.687073,311
911.802979,319
911.918823,312
912.034729,319
912.150635,326
912.266602,317
912.382446,306
912.498352,322
912.614197,311
912.730103,325
912.846008,314
