792.44574,361
792.56488,403
792.68396,454
792.80304,431
792.92218,377
793.041199,350
793.160339,355
793.279419,388
793.398499,383
793.517578,348
793.636658,335
793.755737,359
793.874817,383
793.993896,361
794.112976,354
794.232056,363
794.351074,347
794.470215,354
794.589233,355
794.708313,339
794.827393,343
794.946411,357
795.065552,373
795.18457,353
795.303589,363
795.422668,354
795.541687,355
795.660767,334
795.779846,358
795.898865,354
796.017883,350
796.136963,351
796.255981,339
796.375061,352
796.49408,341
796.613037,354
796.732117,347
796.851135,335
796.970154,341
797.089233,340
797.208191,332
797.327271,337
797.446228,338
797.565186,352
797.684265,351
797.803223,339
797.922241,343
798.04126,328
798.160278,355
798.279297,344
798.398315,354
798.517273,342
798.636292,339
798.75531,321
798.874268,342
798.993286,333
799.112244,335
799.231323,322
799.350281,339
799.469238,330
799.588257,328
799.707153,328
799.826111,327
799.945129,332
800.064087,339
800.183044,335
800.302063,340
800.421021,328
800.539978,338
800.658936,330
800.777893,346
800.896912,334
801.015747,335
801.134705,340
801.253723,337
801.37262,336
801.491638,348
801.610535,331
801.729492,327
801.84845,339
801.967407,341
802.086243,335
802.205261,338
802.324158,333
802.443115,330
802.562073,335
802.680969,346
802.799927,328
802.918762,330
803.037659,337
803.156677,317
803.275574,323
803.39447,329
803.513428,335
803.632263,328
803.751221,327
803.870117,327
803.989014,321
804.107971,323
804.226746,342
804.345642,315
804.4646,330
804.583496,341
804.702393,336
804.821228,325
804.940125,315
805.059021,334
805.177917,327
805.296814,323
805.415649,331
805.534546,324
805.653442,312
805.772278,338
805.891113,345
806.01001,315
806.128906,339
806.247742,334
806.366577,325
806.485413,329
806.604309,330
806.723145,329
806.84198,322
806.960876,322
807.079712,328
807.198486,331
807.317383,326
807.436218,332
807.554993,333
807.673889,342
807.792725,327
807.91156,336
808.030396,316
808.14917,331
808.268005,314
808.386841,325
808.505676,327
808.624451,322
808.743286,327
808.862122,316
808.980896,327
809.099731,332
809.218506,325
809.337341,334
809.456116,343
809.57489,332
809.693726,316
809.8125,335
809.931274,338
810.050049,314
810.168884,338
810.287659,334
810.406372,337
810.525269,322
810.643982,324
810.762756,326
810.881531,333
811.000305,332
811.11908,339
811.237854,337
811.356567,328
811.475403,329
811.594116,338
811.71283,335
811.831604,342
811.950378,330
812.069153,318
812.187927,331
812.30658,323
812.425415,328
812.544128,335
812.662781,329
812.781616,327
812.900269,329
813.019043,323
813.137756,330
813.256531,311
813.375244,330
813.493896,327
813.612671,334
813.731384,326
813.850037,341
813.96875,311
814.087524,331
814.206238,326
814.324951,327
814.443604,328
814.562256,325
814.68103,326
814.799683,327
814.918335,340
815.037109,328
815.155762,326
815.274475,330
815.393188,329
815.511841,316
815.630554,323
815.749146,333
815.867859,322
815.986572,323
816.105164,328
816.223877,332
816.342529,324
816.461182,334
816.579895,327
816.698486,327
816.817139,322
816.935791,323
817.054504,324
817.173096,333
817.291748,310
817.4104,314
817.529053,337
817.647644,313
817.766235,341
817.884949,331
818.00354,326
818.122192,322
818.240845,325
818.359436,322
818.478088,311
818.59668,320
818.715271,334
818.833923,320
818.952515,313
819.071106,336
819.189758,336
819.30835,312
819.426941,336
819.545532,327
819.664124,327
819.782715,331
819.901306,312
820.019897,314
820.138489,311
820.25708,325
820.375671,324
820.494202,335
820.612732,318
820.731384,321
820.849915,327
820.968506,321
821.087097,322
821.205627,323
821.324158,319
821.442749,321
821.561279,310
821.679871,316
821.798401,321
821.916931,331
822.035461,330
822.154053,324
822.272583,327
822.391174,324
822.509583,321
822.628174,331
822.746704,316
822.865234,320
822.983765,320
823.102295,319
823.220825,323
823.339294,320
823.457825,315
823.576355,325
823.694824,315
823.813354,315
823.931885,317
824.050354,317
824.168884,317
824.287354,318
824.405823,322
824.524353,308
824.642822,324
824.761353,338
824.879822,317
824.998291,316
825.116699,307
825.235291,320
825.353699,312
825.472168,323
825.590637,320
825.709106,328
825.827576,319
825.946045,323
826.064453,326
826.182983,313
826.301392,311
826.4198,318
826.53833,307
826.656738,323
826.775208,314
826.893677,325
827.012024,309
827.130493,327
827.248962,323
827.36731,334
827.485779,313
827.604248,323
827.722595,322
827.841064,322
827.959412,305
828.077942,317
828.196289,321
828.314636,320
828.433105,323
828.551514,322
828.669861,312
828.78833,310
828.906677,313
829.025085,322
829.143433,324
829.261841,325
829.38031,309
829.498657,318
829.617004,322
829.735413,312
829.85376,327
829.972107,328
830.090515,328
830.208862,321
830.327209,319
830.445557,328
830.563904,326
830.682312,324
830.800659,318
830.919006,330
831.037354,325
831.155701,326
831.274048,313
831.392395,328
831.51062,312
831.629028,328
831.747314,313
831.865662,329
831.984009,324
832.102356,314
832.220642,327
832.338928,311
832.457275,307
832.575623,332
832.693909,316
832.812134,323
832.930481,326
833.048828,315
833.167114,326
833.2854,326
833.403687,327
833.521973,313
833.640259,301
833.758545,329
833.876831,315
833.995056,313
834.113281,333
834.231628,327
834.349915,321
834.468201,336
834.586426,317
834.704651,314
834.822998,323
834.941162,320
835.059448,324
835.177673,323
835.295959,320
835.414246,321
835.53241,312
835.650635,332
835.768921,311
835.887146,316
836.005371,318
836.123596,318
836.241821,312
836.360046,324
836.478271,314
836.596497,321
836.714722,320
836.832886,328
836.95105,312
837.069336,317
837.1875,313
837.305725,323
837.423889,315
837.542053,317
837.660339,313
837.778503,325
837.896667,327
838.014832,316
838.132996,332
838.25116,333
838.369385,309
838.487488,318
838.605713,318
838.723877,316
838.84198,332
838.960205,320
839.078308,320
839.196472,338
839.314636,336
839.4328,319
839.550964,312
839.669067,338
839.787231,340
839.905396,323
840.023499,310
840.141602,317
840.259766,308
840.377869,320
840.495972,321
840.614136,327
840.732239,314
840.850342,337
840.968445,332
841.086548,306
841.204651,318
841.322754,320
841.440918,329
841.55896,320
841.677002,321
841.795166,337
841.913208,331
842.031311,329
842.149353,319
842.267456,340
842.385498,340
842.503601,329
842.621643,322
842.739746,321
842.857788,315
842.97583,332
843.093933,319
843.211975,325
843.330017,314
843.44812,331
843.566101,311
843.684204,333
843.802246,315
843.920227,330
844.038269,332
844.156311,322
844.274292,306
844.392395,339
844.510376,313
844.628357,314
844.74646,326
844.864441,329
844.982422,327
845.100403,319
845.218384,333
845.336426,313
845.454468,305
845.572449,331
845.69043,311
845.808411,332
845.926453,324
846.044373,332
846.162354,320
846.280396,319
846.398315,327
846.516296,327
846.634216,327
846.752197,335
846.870178,319
846.988098,321
847.106079,344
847.22406,324
847.34198,323
847.4599,320
847.577881,330
847.695801,322
847.813782,319
847.931641,321
848.049561,315
848.167603,317
848.285461,313
848.403381,323
848.521362,314
848.639221,331
848.75708,315
848.875,308
848.99292,335
849.110901,319
849.22876,302
849.34668,318
849.464539,334
849.582458,318
849.700317,326
849.818176,321
849.936096,317
850.053955,330
850.171875,314
850.289673,332
850.407593,320
850.525452,333
850.643311,318
850.761169,325
850.878967,329
850.996887,333
851.114746,321
851.232544,327
851.350403,326
851.468262,322
851.58606,328
851.703979,325
851.821777,322
851.939636,329
852.057434,335
852.175232,309
852.293091,318
852.410889,333
852.528687,317
852.646545,327
852.764343,320
852.88208,325
852.999939,319
853.117676,314
853.235535,331
853.353271,322
853.471069,324
853.588928,335
853.706604,305
853.824402,335
853.9422,309
854.059998,323
854.177734,339
854.295532,326
854.413269,312
854.531006,322
854.648804,301
854.766541,332
854.884277,328
855.002014,338
855.119751,323
855.237549,330
855.355225,317
855.473022,325
855.590698,326
855.708435,326
855.826172,316
855.943848,325
856.061646,323
856.179321,324
856.296997,322
856.414795,327
856.53241,326
856.650085,324
856.767822,317
856.885559,330
857.003174,325
857.120911,320
857.238586,329
857.356201,337
857.473938,323
857.591614,318
857.709351,321
857.826965,319
857.944641,325
858.062317,335
858.179993,336
858.297668,324
858.415283,338
858.532959,331
858.650574,327
858.768188,332
858.885803,316
859.003479,324
859.121094,327
859.23877,319
859.356384,331
859.473999,329
859.591675,329
859.709229,310
859.826843,316
859.944458,324
860.062012,328
860.179626,324
860.297302,322
860.414856,319
860.532471,329
860.650024,326
860.767639,318
860.885193,320
861.002808,334
861.120361,329
861.237976,330
861.35553,323
861.473022,321
861.590698,313
861.708191,321
861.825745,321
861.943298,314
862.060852,329
862.178406,322
862.295959,327
862.413513,329
862.531006,320
862.64856,307
862.766113,332
862.883667,329
863.00116,315
863.118713,306
863.236206,329
863.353699,324
863.471252,320
863.588745,317
863.706177,324
863.82373,333
863.941162,313
864.058716,322
864.176208,332
864.29364,316
864.411194,326
864.528687,307
864.646118,306
864.763611,324
864.881042,320
864.998535,318
865.116028,326
865.233459,303
865.350891,327
865.468384,337
865.585754,324
865.703308,315
865.820679,325
865.938171,330
866.055542,317
866.173035,331
866.290466,325
866.407837,318
866.52533,338
866.6427,320
866.760071,330
866.877563,310
866.994934,314
867.112305,324
867.229736,318
867.347107,313
867.464539,331
867.58197,305
867.699341,319
867.81665,317
867.934082,321
868.051453,316
868.168823,323
868.286194,342
868.403564,326
868.520935,317
868.638306,319
868.755676,322
868.872986,316
868.990295,317
869.107727,322
869.225037,327
869.342346,325
869.459717,308
869.577026,319
869.694336,312
869.811707,328
869.929016,318
870.046326,330
870.163635,310
870.280945,327
870.398254,308
870.515564,335
870.632812,323
870.750183,329
870.867432,316
870.984741,327
871.102051,328
871.219299,336
871.336609,327
871.453918,321
871.571106,319
871.688416,319
871.805664,336
871.922852,328
872.040222,317
872.157471,339
872.274719,325
872.391968,331
872.509155,317
872.626465,325
872.743652,324
872.860962,307
872.978149,324
873.095337,324
873.212646,339
873.329834,331
873.44696,311
873.564209,345
873.681396,320
873.798645,333
873.915894,317
874.03302,332
874.150208,329
874.267456,331
874.384583,338
874.501831,326
874.618958,334
874.736145,334
874.853333,320
874.970459,321
875.087646,324
875.204834,323
875.32196,321
875.439148,319
875.556274,333
875.673401,324
875.790527,329
875.907715,310
876.024841,312
876.141968,330
876.259094,323
876.376282,320
876.493347,322
876.610474,323
876.7276,321
876.844727,319
876.961853,311
877.078918,317
877.195984,316
877.313171,335
877.430237,318
877.547302,330
877.664368,318
877.781433,326
877.898499,315
878.015625,322
878.13269,315
878.249695,316
878.366821,325
878.483887,317
878.600952,317
878.717957,325
878.834961,318
878.952087,332
879.069092,323
879.186157,325
879.303162,317
879.420227,321
879.537231,305
879.654236,328
879.77124,316
879.888306,329
880.005249,312
880.122314,320
880.239319,314
880.356323,325
880.473328,320
880.590271,316
880.707275,314
880.824341,335
880.941284,325
881.058228,322
881.175232,321
881.292236,329
881.40918,319
881.526123,327
881.643066,319
881.760071,320
881.877014,326
881.993958,327
882.11084,327
882.227783,321
882.344727,318
882.46167,317
882.578613,328
882.695618,317
882.812439,315
882.929382,308
883.046326,320
883.163208,318
883.280151,322
883.397034,315
883.513916,325
883.630798,318
883.747742,317
883.864563,330
883.981506,333
884.098389,331
884.21521,307
884.332153,332
884.448975,328
884.565796,325
884.682678,331
884.7995,326
884.916443,334
885.033264,327
885.150085,328
885.266968,334
885.383789,327
885.500671,345
885.617493,334
885.734314,334
885.851196,325
885.967896,333
886.084717,324
886.201599,335
886.318359,327
886.435181,333
886.552002,343
886.668762,329
886.785645,322
886.902344,326
887.019165,328
887.135925,322
887.252747,333
887.369446,331
887.486267,323
887.603027,330
887.719788,342
887.836548,314
887.953247,318
888.070068,326
888.186829,318
888.303528,313
888.420288,317
888.536987,332
888.653687,317
888.770447,330
888.887146,308
889.003967,325
889.120667,312
889.237305,303
889.354065,325
889.470703,322
889.587463,322
889.704163,315
889.820862,320
889.937561,314
890.054199,314
890.170837,322
890.287598,329
890.404236,319
890.520874,314
890.637634,322
890.754211,319
890.87085,325
890.987549,317
891.104187,330
891.220886,316
891.337463,324
891.454102,304
891.57074,324
891.687378,323
891.804077,338
891.920654,302
892.037231,317
892.15387,317
892.270447,312
892.387085,314
892.503723,318
892.6203,323
892.736877,310
892.853516,318
892.970032,326
893.08667,330
893.203186,327
893.319763,317
893.43634,322
893.552917,302
893.669556,311
893.786011,319
893.902588,317
894.019165,325
894.135681,310
894.252197,325
894.368835,324
894.485291,317
894.601868,315
894.718384,304
894.8349,320
894.951355,324
895.067932,316
895.184448,305
895.300964,334
895.417419,322
895.533936,314
895.650452,326
895.766907,320
895.883423,325
895.999878,333
896.116333,321
896.232849,324
896.349304,323
896.465759,319
896.582214,315
896.698669,323
896.815125,307
896.931641,324
897.048035,298
897.164551,308
897.280884,313
897.397339,320
897.513794,323
897.630249,312
897.746582,308
897.863098,328
897.979431,312
898.095886,315
898.212341,315
898.328674,309
898.445129,317
898.561462,315
898.677795,309
898.794312,316
898.910645,327
899.026978,324
899.143433,309
899.259766,324
899.37616,312
899.492493,311
899.608765,317
899.725159,321
899.841553,305
899.957947,322
900.07428,321
900.190552,314
900.306946,320
900.423157,319
900.53949,324
900.655884,332
900.772156,325
900.888489,314
901.004822,302
901.121033,322
901.237366,314
901.353699,312
901.46991,306
901.586304,329
901.702515,316
901.818787,317
901.93512,320
902.051331,335
902.167603,320
902.283875,333
902.400085,317
902.516418,326
902.632629,327
902.74884,326
902.865112,310
902.981384,325
903.097595,318
903.213867,334
903.330017,332
903.446289,335
903.5625,309
903.67865,324
903.794922,318
903.911072,324
904.027344,317
904.143494,336
904.259705,313
904.375916,320
904.492065,322
904.608215,324
904.724426,318
904.840576,324
904.956726,320
905.072876,312
905.189087,310
905.305176,322
905.421387,313
905.537537,319
905.653687,316
905.769775,318
905.885925,335
906.002014,325
906.118164,318
906.234314,323
906.350403,324
906.466492,319
906.582642,319
906.69873,310
906.814758,314
906.930908,316
907.046936,312
907.163086,316
907.279175,312
907.395264,323
907.511353,308
907.62738,313
907.743408,324
907.859497,311
907.975525,313
908.091553,315
908.207703,315
908.32373,324
908.439758,327
908.555786,316
908.671814,328
908.787842,319
908.90387,322
909.019775,317
909.135864,309
909.251892,311
909.367859,317
909.483826,315
909.599854,315
909.715881,315
909.831848,319
909.947815,319
910.063782,320
910.179749,319
910.295776,326
910.411743,326
910.527649,323
910.643616,303
910.759583,314
910.875488,310
910.991455,312
911.107361,335
911.223267,315
911.339294,307
911.4552,317
911.571106,302
911.687073,321
911.802979,320
911.918823,315
912.034729,325
912.150635,310
912.266602,322
912.382446,323
912.498352,326
912.614197,319
912.730103,308
912.846008,311
792.44574,359
792.56488,399
792.68396,448
792.80304,408
792.92218,381
793.041199,351
793.160339,358
793.279419,361
793.398499,363
793.517578,344
793.636658,364
793.755737,360
793.874817,389
793.993896,362
794.112976,360
794.232056,352
794.351074,344
794.470215,356
794.589233,366
794.708313,347
794.827393,364
794.946411,361
795.065552,366
795.18457,356
795.303589,355
795.422668,345
795.541687,354
795.660767,341
795.779846,336
795.898865,342
796.017883,353
796.136963,344
796.255981,349
796.375061,353
796.49408,345
796.613037,342
796.732117,337
796.851135,351
796.970154,345
797.089233,340
797.208191,345
797.327271,340
797.446228,352
797.565186,327
797.684265,348
797.803223,334
797.922241,354
798.04126,325
798.160278,342
798.279297,345
798.398315,333
798.517273,352
798.636292,330
798.75531,337
798.874268,332
798.993286,326
799.112244,324
799.231323,329
799.350281,345
799.469238,351
799.588257,340
799.707153,332
799.826111,337
799.945129,338
800.064087,337
800.183044,322
800.302063,343
800.421021,337
800.539978,334
800.658936,323
800.777893,335
800.896912,335
801.015747,333
801.134705,330
801.253723,336
801.37262,332
801.491638,331
801.610535,330
801.729492,325
801.84845,339
801.967407,339
802.086243,328
802.205261,323
802.324158,328
802.443115,332
802.562073,333
802.680969,326
802.799927,337
802.918762,330
803.037659,329
803.156677,331
803.275574,335
803.39447,328
803.513428,333
803.632263,319
803.751221,332
803.870117,335
803.989014,332
804.107971,325
804.226746,332
804.345642,327
804.4646,333
804.583496,327
804.702393,329
804.821228,318
804.940125,330
805.059021,325
805.177917,332
805.296814,335
805.415649,331
805.534546,317
805.653442,327
805.772278,326
805.891113,318
806.01001,324
806.128906,333
806.247742,330
806.366577,325
806.485413,312
806.604309,333
806.723145,330
806.84198,331
806.960876,324
807.079712,325
807.198486,323
807.317383,328
807.436218,344
807.554993,345
807.673889,318
807.792725,335
807.91156,321
808.030396,331
808.14917,320
808.268005,333
808.386841,311
808.505676,326
808.624451,320
808.743286,325
808.862122,330
808.980896,313
809.099731,326
809.218506,333
809.337341,333
809.456116,318
809.57489,306
809.693726,334
809.8125,337
809.931274,329
810.050049,342
810.168884,325
810.287659,334
810.406372,324
810.525269,321
810.643982,330
810.762756,313
810.881531,327
811.000305,332
811.11908,335
811.237854,323
811.356567,320
811.475403,328
811.594116,310
811.71283,323
811.831604,320
811.950378,335
812.069153,315
812.187927,329
812.30658,326
812.425415,335
812.544128,324
812.662781,323
812.781616,328
812.900269,327
813.019043,337
813.137756,334
813.256531,323
813.375244,328
813.493896,316
813.612671,339
813.731384,320
813.850037,325
813.96875,329
814.087524,326
814.206238,335
814.324951,314
814.443604,321
814.562256,322
814.68103,335
814.799683,338
814.918335,323
815.037109,326
815.155762,324
815.274475,325
815.393188,323
815.511841,325
815.630554,323
815.749146,340
815.867859,320
815.986572,330
816.105164,319
816.223877,331
816.342529,312
816.461182,343
816.579895,321
816.698486,329
816.817139,316
816.935791,321
817.054504,335
817.173096,317
817.291748,326
817.4104,319
817.529053,318
817.647644,327
817.766235,320
817.884949,333
818.00354,333
818.122192,307
818.240845,318
818.359436,314
818.478088,318
818.59668,330
818.715271,325
818.833923,313
818.952515,306
819.071106,335
819.189758,334
819.30835,325
819.426941,339
819.545532,320
819.664124,317
819.782715,336
819.901306,332
820.019897,332
820.138489,318
820.25708,332
820.375671,329
820.494202,326
820.612732,317
820.731384,329
820.849915,323
820.968506,324
821.087097,308
821.205627,337
821.324158,316
821.442749,312
821.561279,322
821.679871,328
821.798401,319
821.916931,335
822.035461,318
822.154053,306
822.272583,323
822.391174,310
822.509583,315
822.628174,317
822.746704,314
822.865234,325
822.983765,320
823.102295,309
823.220825,317
823.339294,312
823.457825,322
823.576355,326
823.694824,314
823.813354,323
823.931885,317
824.050354,325
824.168884,326
824.287354,316
824.405823,319
824.524353,319
824.642822,321
824.761353,322
824.879822,313
824.998291,319
825.116699,321
825.235291,333
825.353699,316
825.472168,315
825.590637,330
825.709106,299
825.827576,318
825.946045,319
826.064453,318
826.182983,306
826.301392,316
826.4198,321
826.53833,307
826.656738,315
826.775208,322
826.893677,329
827.012024,331
827.130493,313
827.248962,319
827.36731,337
827.485779,317
827.604248,322
827.722595,316
827.841064,326
827.959412,323
828.077942,316
828.196289,315
828.314636,307
828.433105,322
828.551514,309
828.669861,319
828.78833,330
828.906677,307
829.025085,314
829.143433,315
829.261841,324
829.38031,323
829.498657,322
829.617004,316
829.735413,313
829.85376,318
829.972107,327
830.090515,323
830.208862,321
830.327209,325
830.445557,309
830.563904,321
830.682312,319
830.800659,324
830.919006,309
831.037354,335
831.155701,324
831.274048,324
831.392395,335
831.51062,312
831.629028,315
831.747314,324
831.865662,320
831.984009,320
832.102356,321
832.220642,328
832.338928,316
832.457275,316
832.575623,311
832.693909,314
832.812134,320
832.930481,326
833.048828,319
833.167114,302
833.2854,321
833.403687,308
833.521973,327
833.640259,325
833.758545,321
833.876831,315
833.995056,323
834.113281,327
834.231628,315
834.349915,318
834.468201,330
834.586426,303
834.704651,318
834.822998,327
834.941162,323
835.059448,312
835.177673,323
835.295959,318
835.414246,309
835.53241,308
835.650635,312
835.768921,320
835.887146,328
836.005371,326
836.123596,304
836.241821,315
836.360046,312
836.478271,310
836.596497,310
836.714722,320
836.832886,326
836.95105,316
837.069336,324
837.1875,326
837.305725,331
837.423889,319
837.542053,317
837.660339,311
837.778503,331
837.896667,326
838.014832,319
838.132996,307
838.25116,328
838.369385,321
838.487488,308
838.605713,328
838.723877,323
838.84198,328
838.960205,327
839.078308,312
839.196472,320
839.314636,304
839.4328,334
839.550964,315
839.669067,312
839.787231,334
839.905396,323
840.023499,316
840.141602,332
840.259766,314
840.377869,335
840.495972,323
840.614136,324
840.732239,320
840.850342,325
840.968445,317
841.086548,329
841.204651,317
841.322754,334
841.440918,319
841.55896,330
841.677002,320
841.795166,329
841.913208,317
842.031311,323
842.149353,319
842.267456,326
842.385498,327
842.503601,316
842.621643,312
842.739746,335
842.857788,315
842.97583,332
843.093933,328
843.211975,322
843.330017,323
843.44812,313
843.566101,311
843.684204,320
843.802246,319
843.920227,333
844.038269,315
844.156311,315
844.274292,327
844.392395,309
844.510376,311
844.628357,329
844.74646,324
844.864441,322
844.982422,310
845.100403,311
845.218384,326
845.336426,329
845.454468,326
845.572449,310
845.69043,319
845.808411,307
845.926453,321
846.044373,339
846.162354,319
846.280396,321
846.398315,322
846.516296,315
846.634216,321
846.752197,318
846.870178,335
846.988098,318
847.106079,325
847.22406,324
847.34198,321
847.4599,318
847.577881,312
847.695801,328
847.813782,316
847.931641,328
848.049561,329
848.167603,330
848.285461,311
848.403381,344
848.521362,318
848.639221,321
848.75708,334
848.875,310
848.99292,320
849.110901,317
849.22876,326
849.34668,331
849.464539,325
849.582458,338
849.700317,319
849.818176,324
849.936096,320
850.053955,338
850.171875,310
850.289673,322
850.407593,320
850.525452,323
850.643311,314
850.761169,311
850.878967,316
850.996887,325
851.114746,322
851.232544,327
851.350403,324
851.468262,321
851.58606,316
851.703979,332
851.821777,334
851.939636,333
852.057434,330
852.175232,338
852.293091,317
852.410889,327
852.528687,339
852.646545,325
852.764343,310
852.88208,318
852.999939,329
853.117676,341
853.235535,324
853.353271,322
853.471069,315
853.588928,324
853.706604,334
853.824402,325
853.9422,319
854.059998,331
854.177734,324
854.295532,315
854.413269,310
854.531006,329
854.648804,323
854.766541,325
854.884277,312
855.002014,334
855.119751,311
855.237549,303
855.355225,328
855.473022,316
855.590698,335
855.708435,320
855.826172,315
855.943848,329
856.061646,327
856.179321,327
856.296997,330
856.414795,319
856.53241,317
856.650085,325
856.767822,322
856.885559,327
857.003174,331
857.120911,324
857.238586,313
857.356201,338
857.473938,324
857.591614,333
857.709351,321
857.826965,324
857.944641,319
858.062317,328
858.179993,324
858.297668,328
858.415283,313
858.532959,329
858.650574,322
858.768188,332
858.885803,326
859.003479,333
859.121094,320
859.23877,320
859.356384,323
859.473999,332
859.591675,330
859.709229,323
859.826843,322
859.944458,326
860.062012,320
860.179626,325
860.297302,315
860.414856,316
860.532471,330
860.650024,332
860.767639,324
860.885193,319
861.002808,321
861.120361,315
861.237976,336
861.35553,328
861.473022,320
861.590698,298
861.708191,330
861.825745,322
861.943298,332
862.060852,315
862.178406,316
862.295959,327
862.413513,327
862.531006,328
862.64856,315
862.766113,327
862.883667,318
863.00116,324
863.118713,326
863.236206,322
863.353699,335
863.471252,339
863.588745,336
863.706177,319
863.82373,323
863.941162,322
864.058716,315
864.176208,332
864.29364,312
864.411194,318
864.528687,309
864.646118,319
864.763611,315
864.881042,329
864.998535,325
865.116028,311
865.233459,309
865.350891,329
865.468384,316
865.585754,310
865.703308,332
865.820679,320
865.938171,307
866.055542,317
866.173035,314
866.290466,328
866.407837,319
866.52533,343
866.6427,313
866.760071,327
866.877563,325
866.994934,319
867.112305,330
867.229736,323
867.347107,321
867.464539,327
867.58197,313
867.699341,325
867.81665,326
867.934082,317
868.051453,319
868.168823,329
868.286194,313
868.403564,327
868.520935,321
868.638306,328
868.755676,303
868.872986,332
868.990295,314
869.107727,311
869.225037,328
869.342346,325
869.459717,315
869.577026,329
869.694336,321
869.811707,320
869.929016,318
870.046326,319
870.163635,309
870.280945,324
870.398254,323
870.515564,330
870.632812,320
870.750183,328
870.867432,333
870.984741,332
871.102051,325
871.219299,336
871.336609,330
871.453918,326
871.571106,330
871.688416,336
871.805664,321
871.922852,345
872.040222,330
872.157471,328
872.274719,309
872.391968,331
872.509155,331
872.626465,327
872.743652,318
872.860962,331
872.978149,317
873.095337,338
873.212646,320
873.329834,326
873.44696,315
873.564209,326
873.681396,321
873.798645,333
873.915894,315
874.03302,323
874.150208,314
874.267456,321
874.384583,315
874.501831,338
874.618958,332
874.736145,303
874.853333,326
874.970459,329
875.087646,331
875.204834,328
875.32196,326
875.439148,317
875.556274,327
875.673401,337
875.790527,315
875.907715,328
876.024841,319
876.141968,327
876.259094,332
876.376282,339
876.493347,315
876.610474,320
876.7276,322
876.844727,323
876.961853,333
877.078918,327
877.195984,303
877.313171,326
877.430237,334
877.547302,320
877.664368,324
877.781433,329
877.898499,314
878.015625,312
878.13269,316
878.249695,320
878.366821,322
878.483887,321
878.600952,321
878.717957,320
878.834961,327
878.952087,327
879.069092,326
879.186157,327
879.303162,315
879.420227,317
879.537231,321
879.654236,312
879.77124,313
879.888306,334
880.005249,327
880.122314,312
880.239319,315
880.356323,321
880.473328,318
880.590271,327
880.707275,313
880.824341,317
880.941284,331
881.058228,315
881.175232,325
881.292236,326
881.40918,323
881.526123,321
881.643066,323
881.760071,320
881.877014,309
881.993958,323
882.11084,317
882.227783,318
882.344727,316
882.46167,322
882.578613,316
882.695618,323
882.812439,313
882.929382,320
883.046326,318
883.163208,326
883.280151,321
883.397034,316
883.513916,314
883.630798,322
883.747742,313
883.864563,305
883.981506,327
884.098389,309
884.21521,321
884.332153,314
884.448975,304
884.565796,323
884.682678,337
884.7995,323
884.916443,320
885.033264,325
885.150085,330
885.266968,333
885.383789,332
885.500671,334
885.617493,322
885.734314,338
885.851196,334
885.967896,338
886.084717,325
886.201599,327
886.318359,324
886.435181,332
886.552002,313
886.668762,320
886.785645,331
886.902344,348
887.019165,331
887.135925,324
887.252747,325
887.369446,327
887.486267,332
887.603027,332
887.719788,312
887.836548,331
887.953247,307
888.070068,325
888.186829,317
888.303528,331
888.420288,320
888.536987,325
888.653687,318
888.770447,329
888.887146,313
889.003967,328
889.120667,316
889.237305,310
889.354065,332
889.470703,321
889.587463,319
889.704163,323
889.820862,318
889.937561,321
890.054199,325
890.170837,311
890.287598,316
890.404236,328
890.520874,307
890.637634,322
890.754211,316
890.87085,317
890.987549,313
891.104187,333
891.220886,331
891.337463,313
891.454102,318
891.57074,313
891.687378,328
891.804077,318
891.920654,306
892.037231,321
892.15387,317
892.270447,307
892.387085,319
892.503723,318
892.6203,324
892.736877,339
892.853516,334
892.970032,321
893.08667,329
893.203186,313
893.319763,316
893.43634,326
893.552917,317
893.669556,327
893.786011,318
893.902588,318
894.019165,323
894.135681,335
894.252197,326
894.368835,328
894.485291,322
894.601868,313
894.718384,332
894.8349,317
894.951355,306
895.067932,320
895.184448,314
895.300964,313
895.417419,310
895.533936,312
895.650452,312
895.766907,311
895.883423,318
895.999878,317
896.116333,319
896.232849,313
896.349304,333
896.465759,313
896.582214,315
896.698669,317
896.815125,316
896.931641,318
897.048035,334
897.164551,315
897.280884,332
897.397339,326
897.513794,305
897.630249,323
897.746582,322
897.863098,322
897.979431,316
898.095886,324
898.212341,319
898.328674,328
898.445129,317
898.561462,316
898.677795,315
898.794312,310
898.910645,323
899.026978,319
899.143433,317
899.259766,323
899.37616,305
899.492493,329
899.608765,319
899.725159,320
899.841553,312
899.957947,318
900.07428,317
900.190552,331
900.306946,317
900.423157,307
900.53949,318
900.655884,328
900.772156,318
900.888489,311
901.004822,319
901.121033,314
901.237366,314
901.353699,328
901.46991,309
901.586304,319
901.702515,328
901.818787,328
901.93512,317
902.051331,323
902.167603,317
902.283875,327
902.400085,329
902.516418,332
902.632629,319
902.74884,312
902.865112,323
902.981384,322
903.097595,326
903.213867,323
903.330017,331
903.446289,310
903.5625,305
903.67865,323
903.794922,320
903.911072,328
904.027344,305
904.143494,320
904.259705,330
904.375916,315
904.492065,307
904.608215,325
904.724426,305
904.840576,316
904.956726,323
905.072876,332
905.189087,313
905.305176,319
905.421387,321
905.537537,319
905.653687,317
905.769775,313
905.885925,313
906.002014,316
906.118164,315
906.234314,323
906.350403,312
906.466492,321
906.582642,301
906.69873,329
906.814758,311
906.930908,339
907.046936,312
907.163086,305
907.279175,310
907.395264,314
907.511353,320
907.62738,326
907.743408,315
907.859497,330
907.975525,319
908.091553,301
908.207703,317
908.32373,320
908.439758,322
908.555786,330
908.671814,303
908.787842,323
908.90387,313
909.019775,321
909.135864,313
909.251892,316
909.367859,306
909.483826,330
909.599854,303
909.715881,318
909.831848,302
909.947815,327
910.063782,325
910.179749,324
910.295776,307
910.411743,317
910.527649,311
910.643616,317
910.759583,311
910.875488,335
910.991455,308
911.107361,310
911.223267,294
911.339294,329
911.4552,317
911.571106,332
911.687073,318
911.802979,323
911.918823,311
912.034729,308
912.150635,319
912.266602,330
912.382446,299
912.498352,321
912.614197,314
912.730103,321
912.846008,307
792.44574,377
792.56488,396
792.68396,444
792.80304,426
792.92218,395
793.041199,349
793.160339,369
793.279419,377
793.398499,380
793.517578,355
793.636658,352
793.755737,367
793.874817,369
793.993896,370
794.112976,364
794.232056,352
794.351074,349
794.470215,361
794.589233,342
794.708313,352
794.827393,351
794.946411,353
795.065552,370
795.18457,340
795.303589,348
795.422668,354
795.541687,340
795.660767,343
795.779846,339
795.898865,349
796.017883,350
796.136963,337
796.255981,357
796.375061,346
796.49408,341
796.613037,357
796.732117,348
796.851135,350
796.970154,351
797.089233,340
797.208191,333
797.327271,342
797.446228,340
797.565186,338
797.684265,341
797.803223,348
797.922241,336
798.04126,332
798.160278,338
798.279297,347
798.398315,350
798.517273,338
798.636292,330
798.75531,349
798.874268,346
798.993286,334
799.112244,350
799.231323,339
799.350281,345
799.469238,337
799.588257,326
799.707153,336
799.826111,338
799.945129,342
800.064087,333
800.183044,340
800.302063,350
800.421021,347
800.539978,347
800.658936,344
800.777893,333
800.896912,324
801.015747,340
801.134705,333
801.253723,347
801.37262,336
801.491638,337
801.610535,325
801.729492,348
801.84845,321
801.967407,329
802.086243,341
802.205261,331
802.324158,333
802.443115,325
802.562073,321
802.680969,341
802.799927,336
802.918762,338
803.037659,333
803.156677,334
803.275574,333
803.39447,339
803.513428,324
803.632263,338
803.751221,340
803.870117,346
803.989014,331
804.107971,333
804.226746,333
804.345642,335
804.4646,332
804.583496,320
804.702393,327
804.821228,337
804.940125,325
805.059021,330
805.177917,329
805.296814,329
805.415649,331
805.534546,332
805.653442,328
805.772278,348
805.891113,326
806.01001,320
806.128906,328
806.247742,327
806.366577,336
806.485413,328
806.604309,314
806.723145,333
806.84198,325
806.960876,333
807.079712,328
807.198486,338
807.317383,331
807.436218,320
807.554993,335
807.673889,329
807.792725,326
807.91156,334
808.030396,312
808.14917,345
808.268005,328
808.386841,324
808.505676,334
808.624451,338
808.743286,330
808.862122,334
808.980896,328
809.099731,341
809.218506,302
809.337341,341
809.456116,324
809.57489,323
809.693726,335
809.8125,328
809.931274,336
810.050049,338
810.168884,323
810.287659,338
810.406372,320
810.525269,334
810.643982,322
810.762756,342
810.881531,316
811.000305,339
811.11908,327
811.237854,330
811.356567,325
811.475403,325
811.594116,333
811.71283,323
811.831604,327
811.950378,322
812.069153,312
812.187927,339
812.30658,341
812.425415,318
812.544128,324
812.662781,321
812.781616,350
812.900269,332
813.019043,335
813.137756,331
813.256531,343
813.375244,317
813.493896,330
813.612671,340
813.731384,326
813.850037,335
813.96875,312
814.087524,339
814.206238,323
814.324951,336
814.443604,320
814.562256,329
814.68103,321
814.799683,345
814.918335,320
815.037109,343
815.155762,325
815.274475,329
815.393188,328
815.511841,334
815.630554,327
815.749146,335
815.867859,332
815.986572,330
816.105164,323
816.223877,330
816.342529,337
816.461182,343
816.579895,325
816.698486,331
816.817139,329
816.935791,331
817.054504,323
817.173096,336
817.291748,328
817.4104,331
817.529053,330
817.647644,316
817.766235,316
817.884949,320
818.00354,331
818.122192,311
818.240845,325
818.359436,327
818.478088,308
818.59668,335
818.715271,330
818.833923,329
818.952515,308
819.071106,327
819.189758,315
819.30835,324
819.426941,316
819.545532,315
819.664124,311
819.782715,322
819.901306,327
820.019897,320
820.138489,322
820.25708,331
820.375671,320
820.494202,315
820.612732,307
820.731384,320
820.849915,319
820.968506,324
821.087097,313
821.205627,325
821.324158,311
821.442749,338
821.561279,324
821.679871,342
821.798401,311
821.916931,317
822.035461,320
822.154053,315
822.272583,332
822.391174,321
822.509583,323
822.628174,319
822.746704,316
822.865234,316
822.983765,324
823.102295,339
823.220825,328
823.339294,324
823.457825,316
823.576355,326
823.694824,313
823.813354,311
823.931885,323
824.050354,333
824.168884,324
824.287354,317
824.405823,327
824.524353,314
824.642822,327
824.761353,326
824.879822,321
824.998291,325
825.116699,315
825.235291,317
825.353699,316
825.472168,316
825.590637,313
825.709106,325
825.827576,318
825.946045,332
826.064453,328
826.182983,336
826.301392,326
826.4198,328
826.53833,323
826.656738,320
826.775208,318
826.893677,313
827.012024,317
827.130493,330
827.248962,315
827.36731,321
827.485779,327
827.604248,318
827.722595,317
827.841064,311
827.959412,313
828.077942,320
828.196289,315
828.314636,323
828.433105,321
828.551514,332
828.669861,320
828.78833,328
828.906677,307
829.025085,315
829.143433,326
829.261841,314
829.38031,327
829.498657,333
829.617004,325
829.735413,318
829.85376,311
829.972107,318
830.090515,317
830.208862,317
830.327209,336
830.445557,324
830.563904,327
830.682312,322
830.800659,311
830.919006,323
831.037354,316
831.155701,317
831.274048,324
831.392395,328
831.51062,314
831.629028,342
831.747314,314
831.865662,317
831.984009,316
832.102356,326
832.220642,317
832.338928,324
832.457275,315
832.575623,302
832.693909,314
832.812134,323
832.930481,328
833.048828,321
833.167114,316
833.2854,308
833.403687,322
833.521973,331
833.640259,312
833.758545,326
833.876831,308
833.995056,325
834.113281,295
834.231628,334
834.349915,319
834.468201,315
834.586426,322
834.704651,310
834.822998,327
834.941162,318
835.059448,327
835.177673,315
835.295959,323
835.414246,327
835.53241,332
835.650635,321
835.768921,315
835.887146,323
836.005371,305
836.123596,315
836.241821,312
836.360046,316
836.478271,308
836.596497,314
836.714722,315
836.832886,317
836.95105,314
837.069336,318
837.1875,313
837.305725,326
837.423889,317
837.542053,327
837.660339,322
837.778503,321
837.896667,317
838.014832,335
838.132996,319
838.25116,313
838.369385,321
838.487488,310
838.605713,321
838.723877,320
838.84198,339
838.960205,325
839.078308,319
839.196472,325
839.314636,325
839.4328,323
839.550964,310
839.669067,323
839.787231,313
839.905396,333
840.023499,327
840.141602,326
840.259766,327
840.377869,325
840.495972,326
840.614136,321
840.732239,328
840.850342,312
840.968445,325
841.086548,326
841.204651,316
841.322754,319
841.440918,330
841.55896,331
841.677002,326
841.795166,325
841.913208,353
842.031311,318
842.149353,318
842.267456,324
842.385498,312
842.503601,325
842.621643,317
842.739746,320
842.857788,327
842.97583,307
843.093933,332
843.211975,317
843.330017,334
843.44812,321
843.566101,308
843.684204,319
843.802246,313
843.920227,329
844.038269,316
844.156311,323
844.274292,311
844.392395,319
844.510376,318
844.628357,329
844.74646,317
844.864441,318
844.982422,333
845.100403,330
845.218384,331
845.336426,305
845.454468,326
845.572449,330
845.69043,318
845.808411,323
845.926453,327
846.044373,330
846.162354,320
846.280396,322
846.398315,312
846.516296,328
846.634216,322
846.752197,335
846.870178,331
846.988098,320
847.106079,320
847.22406,323
847.34198,330
847.4599,318
847.577881,334
847.695801,317
847.813782,330
847.931641,328
848.049561,326
848.167603,326
848.285461,308
848.403381,337
848.521362,319
848.639221,321
848.75708,326
848.875,305
848.99292,306
849.110901,323
849.22876,335
849.34668,325
849.464539,324
849.582458,317
849.700317,317
849.818176,330
849.936096,321
850.053955,327
850.171875,311
850.289673,326
850.407593,338
850.525452,326
850.643311,313
850.761169,323
850.878967,332
850.996887,336
851.114746,329
851.232544,326
851.350403,319
851.468262,316
851.58606,333
851.703979,337
851.821777,323
851.939636,336
852.057434,310
852.175232,344
852.293091,328
852.410889,340
852.528687,323
852.646545,324
852.764343,336
852.88208,331
852.999939,314
853.117676,319
853.235535,305
853.353271,331
853.471069,315
853.588928,317
853.706604,324
853.824402,330
853.9422,313
854.059998,318
854.177734,331
854.295532,327
854.413269,315
854.531006,330
854.648804,325
854.766541,311
854.884277,325
855.002014,336
855.119751,319
855.237549,326
855.355225,317
855.473022,316
855.590698,311
855.708435,336
855.826172,316
855.943848,309
856.061646,328
856.179321,318
856.296997,315
856.414795,328
856.53241,317
856.650085,327
856.767822,319
856.885559,325
857.003174,321
857.120911,323
857.238586,320
857.356201,337
857.473938,319
857.591614,342
857.709351,324
857.826965,324
857.944641,323
858.062317,321
858.179993,335
858.297668,316
858.415283,321
858.532959,346
858.650574,324
858.768188,332
858.885803,332
859.003479,331
859.121094,325
859.23877,322
859.356384,315
859.473999,332
859.591675,320
859.709229,310
859.826843,329
859.944458,326
860.062012,331
860.179626,335
860.297302,327
860.414856,339
860.532471,323
860.650024,320
860.767639,325
860.885193,326
861.002808,329
861.120361,315
861.237976,307
861.35553,325
861.473022,315
861.590698,329
861.708191,322
861.825745,322
861.943298,321
862.060852,327
862.178406,318
862.295959,321
862.413513,318
862.531006,319
862.64856,308
862.766113,318
862.883667,311
863.00116,314
863.118713,321
863.236206,329
863.353699,308
863.471252,326
863.588745,305
863.706177,312
863.82373,316
863.941162,320
864.058716,323
864.176208,318
864.29364,320
864.411194,318
864.528687,328
864.646118,321
864.763611,331
864.881042,316
864.998535,318
865.116028,326
865.233459,316
865.350891,321
865.468384,318
865.585754,311
865.703308,315
865.820679,318
865.938171,317
866.055542,317
866.173035,320
866.290466,339
866.407837,323
866.52533,324
866.6427,325
866.760071,312
866.877563,312
866.994934,319
867.112305,325
867.229736,320
867.347107,314
867.464539,325
867.58197,326
867.699341,324
867.81665,317
867.934082,323
868.051453,330
868.168823,337
868.286194,317
868.403564,335
868.520935,315
868.638306,317
868.755676,329
868.872986,323
868.990295,326
869.107727,332
869.225037,322
869.342346,322
869.459717,310
869.577026,317
869.694336,317
869.811707,342
869.929016,319
870.046326,324
870.163635,326
870.280945,328
870.398254,324
870.515564,320
870.632812,314
870.750183,330
870.867432,323
870.984741,324
871.102051,307
871.219299,328
871.336609,336
871.453918,321
871.571106,321
871.688416,309
871.805664,319
871.922852,322
872.040222,325
872.157471,334
872.274719,325
872.391968,337
872.509155,324
872.626465,327
872.743652,324
872.860962,316
872.978149,327
873.095337,327
873.212646,324
873.329834,317
873.44696,305
873.564209,328
873.681396,321
873.798645,330
873.915894,336
874.03302,337
874.150208,306
874.267456,330
874.384583,323
874.501831,328
874.618958,324
874.736145,329
874.853333,324
874.970459,321
875.087646,339
875.204834,334
875.32196,337
875.439148,333
875.556274,333
875.673401,314
875.790527,311
875.907715,308
876.024841,328
876.141968,335
876.259094,316
876.376282,321
876.493347,322
876.610474,333
876.7276,318
876.844727,328
876.961853,317
877.078918,329
877.195984,324
877.313171,325
877.430237,331
877.547302,327
877.664368,308
877.781433,325
877.898499,330
878.015625,335
878.13269,327
878.249695,325
878.366821,329
878.483887,323
878.600952,312
878.717957,327
878.834961,315
878.952087,323
879.069092,320
879.186157,320
879.303162,324
879.420227,319
879.537231,325
879.654236,325
879.77124,332
879.888306,328
880.005249,328
880.122314,333
880.239319,312
880.356323,326
880.473328,323
880.590271,308
880.707275,315
880.824341,324
880.941284,318
881.058228,320
881.175232,324
881.292236,318
881.40918,316
881.526123,330
881.643066,322
881.760071,330
881.877014,331
881.993958,321
882.11084,321
882.227783,322
882.344727,320
882.46167,321
882.578613,318
882.695618,334
882.812439,333
882.929382,321
883.046326,314
883.163208,330
883.280151,320
883.397034,322
883.513916,326
883.630798,329
883.747742,322
883.864563,334
883.981506,316
884.098389,322
884.21521,326
884.332153,326
884.448975,329
884.565796,323
884.682678,325
884.7995,324
884.916443,329
885.033264,329
885.150085,323
885.266968,336
885.383789,325
885.500671,329
885.617493,326
885.734314,322
885.851196,332
885.967896,329
886.084717,319
886.201599,334
886.318359,331
886.435181,335
886.552002,324
886.668762,340
886.785645,326
886.902344,334
887.019165,333
887.135925,320
887.252747,316
887.369446,334
887.486267,319
887.603027,322
887.719788,324
887.836548,334
887.953247,313
888.070068,330
888.186829,313
888.303528,318
888.420288,322
888.536987,337
888.653687,308
888.770447,317
888.887146,330
889.003967,328
889.120667,322
889.237305,327
889.354065,298
889.470703,326
889.587463,321
889.704163,325
889.820862,318
889.937561,325
890.054199,324
890.170837,310
890.287598,323
890.404236,314
890.520874,322
890.637634,332
890.754211,316
890.87085,336
890.987549,309
891.104187,325
891.220886,310
891.337463,319
891.454102,311
891.57074,330
891.687378,318
891.804077,321
891.920654,317
892.037231,318
892.15387,318
892.270447,316
892.387085,305
892.503723,326
892.6203,322
892.736877,329
892.853516,316
892.970032,313
893.08667,327
893.203186,316
893.319763,312
893.43634,318
893.552917,320
893.669556,321
893.786011,327
893.902588,317
894.019165,328
894.135681,321
894.252197,319
894.368835,322
894.485291,313
894.601868,308
894.718384,322
894.8349,320
894.951355,327
895.067932,316
895.184448,324
895.300964,316
895.417419,309
895.533936,330
895.650452,312
895.766907,316
895.883423,319
895.999878,307
896.116333,324
896.232849,318
896.349304,313
896.465759,331
896.582214,317
896.698669,324
896.815125,307
896.931641,319
897.048035,324
897.164551,345
897.280884,308
897.397339,333
897.513794,306
897.630249,320
897.746582,319
897.863098,323
897.979431,325
898.095886,336
898.212341,316
898.328674,301
898.445129,319
898.561462,319
898.677795,314
898.794312,327
898.910645,308
899.026978,339
899.143433,319
899.259766,324
899.37616,316
899.492493,327
899.608765,326
899.725159,326
899.841553,314
899.957947,324
900.07428,320
900.190552,336
900.306946,318
900.423157,314
900.53949,314
900.655884,313
900.772156,312
900.888489,322
901.004822,317
901.121033,320
901.237366,322
901.353699,330
901.46991,330
901.586304,316
901.702515,318
901.818787,333
901.93512,328
902.051331,326
902.167603,324
902.283875,313
902.400085,312
902.516418,323
902.632629,329
902.74884,332
902.865112,314
902.981384,320
903.097595,318
903.213867,330
903.330017,335
903.446289,330
903.5625,329
903.67865,330
903.794922,300
903.911072,323
904.027344,325
904.143494,330
904.259705,320
904.375916,313
904.492065,300
904.608215,333
904.724426,320
904.840576,311
904.956726,314
905.072876,319
905.189087,321
905.305176,322
905.421387,322
905.537537,322
905.653687,317
905.769775,329
905.885925,307
906.002014,314
906.118164,323
906.234314,332
906.350403,311
906.466492,323
906.582642,312
906.69873,316
906.814758,303
906.930908,320
907.046936,308
907.163086,331
907.279175,313
907.395264,325
907.511353,315
907.62738,322
907.743408,333
907.859497,326
907.975525,321
908.091553,323
908.207703,312
908.32373,324
908.439758,304
908.555786,327
908.671814,314
908.787842,327
908.90387,324
909.019775,323
909.135864,326
909.251892,335
909.367859,326
909.483826,321
909.599854,318
909.715881,313
909.831848,316
909.947815,313
910.063782,314
910.179749,330
910.295776,317
910.411743,328
910.527649,308
910.643616,329
910.759583,318
910.875488,310
910.991455,324
911.107361,325
911.223267,317
911.339294,315
911.4552,311
911.571106,330
911.687073,317
911.802979,322
911.918823,322
912.034729,322
912.150635,325
912.266602,311
912.382446,318
912.498352,312
912.614197,311
912.730103,322
912.846008,308
