792.44574,351
792.56488,357
792.68396,410
792.80304,398
792.92218,359
793.041199,342
793.160339,347
793.279419,346
793.398499,358
793.517578,314
793.636658,321
793.755737,352
793.874817,366
793.993896,362
794.112976,342
794.232056,336
794.351074,344
794.470215,344
794.589233,353
794.708313,348
794.827393,342
794.946411,325
795.065552,351
795.18457,343
795.303589,347
795.422668,331
795.541687,345
795.660767,330
795.779846,342
795.898865,339
796.017883,345
796.136963,329
796.255981,338
796.375061,331
796.49408,349
796.613037,336
796.732117,349
796.851135,318
796.970154,341
797.089233,343
797.208191,337
797.327271,338
797.446228,338
797.565186,335
797.684265,358
797.803223,343
797.922241,338
798.04126,348
798.160278,327
798.279297,335
798.398315,328
798.517273,342
798.636292,332
798.75531,328
798.874268,335
798.993286,334
799.112244,336
799.231323,316
799.350281,351
799.469238,339
799.588257,330
799.707153,333
799.826111,330
799.945129,337
800.064087,341
800.183044,330
800.302063,321
800.421021,327
800.539978,328
800.658936,331
800.777893,337
800.896912,339
801.015747,330
801.134705,325
801.253723,340
801.37262,316
801.491638,344
801.610535,340
801.729492,328
801.84845,323
801.967407,329
802.086243,333
802.205261,321
802.324158,332
802.443115,330
802.562073,330
802.680969,338
802.799927,322
802.918762,324
803.037659,312
803.156677,316
803.275574,327
803.39447,334
803.513428,329
803.632263,343
803.751221,322
803.870117,315
803.989014,336
804.107971,341
804.226746,319
804.345642,334
804.4646,326
804.583496,330
804.702393,325
804.821228,329
804.940125,336
805.059021,329
805.177917,338
805.296814,335
805.415649,340
805.534546,316
805.653442,338
805.772278,341
805.891113,347
806.01001,339
806.128906,335
806.247742,336
806.366577,340
806.485413,323
806.604309,328
806.723145,325
806.84198,322
806.960876,319
807.079712,333
807.198486,333
807.317383,318
807.436218,338
807.554993,335
807.673889,344
807.792725,331
807.91156,342
808.030396,341
808.14917,332
808.268005,336
808.386841,324
808.505676,323
808.624451,327
808.743286,320
808.862122,330
808.980896,326
809.099731,341
809.218506,325
809.337341,318
809.456116,325
809.57489,329
809.693726,336
809.8125,324
809.931274,329
810.050049,326
810.168884,336
810.287659,319
810.406372,332
810.525269,314
810.643982,335
810.762756,321
810.881531,333
811.000305,323
811.11908,341
811.237854,338
811.356567,317
811.475403,327
811.594116,316
811.71283,343
811.831604,327
811.950378,332
812.069153,339
812.187927,330
812.30658,325
812.425415,333
812.544128,335
812.662781,323
812.781616,317
812.900269,346
813.019043,326
813.137756,340
813.256531,338
813.375244,332
813.493896,331
813.612671,326
813.731384,330
813.850037,338
813.96875,324
814.087524,337
814.206238,321
814.324951,330
814.443604,337
814.562256,325
814.68103,332
814.799683,325
814.918335,328
815.037109,329
815.155762,336
815.274475,333
815.393188,332
815.511841,339
815.630554,328
815.749146,330
815.867859,332
815.986572,333
816.105164,349
816.223877,315
816.342529,334
816.461182,327
816.579895,333
816.698486,331
816.817139,336
816.935791,341
817.054504,328
817.173096,335
817.291748,320
817.4104,336
817.529053,337
817.647644,323
817.766235,330
817.884949,335
818.00354,317
818.122192,332
818.240845,325
818.359436,330
818.478088,332
818.59668,318
818.715271,332
818.833923,305
818.952515,325
819.071106,325
819.189758,338
819.30835,315
819.426941,315
819.545532,318
819.664124,323
819.782715,330
819.901306,327
820.019897,328
820.138489,326
820.25708,318
820.375671,327
820.494202,312
820.612732,327
820.731384,334
820.849915,320
820.968506,302
821.087097,330
821.205627,329
821.324158,315
821.442749,333
821.561279,324
821.679871,310
821.798401,327
821.916931,323
822.035461,322
822.154053,322
822.272583,322
822.391174,321
822.509583,333
822.628174,311
822.746704,320
822.865234,319
822.983765,327
823.102295,328
823.220825,328
823.339294,329
823.457825,328
823.576355,315
823.694824,320
823.813354,313
823.931885,320
824.050354,329
824.168884,312
824.287354,321
824.405823,321
824.524353,315
824.642822,321
824.761353,317
824.879822,335
824.998291,322
825.116699,329
825.235291,316
825.353699,318
825.472168,309
825.590637,331
825.709106,325
825.827576,320
825.946045,311
826.064453,328
826.182983,320
826.301392,311
826.4198,324
826.53833,306
826.656738,337
826.775208,317
826.893677,322
827.012024,318
827.130493,316
827.248962,329
827.36731,307
827.485779,329
827.604248,322
827.722595,313
827.841064,322
827.959412,327
828.077942,317
828.196289,319
828.314636,320
828.433105,331
828.551514,320
828.669861,315
828.78833,321
828.906677,323
829.025085,323
829.143433,311
829.261841,330
829.38031,321
829.498657,317
829.617004,320
829.735413,309
829.85376,318
829.972107,315
830.090515,318
830.208862,314
830.327209,321
830.445557,324
830.563904,318
830.682312,319
830.800659,330
830.919006,322
831.037354,322
831.155701,328
831.274048,318
831.392395,314
831.51062,318
831.629028,317
831.747314,325
831.865662,326
831.984009,337
832.102356,321
832.220642,314
832.338928,312
832.457275,317
832.575623,319
832.693909,324
832.812134,317
832.930481,320
833.048828,316
833.167114,312
833.2854,323
833.403687,314
833.521973,312
833.640259,321
833.758545,317
833.876831,310
833.995056,318
834.113281,319
834.231628,326
834.349915,329
834.468201,316
834.586426,330
834.704651,313
834.822998,335
834.941162,311
835.059448,308
835.177673,323
835.295959,325
835.414246,313
835.53241,323
835.650635,325
835.768921,324
835.887146,320
836.005371,313
836.123596,322
836.241821,307
836.360046,312
836.478271,313
836.596497,318
836.714722,326
836.832886,322
836.95105,307
837.069336,325
837.1875,329
837.305725,309
837.423889,325
837.542053,327
837.660339,335
837.778503,318
837.896667,323
838.014832,314
838.132996,317
838.25116,320
838.369385,320
838.487488,332
838.605713,320
838.723877,322
838.84198,329
838.960205,331
839.078308,317
839.196472,323
839.314636,330
839.4328,319
839.550964,338
839.669067,331
839.787231,321
839.905396,318
840.023499,310
840.141602,323
840.259766,323
840.377869,328
840.495972,317
840.614136,324
840.732239,320
840.850342,325
840.968445,335
841.086548,322
841.204651,332
841.322754,322
841.440918,324
841.55896,314
841.677002,330
841.795166,324
841.913208,321
842.031311,320
842.149353,330
842.267456,327
842.385498,323
842.503601,333
842.621643,325
842.739746,316
842.857788,312
842.97583,327
843.093933,309
843.211975,318
843.330017,327
843.44812,315
843.566101,307
843.684204,312
843.802246,327
843.920227,325
844.038269,307
844.156311,336
844.274292,327
844.392395,338
844.510376,315
844.628357,313
844.74646,327
844.864441,309
844.982422,326
845.100403,318
845.218384,317
845.336426,309
845.454468,317
845.572449,314
845.69043,327
845.808411,323
845.926453,314
846.044373,310
846.162354,324
846.280396,313
846.398315,326
846.516296,326
846.634216,318
846.752197,325
846.870178,324
846.988098,318
847.106079,328
847.22406,321
847.34198,337
847.4599,320
847.577881,309
847.695801,320
847.813782,317
847.931641,319
848.049561,322
848.167603,322
848.285461,327
848.403381,322
848.521362,312
848.639221,313
848.75708,324
848.875,327
848.99292,315
849.110901,318
849.22876,314
849.34668,314
849.464539,325
849.582458,323
849.700317,333
849.818176,323
849.936096,314
850.053955,326
850.171875,317
850.289673,318
850.407593,328
850.525452,315
850.643311,312
850.761169,312
850.878967,317
850.996887,315
851.114746,320
851.232544,319
851.350403,324
851.468262,311
851.58606,310
851.703979,301
851.821777,302
851.939636,321
852.057434,324
852.175232,326
852.293091,306
852.410889,325
852.528687,319
852.646545,323
852.764343,322
852.88208,317
852.999939,323
853.117676,306
853.235535,330
853.353271,314
853.471069,325
853.588928,315
853.706604,317
853.824402,320
853.9422,324
854.059998,319
854.177734,320
854.295532,309
854.413269,327
854.531006,319
854.648804,325
854.766541,329
854.884277,325
855.002014,320
855.119751,318
855.237549,318
855.355225,316
855.473022,314
855.590698,322
855.708435,308
855.826172,322
855.943848,312
856.061646,328
856.179321,305
856.296997,324
856.414795,310
856.53241,322
856.650085,317
856.767822,314
856.885559,321
857.003174,319
857.120911,315
857.238586,322
857.356201,320
857.473938,328
857.591614,322
857.709351,316
857.826965,325
857.944641,314
858.062317,329
858.179993,314
858.297668,322
858.415283,325
858.532959,310
858.650574,320
858.768188,329
858.885803,319
859.003479,307
859.121094,323
859.23877,331
859.356384,317
859.473999,314
859.591675,327
859.709229,330
859.826843,308
859.944458,310
860.062012,310
860.179626,319
860.297302,329
860.414856,320
860.532471,304
860.650024,309
860.767639,327
860.885193,322
861.002808,325
861.120361,316
861.237976,300
861.35553,314
861.473022,330
861.590698,323
861.708191,319
861.825745,314
861.943298,324
862.060852,323
862.178406,319
862.295959,323
862.413513,307
862.531006,312
862.64856,335
862.766113,316
862.883667,313
863.00116,310
863.118713,322
863.236206,316
863.353699,318
863.471252,318
863.588745,325
863.706177,323
863.82373,334
863.941162,314
864.058716,322
864.176208,313
864.29364,324
864.411194,323
864.528687,320
864.646118,310
864.763611,313
864.881042,316
864.998535,323
865.116028,307
865.233459,317
865.350891,316
865.468384,315
865.585754,322
865.703308,315
865.820679,312
865.938171,318
866.055542,316
866.173035,318
866.290466,328
866.407837,317
866.52533,320
866.6427,333
866.760071,316
866.877563,320
866.994934,310
867.112305,313
867.229736,316
867.347107,334
867.464539,325
867.58197,327
867.699341,316
867.81665,313
867.934082,347
868.051453,323
868.168823,323
868.286194,324
868.403564,317
868.520935,324
868.638306,316
868.755676,320
868.872986,312
868.990295,314
869.107727,319
869.225037,316
869.342346,301
869.459717,323
869.577026,334
869.694336,323
869.811707,322
869.929016,312
870.046326,320
870.163635,325
870.280945,306
870.398254,321
870.515564,304
870.632812,310
870.750183,323
870.867432,313
870.984741,307
871.102051,326
871.219299,326
871.336609,330
871.453918,332
871.571106,316
871.688416,326
871.805664,326
871.922852,313
872.040222,327
872.157471,319
872.274719,318
872.391968,312
872.509155,330
872.626465,327
872.743652,324
872.860962,327
872.978149,327
873.095337,306
873.212646,323
873.329834,307
873.44696,322
873.564209,316
873.681396,322
873.798645,322
873.915894,311
874.03302,311
874.150208,325
874.267456,310
874.384583,319
874.501831,320
874.618958,311
874.736145,317
874.853333,330
874.970459,321
875.087646,314
875.204834,318
875.32196,322
875.439148,331
875.556274,311
875.673401,324
875.790527,314
875.907715,316
876.024841,315
876.141968,318
876.259094,322
876.376282,318
876.493347,317
876.610474,317
876.7276,324
876.844727,309
876.961853,335
877.078918,321
877.195984,310
877.313171,317
877.430237,306
877.547302,305
877.664368,327
877.781433,333
877.898499,326
878.015625,322
878.13269,326
878.249695,303
878.366821,321
878.483887,328
878.600952,323
878.717957,312
878.834961,319
878.952087,316
879.069092,319
879.186157,313
879.303162,326
879.420227,320
879.537231,313
879.654236,328
879.77124,316
879.888306,326
880.005249,317
880.122314,302
880.239319,334
880.356323,309
880.473328,309
880.590271,320
880.707275,314
880.824341,317
880.941284,323
881.058228,319
881.175232,324
881.292236,323
881.40918,319
881.526123,312
881.643066,320
881.760071,316
881.877014,323
881.993958,309
882.11084,309
882.227783,317
882.344727,305
882.46167,312
882.578613,322
882.695618,316
882.812439,312
882.929382,311
883.046326,312
883.163208,329
883.280151,326
883.397034,323
883.513916,319
883.630798,307
883.747742,331
883.864563,319
883.981506,327
884.098389,313
884.21521,315
884.332153,320
884.448975,313
884.565796,331
884.682678,324
884.7995,314
884.916443,323
885.033264,328
885.150085,326
885.266968,332
885.383789,322
885.500671,324
885.617493,330
885.734314,312
885.851196,323
885.967896,335
886.084717,327
886.201599,330
886.318359,335
886.435181,329
886.552002,322
886.668762,325
886.785645,327
886.902344,311
887.019165,326
887.135925,317
887.252747,324
887.369446,329
887.486267,318
887.603027,327
887.719788,322
887.836548,320
887.953247,319
888.070068,325
888.186829,320
888.303528,321
888.420288,317
888.536987,337
888.653687,316
888.770447,309
888.887146,330
889.003967,315
889.120667,310
889.237305,302
889.354065,325
889.470703,319
889.587463,313
889.704163,301
889.820862,311
889.937561,312
890.054199,317
890.170837,322
890.287598,320
890.404236,318
890.520874,328
890.637634,310
890.754211,327
890.87085,325
890.987549,316
891.104187,312
891.220886,315
891.337463,317
891.454102,319
891.57074,317
891.687378,337
891.804077,316
891.920654,306
892.037231,327
892.15387,314
892.270447,317
892.387085,315
892.503723,329
892.6203,322
892.736877,300
892.853516,328
892.970032,323
893.08667,322
893.203186,308
893.319763,325
893.43634,310
893.552917,320
893.669556,302
893.786011,334
893.902588,311
894.019165,320
894.135681,317
894.252197,336
894.368835,327
894.485291,323
894.601868,314
894.718384,321
894.8349,315
894.951355,315
895.067932,316
895.184448,318
895.300964,320
895.417419,318
895.533936,302
895.650452,310
895.766907,325
895.883423,312
895.999878,325
896.116333,319
896.232849,319
896.349304,331
896.465759,311
896.582214,314
896.698669,317
896.815125,318
896.931641,331
897.048035,323
897.164551,312
897.280884,322
897.397339,325
897.513794,319
897.630249,311
897.746582,329
897.863098,322
897.979431,320
898.095886,323
898.212341,319
898.328674,319
898.445129,317
898.561462,319
898.677795,311
898.794312,325
898.910645,311
899.026978,306
899.143433,314
899.259766,324
899.37616,327
899.492493,303
899.608765,323
899.725159,319
899.841553,312
899.957947,303
900.07428,330
900.190552,327
900.306946,322
900.423157,320
900.53949,313
900.655884,326
900.772156,326
900.888489,304
901.004822,311
901.121033,316
901.237366,322
901.353699,326
901.46991,319
901.586304,316
901.702515,319
901.818787,324
901.93512,317
902.051331,315
902.167603,322
902.283875,326
902.400085,336
902.516418,324
902.632629,313
902.74884,317
902.865112,331
902.981384,315
903.097595,316
903.213867,315
903.330017,301
903.446289,321
903.5625,325
903.67865,314
903.794922,330
903.911072,312
904.027344,329
904.143494,319
904.259705,324
904.375916,317
904.492065,318
904.608215,320
904.724426,326
904.840576,314
904.956726,313
905.072876,312
905.189087,312
905.305176,326
905.421387,323
905.537537,332
905.653687,320
905.769775,317
905.885925,322
906.002014,316
906.118164,321
906.234314,310
906.350403,318
906.466492,326
906.582642,315
906.69873,315
906.814758,323
906.930908,320
907.046936,316
907.163086,313
907.279175,315
907.395264,324
907.511353,319
907.62738,329
907.743408,315
907.859497,324
907.975525,320
908.091553,313
908.207703,316
908.32373,320
908.439758,312
908.555786,319
908.671814,315
908.787842,323
908.90387,334
909.019775,323
909.135864,320
909.251892,314
909.367859,322
909.483826,322
909.599854,327
909.715881,315
909.831848,319
909.947815,324
910.063782,321
910.179749,316
910.295776,312
910.411743,315
910.527649,323
910.643616,320
910.759583,336
910.875488,318
910.991455,321
911.107361,315
911.223267,333
911.339294,310
911.4552,315
911.571106,326
911.687073,338
911.802979,311
911.918823,335
912.034729,319
912.150635,309
912.266602,322
912.382446,324
912.498352,305
912.614197,331
912.730103,310
912.846008,322
792.44574,326
792.56488,367
792.68396,418
792.80304,407
792.92218,359
793.041199,331
793.160339,342
793.279419,341
793.398499,357
793.517578,319
793.636658,334
793.755737,344
793.874817,381
793.993896,362
794.112976,347
794.232056,334
794.351074,323
794.470215,358
794.589233,338
794.708313,336
794.827393,333
794.946411,344
795.065552,338
795.18457,355
795.303589,334
795.422668,319
795.541687,337
795.660767,349
795.779846,336
795.898865,348
796.017883,345
796.136963,324
796.255981,344
796.375061,346
796.49408,333
796.613037,349
796.732117,330
796.851135,342
796.970154,336
797.089233,340
797.208191,343
797.327271,318
797.446228,337
797.565186,342
797.684265,335
797.803223,333
797.922241,338
798.04126,340
798.160278,331
798.279297,338
798.398315,324
798.517273,340
798.636292,329
798.75531,340
798.874268,335
798.993286,326
799.112244,327
799.231323,330
799.350281,339
799.469238,335
799.588257,335
799.707153,339
799.826111,339
799.945129,325
800.064087,348
800.183044,339
800.302063,335
800.421021,324
800.539978,346
800.658936,337
800.777893,327
800.896912,342
801.015747,335
801.134705,332
801.253723,335
801.37262,334
801.491638,331
801.610535,325
801.729492,335
801.84845,325
801.967407,323
802.086243,336
802.205261,325
802.324158,343
802.443115,326
802.562073,330
802.680969,325
802.799927,326
802.918762,332
803.037659,324
803.156677,334
803.275574,329
803.39447,319
803.513428,323
803.632263,319
803.751221,322
803.870117,334
803.989014,325
804.107971,317
804.226746,329
804.345642,323
804.4646,347
804.583496,306
804.702393,324
804.821228,345
804.940125,337
805.059021,331
805.177917,329
805.296814,332
805.415649,341
805.534546,334
805.653442,336
805.772278,323
805.891113,332
806.01001,329
806.128906,328
806.247742,328
806.366577,332
806.485413,330
806.604309,327
806.723145,330
806.84198,331
806.960876,314
807.079712,336
807.198486,344
807.317383,338
807.436218,320
807.554993,343
807.673889,328
807.792725,346
807.91156,326
808.030396,328
808.14917,320
808.268005,335
808.386841,346
808.505676,342
808.624451,340
808.743286,327
808.862122,326
808.980896,338
809.099731,315
809.218506,323
809.337341,326
809.456116,341
809.57489,326
809.693726,326
809.8125,334
809.931274,336
810.050049,330
810.168884,328
810.287659,319
810.406372,331
810.525269,333
810.643982,330
810.762756,341
810.881531,333
811.000305,332
811.11908,315
811.237854,319
811.356567,329
811.475403,337
811.594116,325
811.71283,323
811.831604,335
811.950378,328
812.069153,326
812.187927,336
812.30658,336
812.425415,329
812.544128,339
812.662781,330
812.781616,345
812.900269,327
813.019043,333
813.137756,331
813.256531,323
813.375244,339
813.493896,343
813.612671,321
813.731384,333
813.850037,339
813.96875,342
814.087524,334
814.206238,317
814.324951,336
814.443604,335
814.562256,325
814.68103,320
814.799683,328
814.918335,332
815.037109,327
815.155762,325
815.274475,339
815.393188,336
815.511841,322
815.630554,333
815.749146,326
815.867859,328
815.986572,333
816.105164,331
816.223877,333
816.342529,336
816.461182,340
816.579895,323
816.698486,327
816.817139,327
816.935791,328
817.054504,346
817.173096,325
817.291748,329
817.4104,326
817.529053,329
817.647644,331
817.766235,321
817.884949,323
818.00354,336
818.122192,341
818.240845,334
818.359436,334
818.478088,337
818.59668,332
818.715271,328
818.833923,313
818.952515,332
819.071106,326
819.189758,325
819.30835,318
819.426941,324
819.545532,323
819.664124,315
819.782715,318
819.901306,342
820.019897,319
820.138489,326
820.25708,319
820.375671,329
820.494202,325
820.612732,320
820.731384,332
820.849915,314
820.968506,326
821.087097,326
821.205627,321
821.324158,325
821.442749,323
821.561279,321
821.679871,339
821.798401,326
821.916931,330
822.035461,311
822.154053,313
822.272583,310
822.391174,310
822.509583,330
822.628174,334
822.746704,318
822.865234,337
822.983765,309
823.102295,321
823.220825,329
823.339294,307
823.457825,310
823.576355,331
823.694824,349
823.813354,327
823.931885,318
824.050354,322
824.168884,333
824.287354,322
824.405823,315
824.524353,321
824.642822,325
824.761353,315
824.879822,331
824.998291,305
825.116699,319
825.235291,327
825.353699,317
825.472168,331
825.590637,310
825.709106,324
825.827576,324
825.946045,316
826.064453,303
826.182983,334
826.301392,315
826.4198,323
826.53833,326
826.656738,330
826.775208,322
826.893677,321
827.012024,316
827.130493,331
827.248962,319
827.36731,305
827.485779,306
827.604248,338
827.722595,321
827.841064,323
827.959412,326
828.077942,324
828.196289,325
828.314636,325
828.433105,319
828.551514,316
828.669861,311
828.78833,326
828.906677,329
829.025085,328
829.143433,314
829.261841,319
829.38031,318
829.498657,320
829.617004,323
829.735413,325
829.85376,316
829.972107,321
830.090515,318
830.208862,311
830.327209,325
830.445557,322
830.563904,317
830.682312,310
830.800659,330
830.919006,321
831.037354,311
831.155701,319
831.274048,314
831.392395,325
831.51062,312
831.629028,326
831.747314,321
831.865662,305
831.984009,317
832.102356,315
832.220642,329
832.338928,324
832.457275,316
832.575623,323
832.693909,316
832.812134,325
832.930481,339
833.048828,325
833.167114,308
833.2854,327
833.403687,319
833.521973,302
833.640259,321
833.758545,307
833.876831,332
833.995056,313
834.113281,313
834.231628,323
834.349915,320
834.468201,319
834.586426,320
834.704651,306
834.822998,325
834.941162,320
835.059448,311
835.177673,323
835.295959,315
835.414246,309
835.53241,335
835.650635,324
835.768921,326
835.887146,314
836.005371,327
836.123596,321
836.241821,322
836.360046,315
836.478271,314
836.596497,313
836.714722,322
836.832886,319
836.95105,324
837.069336,327
837.1875,316
837.305725,317
837.423889,322
837.542053,309
837.660339,324
837.778503,317
837.896667,316
838.014832,327
838.132996,313
838.25116,319
838.369385,328
838.487488,325
838.605713,312
838.723877,322
838.84198,332
838.960205,317
839.078308,332
839.196472,319
839.314636,320
839.4328,332
839.550964,333
839.669067,323
839.787231,326
839.905396,316
840.023499,323
840.141602,319
840.259766,322
840.377869,312
840.495972,327
840.614136,322
840.732239,314
840.850342,325
840.968445,336
841.086548,316
841.204651,320
841.322754,322
841.440918,308
841.55896,318
841.677002,308
841.795166,327
841.913208,335
842.031311,332
842.149353,314
842.267456,313
842.385498,333
842.503601,329
842.621643,325
842.739746,319
842.857788,326
842.97583,321
843.093933,322
843.211975,333
843.330017,326
843.44812,319
843.566101,337
843.684204,330
843.802246,328
843.920227,320
844.038269,322
844.156311,330
844.274292,320
844.392395,313
844.510376,322
844.628357,327
844.74646,324
844.864441,309
844.982422,324
845.100403,320
845.218384,328
845.336426,307
845.454468,330
845.572449,328
845.69043,314
845.808411,323
845.926453,319
846.044373,317
846.162354,329
846.280396,332
846.398315,311
846.516296,334
846.634216,315
846.752197,329
846.870178,318
846.988098,323
847.106079,323
847.22406,312
847.34198,318
847.4599,321
847.577881,326
847.695801,318
847.813782,333
847.931641,315
848.049561,327
848.167603,316
848.285461,331
848.403381,314
848.521362,323
848.639221,320
848.75708,327
848.875,321
848.99292,317
849.110901,309
849.22876,320
849.34668,322
849.464539,318
849.582458,316
849.700317,333
849.818176,317
849.936096,321
850.053955,328
850.171875,313
850.289673,317
850.407593,330
850.525452,325
850.643311,326
850.761169,324
850.878967,322
850.996887,311
851.114746,303
851.232544,321
851.350403,319
851.468262,318
851.58606,316
851.703979,306
851.821777,305
851.939636,309
852.057434,329
852.175232,325
852.293091,321
852.410889,321
852.528687,313
852.646545,326
852.764343,344
852.88208,317
852.999939,330
853.117676,333
853.235535,324
853.353271,324
853.471069,325
853.588928,324
853.706604,345
853.824402,309
853.9422,329
854.059998,309
854.177734,327
854.295532,324
854.413269,317
854.531006,319
854.648804,336
854.766541,314
854.884277,314
855.002014,318
855.119751,337
855.237549,318
855.355225,330
855.473022,320
855.590698,326
855.708435,326
855.826172,328
855.943848,332
856.061646,315
856.179321,332
856.296997,333
856.414795,327
856.53241,332
856.650085,305
856.767822,329
856.885559,330
857.003174,331
857.120911,324
857.238586,324
857.356201,324
857.473938,330
857.591614,327
857.709351,327
857.826965,321
857.944641,319
858.062317,327
858.179993,332
858.297668,322
858.415283,323
858.532959,311
858.650574,333
858.768188,308
858.885803,324
859.003479,315
859.121094,329
859.23877,309
859.356384,327
859.473999,319
859.591675,319
859.709229,328
859.826843,313
859.944458,340
860.062012,335
860.179626,323
860.297302,329
860.414856,313
860.532471,327
860.650024,315
860.767639,318
860.885193,329
861.002808,319
861.120361,328
861.237976,327
861.35553,332
861.473022,313
861.590698,315
861.708191,314
861.825745,311
861.943298,318
862.060852,316
862.178406,320
862.295959,314
862.413513,314
862.531006,310
862.64856,319
862.766113,330
862.883667,315
863.00116,323
863.118713,335
863.236206,310
863.353699,324
863.471252,309
863.588745,310
863.706177,324
863.82373,323
863.941162,318
864.058716,307
864.176208,319
864.29364,339
864.411194,317
864.528687,320
864.646118,308
864.763611,332
864.881042,321
864.998535,327
865.116028,315
865.233459,316
865.350891,312
865.468384,326
865.585754,307
865.703308,314
865.820679,329
865.938171,324
866.055542,308
866.173035,323
866.290466,314
866.407837,327
866.52533,306
866.6427,326
866.760071,322
866.877563,330
866.994934,321
867.112305,312
867.229736,300
867.347107,331
867.464539,319
867.58197,325
867.699341,320
867.81665,316
867.934082,322
868.051453,320
868.168823,316
868.286194,304
868.403564,317
868.520935,320
868.638306,311
868.755676,307
868.872986,315
868.990295,332
869.107727,321
869.225037,313
869.342346,336
869.459717,322
869.577026,316
869.694336,316
869.811707,328
869.929016,319
870.046326,320
870.163635,320
870.280945,321
870.398254,329
870.515564,310
870.632812,336
870.750183,325
870.867432,327
870.984741,323
871.102051,308
871.219299,306
871.336609,324
871.453918,314
871.571106,318
871.688416,323
871.805664,323
871.922852,318
872.040222,318
872.157471,316
872.274719,328
872.391968,319
872.509155,336
872.626465,317
872.743652,300
872.860962,328
872.978149,335
873.095337,314
873.212646,329
873.329834,317
873.44696,340
873.564209,323
873.681396,321
873.798645,329
873.915894,314
874.03302,316
874.150208,314
874.267456,309
874.384583,319
874.501831,313
874.618958,327
874.736145,318
874.853333,320
874.970459,323
875.087646,321
875.204834,320
875.32196,311
875.439148,315
875.556274,330
875.673401,320
875.790527,321
875.907715,320
876.024841,318
876.141968,322
876.259094,333
876.376282,318
876.493347,329
876.610474,315
876.7276,326
876.844727,309
876.961853,319
877.078918,317
877.195984,315
877.313171,315
877.430237,322
877.547302,319
877.664368,335
877.781433,325
877.898499,332
878.015625,310
878.13269,313
878.249695,324
878.366821,324
878.483887,313
878.600952,328
878.717957,320
878.834961,330
878.952087,313
879.069092,317
879.186157,317
879.303162,311
879.420227,308
879.537231,311
879.654236,317
879.77124,323
879.888306,326
880.005249,324
880.122314,323
880.239319,333
880.356323,316
880.473328,324
880.590271,325
880.707275,324
880.824341,321
880.941284,323
881.058228,310
881.175232,326
881.292236,315
881.40918,338
881.526123,310
881.643066,321
881.760071,328
881.877014,324
881.993958,316
882.11084,322
882.227783,317
882.344727,322
882.46167,321
882.578613,318
882.695618,325
882.812439,296
882.929382,312
883.046326,323
883.163208,322
883.280151,318
883.397034,311
883.513916,323
883.630798,309
883.747742,334
883.864563,307
883.981506,318
884.098389,303
884.21521,314
884.332153,332
884.448975,330
884.565796,316
884.682678,336
884.7995,332
884.916443,322
885.033264,321
885.150085,323
885.266968,324
885.383789,314
885.500671,334
885.617493,313
885.734314,314
885.851196,324
885.967896,324
886.084717,322
886.201599,325
886.318359,325
886.435181,333
886.552002,329
886.668762,318
886.785645,329
886.902344,323
887.019165,321
887.135925,320
887.252747,333
887.369446,325
887.486267,326
887.603027,310
887.719788,318
887.836548,315
887.953247,314
888.070068,318
888.186829,332
888.303528,317
888.420288,330
888.536987,314
888.653687,306
888.770447,323
888.887146,313
889.003967,307
889.120667,319
889.237305,310
889.354065,322
889.470703,306
889.587463,334
889.704163,320
889.820862,313
889.937561,331
890.054199,308
890.170837,313
890.287598,334
890.404236,325
890.520874,308
890.637634,325
890.754211,321
890.87085,321
890.987549,329
891.104187,317
891.220886,314
891.337463,320
891.454102,327
891.57074,314
891.687378,319
891.804077,305
891.920654,310
892.037231,314
892.15387,321
892.270447,321
892.387085,307
892.503723,319
892.6203,317
892.736877,323
892.853516,325
892.970032,315
893.08667,319
893.203186,314
893.319763,317
893.43634,326
893.552917,322
893.669556,325
893.786011,316
893.902588,302
894.019165,325
894.135681,310
894.252197,328
894.368835,317
894.485291,320
894.601868,312
894.718384,316
894.8349,305
894.951355,323
895.067932,319
895.184448,314
895.300964,306
895.417419,320
895.533936,312
895.650452,321
895.766907,319
895.883423,331
895.999878,327
896.116333,314
896.232849,316
896.349304,310
896.465759,307
896.582214,327
896.698669,320
896.815125,312
896.931641,313
897.048035,325
897.164551,315
897.280884,319
897.397339,315
897.513794,316
897.630249,321
897.746582,312
897.863098,307
897.979431,321
898.095886,317
898.212341,331
898.328674,327
898.445129,318
898.561462,318
898.677795,311
898.794312,313
898.910645,333
899.026978,321
899.143433,324
899.259766,308
899.37616,324
899.492493,337
899.608765,309
899.725159,308
899.841553,302
899.957947,315
900.07428,312
900.190552,315
900.306946,311
900.423157,329
900.53949,317
900.655884,319
900.772156,319
900.888489,308
901.004822,322
901.121033,307
901.237366,315
901.353699,317
901.46991,312
901.586304,316
901.702515,322
901.818787,317
901.93512,327
902.051331,315
902.167603,320
902.283875,319
902.400085,326
902.516418,316
902.632629,320
902.74884,319
902.865112,338
902.981384,320
903.097595,329
903.213867,312
903.330017,319
903.446289,320
903.5625,316
903.67865,307
903.794922,315
903.911072,318
904.027344,328
904.143494,315
904.259705,323
904.375916,299
904.492065,327
904.608215,316
904.724426,323
904.840576,320
904.956726,308
905.072876,316
905.189087,326
905.305176,320
905.421387,331
905.537537,319
905.653687,325
905.769775,317
905.885925,327
906.002014,314
906.118164,302
906.234314,311
906.350403,316
906.466492,321
906.582642,308
906.69873,308
906.814758,317
906.930908,324
907.046936,321
907.163086,309
907.279175,320
907.395264,314
907.511353,329
907.62738,315
907.743408,318
907.859497,322
907.975525,338
908.091553,320
908.207703,326
908.32373,322
908.439758,319
908.555786,322
908.671814,324
908.787842,318
908.90387,329
909.019775,313
909.135864,314
909.251892,310
909.367859,332
909.483826,324
909.599854,324
909.715881,324
909.831848,323
909.947815,320
910.063782,340
910.179749,306
910.295776,321
910.411743,326
910.527649,318
910.643616,318
910.759583,330
910.875488,302
910.991455,324
911.107361,328
911.223267,315
911.339294,310
911.4552,324
911.571106,304
911.687073,331
911.802979,318
911.918823,313
912.034729,312
912.150635,325
912.266602,328
912.382446,314
912.498352,308
912.614197,325
912.730103,313
912.846008,313
792.44574,345
792.56488,371
792.68396,412
792.80304,398
792.92218,352
793.041199,340
793.160339,339
793.279419,335
793.398499,353
793.517578,330
793.636658,345
793.755737,355
793.874817,353
793.993896,346
794.112976,350
794.232056,334
794.351074,333
794.470215,338
794.589233,333
794.708313,353
794.827393,346
794.946411,324
795.065552,350
795.18457,333
795.303589,343
795.422668,336
795.541687,349
795.660767,337
795.779846,342
795.898865,333
796.017883,345
796.136963,328
796.255981,352
796.375061,326
796.49408,336
796.613037,324
796.732117,340
796.851135,327
796.970154,337
797.089233,324
797.208191,337
797.327271,342
797.446228,328
797.565186,350
797.684265,337
797.803223,345
797.922241,333
798.04126,346
798.160278,341
798.279297,322
798.398315,345
798.517273,326
798.636292,336
798.75531,332
798.874268,341
798.993286,338
799.112244,342
799.231323,339
799.350281,339
799.469238,333
799.588257,335
799.707153,341
799.826111,328
799.945129,347
800.064087,326
800.183044,338
800.302063,323
800.421021,339
800.539978,321
800.658936,321
800.777893,340
800.896912,341
801.015747,327
801.134705,318
801.253723,327
801.37262,332
801.491638,331
801.610535,327
801.729492,337
801.84845,340
801.967407,319
802.086243,328
802.205261,334
802.324158,338
802.443115,328
802.562073,326
802.680969,337
802.799927,335
802.918762,333
803.037659,330
803.156677,335
803.275574,341
803.39447,332
803.513428,340
803.632263,331
803.751221,324
803.870117,337
803.989014,325
804.107971,332
804.226746,328
804.345642,337
804.4646,343
804.583496,337
804.702393,336
804.821228,321
804.940125,329
805.059021,332
805.177917,325
805.296814,331
805.415649,344
805.534546,333
805.653442,328
805.772278,334
805.891113,324
806.01001,337
806.128906,330
806.247742,343
806.366577,321
806.485413,343
806.604309,329
806.723145,332
806.84198,328
806.960876,328
807.079712,316
807.198486,335
807.317383,328
807.436218,326
807.554993,321
807.673889,343
807.792725,318
807.91156,321
808.030396,317
808.14917,337
808.268005,327
808.386841,315
808.505676,331
808.624451,331
808.743286,333
808.862122,321
808.980896,323
809.099731,345
809.218506,334
809.337341,339
809.456116,337
809.57489,322
809.693726,332
809.8125,339
809.931274,326
810.050049,334
810.168884,343
810.287659,325
810.406372,331
810.525269,317
810.643982,341
810.762756,321
810.881531,320
811.000305,346
811.11908,326
811.237854,325
811.356567,326
811.475403,334
811.594116,331
811.71283,345
811.831604,343
811.950378,332
812.069153,328
812.187927,329
812.30658,327
812.425415,337
812.544128,331
812.662781,323
812.781616,317
812.900269,319
813.019043,337
813.137756,332
813.256531,319
813.375244,330
813.493896,336
813.612671,323
813.731384,331
813.850037,336
813.96875,331
814.087524,319
814.206238,329
814.324951,330
814.443604,317
814.562256,314
814.68103,311
814.799683,336
814.918335,338
815.037109,338
815.155762,333
815.274475,328
815.393188,330
815.511841,326
815.630554,337
815.749146,337
815.867859,322
815.986572,332
816.105164,321
816.223877,332
816.342529,323
816.461182,332
816.579895,334
816.698486,337
816.817139,328
816.935791,324
817.054504,320
817.173096,328
817.291748,318
817.4104,337
817.529053,340
817.647644,340
817.766235,328
817.884949,338
818.00354,327
818.122192,334
818.240845,319
818.359436,323
818.478088,336
818.59668,336
818.715271,322
818.833923,322
818.952515,330
819.071106,320
819.189758,333
819.30835,315
819.426941,326
819.545532,325
819.664124,309
819.782715,300
819.901306,318
820.019897,320
820.138489,316
820.25708,313
820.375671,325
820.494202,340
820.612732,317
820.731384,329
820.849915,328
820.968506,317
821.087097,326
821.205627,312
821.324158,317
821.442749,314
821.561279,331
821.679871,326
821.798401,315
821.916931,306
822.035461,320
822.154053,324
822.272583,326
822.391174,314
822.509583,323
822.628174,337
822.746704,323
822.865234,320
822.983765,325
823.102295,328
823.220825,327
823.339294,324
823.457825,317
823.576355,323
823.694824,315
823.813354,321
823.931885,313
824.050354,320
824.168884,317
824.287354,334
824.405823,325
824.524353,321
824.642822,320
824.761353,333
824.879822,317
824.998291,325
825.116699,315
825.235291,330
825.353699,314
825.472168,324
825.590637,305
825.709106,334
825.827576,317
825.946045,325
826.064453,317
826.182983,311
826.301392,323
826.4198,326
826.53833,315
826.656738,312
826.775208,301
826.893677,338
827.012024,315
827.130493,321
827.248962,314
827.36731,325
827.485779,310
827.604248,308
827.722595,316
827.841064,324
827.959412,316
828.077942,322
828.196289,310
828.314636,318
828.433105,330
828.551514,311
828.669861,325
828.78833,318
828.906677,334
829.025085,327
829.143433,303
829.261841,307
829.38031,306
829.498657,330
829.617004,304
829.735413,310
829.85376,321
829.972107,319
830.090515,302
830.208862,327
830.327209,315
830.445557,331
830.563904,322
830.682312,300
830.800659,310
830.919006,308
831.037354,307
831.155701,330
831.274048,311
831.392395,327
831.51062,318
831.629028,315
831.747314,321
831.865662,320
831.984009,316
832.102356,330
832.220642,311
832.338928,320
832.457275,312
832.575623,322
832.693909,318
832.812134,317
832.930481,301
833.048828,321
833.167114,321
833.2854,327
833.403687,320
833.521973,321
833.640259,313
833.758545,326
833.876831,319
833.995056,318
834.113281,305
834.231628,319
834.349915,315
834.468201,309
834.586426,319
834.704651,310
834.822998,316
834.941162,319
835.059448,308
835.177673,329
835.295959,320
835.414246,313
835.53241,303
835.650635,321
835.768921,315
835.887146,324
836.005371,322
836.123596,331
836.241821,325
836.360046,324
836.478271,332
836.596497,310
836.714722,312
836.832886,326
836.95105,321
837.069336,305
837.1875,308
837.305725,304
837.423889,313
837.542053,322
837.660339,317
837.778503,334
837.896667,322
838.014832,312
838.132996,316
838.25116,321
838.369385,319
838.487488,315
838.605713,313
838.723877,333
838.84198,313
838.960205,316
839.078308,311
839.196472,320
839.314636,327
839.4328,325
839.550964,313
839.669067,326
839.787231,321
839.905396,330
840.023499,318
840.141602,320
840.259766,311
840.377869,328
840.495972,322
840.614136,309
840.732239,307
840.850342,309
840.968445,324
841.086548,319
841.204651,325
841.322754,319
841.440918,315
841.55896,327
841.677002,316
841.795166,317
841.913208,311
842.031311,308
842.149353,328
842.267456,337
842.385498,322
842.503601,313
842.621643,321
842.739746,328
842.857788,326
842.97583,323
843.093933,302
843.211975,323
843.330017,319
843.44812,326
843.566101,311
843.684204,335
843.802246,311
843.920227,319
844.038269,329
844.156311,303
844.274292,323
844.392395,321
844.510376,311
844.628357,316
844.74646,333
844.864441,323
844.982422,328
845.100403,324
845.218384,310
845.336426,318
845.454468,312
845.572449,320
845.69043,312
845.808411,315
845.926453,306
846.044373,328
846.162354,317
846.280396,317
846.398315,330
846.516296,322
846.634216,303
846.752197,320
846.870178,305
846.988098,322
847.106079,320
847.22406,316
847.34198,318
847.4599,341
847.577881,321
847.695801,310
847.813782,331
847.931641,311
848.049561,315
848.167603,318
848.285461,329
848.403381,318
848.521362,333
848.639221,350
848.75708,307
848.875,332
848.99292,310
849.110901,320
849.22876,331
849.34668,315
849.464539,311
849.582458,303
849.700317,326
849.818176,310
849.936096,324
850.053955,322
850.171875,310
850.289673,325
850.407593,317
850.525452,314
850.643311,313
850.761169,316
850.878967,331
850.996887,312
851.114746,322
851.232544,319
851.350403,304
851.468262,324
851.58606,318
851.703979,317
851.821777,314
851.939636,316
852.057434,322
852.175232,319
852.293091,330
852.410889,313
852.528687,308
852.646545,328
852.764343,313
852.88208,314
852.999939,313
853.117676,313
853.235535,309
853.353271,305
853.471069,319
853.588928,329
853.706604,312
853.824402,320
853.9422,314
854.059998,312
854.177734,320
854.295532,317
854.413269,307
854.531006,330
854.648804,310
854.766541,315
854.884277,316
855.002014,327
855.119751,324
855.237549,317
855.355225,307
855.473022,328
855.590698,329
855.708435,320
855.826172,326
855.943848,320
856.061646,323
856.179321,325
856.296997,312
856.414795,329
856.53241,327
856.650085,326
856.767822,313
856.885559,336
857.003174,327
857.120911,331
857.238586,310
857.356201,323
857.473938,311
857.591614,324
857.709351,308
857.826965,313
857.944641,334
858.062317,319
858.179993,315
858.297668,330
858.415283,323
858.532959,318
858.650574,307
858.768188,325
858.885803,316
859.003479,309
859.121094,321
859.23877,314
859.356384,321
859.473999,331
859.591675,319
859.709229,319
859.826843,336
859.944458,327
860.062012,310
860.179626,324
860.297302,309
860.414856,330
860.532471,311
860.650024,322
860.767639,322
860.885193,322
861.002808,303
861.120361,319
861.237976,302
861.35553,324
861.473022,323
861.590698,317
861.708191,319
861.825745,318
861.943298,316
862.060852,320
862.178406,305
862.295959,313
862.413513,314
862.531006,313
862.64856,312
862.766113,314
862.883667,317
863.00116,315
863.118713,325
863.236206,326
863.353699,318
863.471252,323
863.588745,325
863.706177,321
863.82373,316
863.941162,320
864.058716,313
864.176208,320
864.29364,327
864.411194,311
864.528687,325
864.646118,322
864.763611,318
864.881042,322
864.998535,318
865.116028,317
865.233459,307
865.350891,331
865.468384,316
865.585754,316
865.703308,313
865.820679,314
865.938171,313
866.055542,321
866.173035,313
866.290466,309
866.407837,318
866.52533,334
866.6427,318
866.760071,332
866.877563,322
866.994934,324
867.112305,314
867.229736,320
867.347107,311
867.464539,327
867.58197,318
867.699341,327
867.81665,297
867.934082,313
868.051453,308
868.168823,320
868.286194,313
868.403564,306
868.520935,323
868.638306,321
868.755676,311
868.872986,317
868.990295,302
869.107727,329
869.225037,316
869.342346,324
869.459717,324
869.577026,331
869.694336,313
869.811707,319
869.929016,307
870.046326,323
870.163635,311
870.280945,319
870.398254,301
870.515564,327
870.632812,317
870.750183,315
870.867432,310
870.984741,312
871.102051,327
871.219299,324
871.336609,327
871.453918,325
871.571106,320
871.688416,340
871.805664,322
871.922852,333
872.040222,325
872.157471,309
872.274719,324
872.391968,329
872.509155,315
872.626465,310
872.743652,321
872.860962,328
872.978149,312
873.095337,320
873.212646,323
873.329834,327
873.44696,313
873.564209,325
873.681396,322
873.798645,310
873.915894,319
874.03302,310
874.150208,319
874.267456,320
874.384583,322
874.501831,320
874.618958,304
874.736145,317
874.853333,308
874.970459,324
875.087646,319
875.204834,327
875.32196,317
875.439148,326
875.556274,316
875.673401,317
875.790527,314
875.907715,327
876.024841,314
876.141968,325
876.259094,318
876.376282,318
876.493347,321
876.610474,309
876.7276,316
876.844727,314
876.961853,328
877.078918,321
877.195984,307
877.313171,330
877.430237,299
877.547302,334
877.664368,321
877.781433,325
877.898499,319
878.015625,318
878.13269,326
878.249695,309
878.366821,304
878.483887,314
878.600952,314
878.717957,331
878.834961,315
878.952087,329
879.069092,317
879.186157,321
879.303162,322
879.420227,317
879.537231,309
879.654236,308
879.77124,308
879.888306,321
880.005249,319
880.122314,317
880.239319,322
880.356323,324
880.473328,337
880.590271,318
880.707275,307
880.824341,326
880.941284,316
881.058228,324
881.175232,307
881.292236,321
881.40918,310
881.526123,317
881.643066,325
881.760071,320
881.877014,308
881.993958,315
882.11084,319
882.227783,338
882.344727,310
882.46167,322
882.578613,303
882.695618,325
882.812439,317
882.929382,307
883.046326,328
883.163208,320
883.280151,322
883.397034,317
883.513916,316
883.630798,325
883.747742,309
883.864563,330
883.981506,316
884.098389,327
884.21521,320
884.332153,319
884.448975,303
884.565796,323
884.682678,321
884.7995,320
884.916443,310
885.033264,325
885.150085,316
885.266968,322
885.383789,316
885.500671,328
885.617493,316
885.734314,339
885.851196,322
885.967896,324
886.084717,328
886.201599,313
886.318359,312
886.435181,309
886.552002,303
886.668762,318
886.785645,335
886.902344,314
887.019165,315
887.135925,311
887.252747,311
887.369446,325
887.486267,302
887.603027,316
887.719788,322
887.836548,314
887.953247,311
888.070068,324
888.186829,308
888.303528,331
888.420288,321
888.536987,318
888.653687,312
888.770447,334
888.887146,302
889.003967,325
889.120667,319
889.237305,319
889.354065,317
889.470703,316
889.587463,328
889.704163,323
889.820862,315
889.937561,309
890.054199,308
890.170837,321
890.287598,302
890.404236,312
890.520874,318
890.637634,310
890.754211,316
890.87085,310
890.987549,306
891.104187,317
891.220886,321
891.337463,328
891.454102,320
891.57074,322
891.687378,312
891.804077,323
891.920654,310
892.037231,323
892.15387,301
892.270447,314
892.387085,313
892.503723,316
892.6203,320
892.736877,313
892.853516,311
892.970032,320
893.08667,318
893.203186,309
893.319763,322
893.43634,323
893.552917,322
893.669556,316
893.786011,315
893.902588,315
894.019165,317
894.135681,316
894.252197,319
894.368835,316
894.485291,327
894.601868,327
894.718384,299
894.8349,318
894.951355,303
895.067932,337
895.184448,314
895.300964,311
895.417419,327
895.533936,322
895.650452,306
895.766907,304
895.883423,311
895.999878,330
896.116333,309
896.232849,309
896.349304,310
896.465759,327
896.582214,327
896.698669,314
896.815125,300
896.931641,324
897.048035,313
897.164551,305
897.280884,304
897.397339,315
897.513794,313
897.630249,324
897.746582,324
897.863098,325
897.979431,322
898.095886,321
898.212341,313
898.328674,319
898.445129,321
898.561462,306
898.677795,307
898.794312,320
898.910645,326
899.026978,322
899.143433,318
899.259766,314
899.37616,310
899.492493,319
899.608765,317
899.725159,321
899.841553,315
899.957947,317
900.07428,310
900.190552,325
900.306946,314
900.423157,326
900.53949,301
900.655884,334
900.772156,313
900.888489,320
901.004822,311
901.121033,317
901.237366,322
901.353699,328
901.46991,316
901.586304,323
901.702515,304
901.818787,325
901.93512,305
902.051331,331
902.167603,321
902.283875,324
902.400085,327
902.516418,329
902.632629,317
902.74884,325
902.865112,305
902.981384,323
903.097595,320
903.213867,317
903.330017,331
903.446289,333
903.5625,320
903.67865,322
903.794922,324
903.911072,313
904.027344,317
904.143494,333
904.259705,318
904.375916,323
904.492065,316
904.608215,332
904.724426,316
904.840576,314
904.956726,330
905.072876,332
905.189087,304
905.305176,331
905.421387,295
905.537537,322
905.653687,304
905.769775,319
905.885925,308
906.002014,312
906.118164,320
906.234314,324
906.350403,294
906.466492,330
906.582642,314
906.69873,328
906.814758,306
906.930908,316
907.046936,323
907.163086,310
907.279175,321
907.395264,317
907.511353,305
907.62738,320
907.743408,322
907.859497,313
907.975525,317
908.091553,318
908.207703,317
908.32373,329
908.439758,305
908.555786,331
908.671814,306
908.787842,313
908.90387,316
909.019775,318
909.135864,309
909.251892,310
909.367859,323
909.483826,316
909.599854,311
909.715881,320
909.831848,324
909.947815,323
910.063782,315
910.179749,315
910.295776,309
910.411743,331
910.527649,313
910.643616,326
910.759583,323
910.875488,325
910.991455,313
911.107361,325
911.223267,324
911.339294,317
911.4552,311
911.571106,325
911.687073,318
911.802979,316
911.918823,316
912.034729,324
912.150635,313
912.266602,326
912.382446,303
912.498352,309
912.614197,308
912.730103,319
912.846008,307
