792.44574,325
792.56488,352
792.68396,405
792.80304,376
792.92218,345
793.041199,315
793.160339,323
793.279419,336
793.398499,342
793.517578,327
793.636658,331
793.755737,332
793.874817,352
793.993896,351
794.112976,331
794.232056,327
794.351074,340
794.470215,322
794.589233,334
794.708313,335
794.827393,349
794.946411,334
795.065552,329
795.18457,334
795.303589,345
795.422668,345
795.541687,331
795.660767,324
795.779846,340
795.898865,342
796.017883,342
796.136963,341
796.255981,345
796.375061,337
796.49408,333
796.613037,320
796.732117,331
796.851135,339
796.970154,325
797.089233,312
797.208191,335
797.327271,323
797.446228,335
797.565186,325
797.684265,325
797.803223,321
797.922241,326
798.04126,329
798.160278,329
798.279297,339
798.398315,324
798.517273,332
798.636292,332
798.75531,326
798.874268,322
798.993286,331
799.112244,330
799.231323,339
799.350281,328
799.469238,332
799.588257,329
799.707153,332
799.826111,323
799.945129,317
800.064087,343
800.183044,329
800.302063,333
800.421021,344
800.539978,323
800.658936,342
800.777893,329
800.896912,331
801.015747,329
801.134705,326
801.253723,328
801.37262,326
801.491638,324
801.610535,344
801.729492,332
801.84845,336
801.967407,329
802.086243,345
802.205261,332
802.324158,333
802.443115,328
802.562073,320
802.680969,333
802.799927,330
802.918762,336
803.037659,330
803.156677,342
803.275574,332
803.39447,326
803.513428,330
803.632263,335
803.751221,321
803.870117,344
803.989014,331
804.107971,337
804.226746,338
804.345642,329
804.4646,324
804.583496,323
804.702393,336
804.821228,342
804.940125,334
805.059021,321
805.177917,339
805.296814,324
805.415649,325
805.534546,333
805.653442,337
805.772278,345
805.891113,329
806.01001,323
806.128906,321
806.247742,339
806.366577,342
806.485413,337
806.604309,330
806.723145,326
806.84198,340
806.960876,331
807.079712,326
807.198486,334
807.317383,331
807.436218,347
807.554993,331
807.673889,339
807.792725,340
807.91156,336
808.030396,347
808.14917,342
808.268005,327
808.386841,341
808.505676,330
808.624451,331
808.743286,336
808.862122,325
808.980896,318
809.099731,342
809.218506,341
809.337341,342
809.456116,339
809.57489,333
809.693726,337
809.8125,331
809.931274,317
810.050049,338
810.168884,334
810.287659,338
810.406372,332
810.525269,331
810.643982,336
810.762756,339
810.881531,337
811.000305,331
811.11908,337
811.237854,330
811.356567,324
811.475403,348
811.594116,328
811.71283,338
811.831604,328
811.950378,326
812.069153,339
812.187927,334
812.30658,341
812.425415,334
812.544128,351
812.662781,338
812.781616,342
812.900269,333
813.019043,338
813.137756,348
813.256531,337
813.375244,340
813.493896,321
813.612671,341
813.731384,325
813.850037,338
813.96875,351
814.087524,337
814.206238,337
814.324951,328
814.443604,331
814.562256,344
814.68103,333
814.799683,340
814.918335,331
815.037109,332
815.155762,334
815.274475,339
815.393188,336
815.511841,340
815.630554,320
815.749146,325
815.867859,332
815.986572,326
816.105164,325
816.223877,337
816.342529,335
816.461182,333
816.579895,326
816.698486,339
816.817139,336
816.935791,334
817.054504,317
817.173096,323
817.291748,334
817.4104,335
817.529053,327
817.647644,355
817.766235,319
817.884949,337
818.00354,330
818.122192,342
818.240845,332
818.359436,333
818.478088,329
818.59668,323
818.715271,333
818.833923,328
818.952515,314
819.071106,321
819.189758,321
819.30835,327
819.426941,313
819.545532,321
819.664124,309
819.782715,328
819.901306,333
820.019897,321
820.138489,332
820.25708,333
820.375671,327
820.494202,305
820.612732,317
820.731384,328
820.849915,326
820.968506,328
821.087097,327
821.205627,325
821.324158,312
821.442749,311
821.561279,316
821.679871,329
821.798401,323
821.916931,311
822.035461,319
822.154053,319
822.272583,324
822.391174,319
822.509583,309
822.628174,316
822.746704,322
822.865234,327
822.983765,305
823.102295,329
823.220825,325
823.339294,319
823.457825,316
823.576355,324
823.694824,311
823.813354,327
823.931885,321
824.050354,312
824.168884,312
824.287354,312
824.405823,322
824.524353,340
824.642822,317
824.761353,321
824.879822,309
824.998291,325
825.116699,311
825.235291,328
825.353699,324
825.472168,321
825.590637,310
825.709106,331
825.827576,321
825.946045,330
826.064453,321
826.182983,316
826.301392,315
826.4198,322
826.53833,326
826.656738,320
826.775208,310
826.893677,323
827.012024,328
827.130493,325
827.248962,317
827.36731,320
827.485779,314
827.604248,327
827.722595,315
827.841064,307
827.959412,321
828.077942,325
828.196289,318
828.314636,321
828.433105,319
828.551514,324
828.669861,326
828.78833,328
828.906677,325
829.025085,321
829.143433,320
829.261841,318
829.38031,329
829.498657,316
829.617004,329
829.735413,322
829.85376,321
829.972107,335
830.090515,318
830.208862,337
830.327209,312
830.445557,323
830.563904,318
830.682312,309
830.800659,309
830.919006,312
831.037354,319
831.155701,315
831.274048,330
831.392395,299
831.51062,316
831.629028,323
831.747314,318
831.865662,318
831.984009,309
832.102356,309
832.220642,328
832.338928,317
832.457275,311
832.575623,320
832.693909,299
832.812134,318
832.930481,324
833.048828,319
833.167114,317
833.2854,317
833.403687,327
833.521973,315
833.640259,319
833.758545,306
833.876831,316
833.995056,325
834.113281,310
834.231628,326
834.349915,309
834.468201,325
834.586426,302
834.704651,325
834.822998,317
834.941162,316
835.059448,311
835.177673,317
835.295959,312
835.414246,315
835.53241,302
835.650635,311
835.768921,319
835.887146,324
836.005371,320
836.123596,323
836.241821,325
836.360046,319
836.478271,318
836.596497,309
836.714722,318
836.832886,325
836.95105,320
837.069336,319
837.1875,330
837.305725,310
837.423889,312
837.542053,314
837.660339,315
837.778503,322
837.896667,316
838.014832,334
838.132996,306
838.25116,325
838.369385,323
838.487488,324
838.605713,318
838.723877,326
838.84198,308
838.960205,321
839.078308,305
839.196472,316
839.314636,320
839.4328,322
839.550964,316
839.669067,325
839.787231,313
839.905396,331
840.023499,300
840.141602,327
840.259766,322
840.377869,323
840.495972,308
840.614136,332
840.732239,309
840.850342,332
840.968445,323
841.086548,321
841.204651,314
841.322754,322
841.440918,316
841.55896,326
841.677002,315
841.795166,325
841.913208,326
842.031311,320
842.149353,313
842.267456,317
842.385498,314
842.503601,332
842.621643,314
842.739746,332
842.857788,320
842.97583,318
843.093933,311
843.211975,329
843.330017,314
843.44812,318
843.566101,321
843.684204,317
843.802246,321
843.920227,331
844.038269,325
844.156311,312
844.274292,310
844.392395,316
844.510376,319
844.628357,320
844.74646,325
844.864441,326
844.982422,318
845.100403,310
845.218384,317
845.336426,316
845.454468,320
845.572449,328
845.69043,318
845.808411,322
845.926453,317
846.044373,317
846.162354,326
846.280396,323
846.398315,299
846.516296,333
846.634216,316
846.752197,308
846.870178,321
846.988098,312
847.106079,335
847.22406,313
847.34198,321
847.4599,321
847.577881,301
847.695801,305
847.813782,321
847.931641,319
848.049561,315
848.167603,324
848.285461,307
848.403381,339
848.521362,325
848.639221,309
848.75708,316
848.875,322
848.99292,324
849.110901,319
849.22876,313
849.34668,314
849.464539,321
849.582458,311
849.700317,298
849.818176,314
849.936096,321
850.053955,322
850.171875,312
850.289673,325
850.407593,307
850.525452,325
850.643311,312
850.761169,323
850.878967,316
850.996887,327
851.114746,304
851.232544,324
851.350403,305
851.468262,322
851.58606,322
851.703979,316
851.821777,307
851.939636,319
852.057434,313
852.175232,320
852.293091,309
852.410889,333
852.528687,317
852.646545,322
852.764343,312
852.88208,313
852.999939,318
853.117676,318
853.235535,311
853.353271,314
853.471069,311
853.588928,337
853.706604,314
853.824402,316
853.9422,326
854.059998,311
854.177734,317
854.295532,309
854.413269,305
854.531006,324
854.648804,318
854.766541,305
854.884277,313
855.002014,324
855.119751,320
855.237549,322
855.355225,320
855.473022,327
855.590698,307
855.708435,326
855.826172,322
855.943848,315
856.061646,316
856.179321,324
856.296997,317
856.414795,306
856.53241,328
856.650085,320
856.767822,308
856.885559,314
857.003174,308
857.120911,325
857.238586,325
857.356201,310
857.473938,310
857.591614,323
857.709351,316
857.826965,318
857.944641,309
858.062317,328
858.179993,322
858.297668,321
858.415283,331
858.532959,321
858.650574,310
858.768188,322
858.885803,305
859.003479,324
859.121094,313
859.23877,327
859.356384,327
859.473999,337
859.591675,300
859.709229,312
859.826843,311
859.944458,310
860.062012,308
860.179626,319
860.297302,320
860.414856,329
860.532471,316
860.650024,320
860.767639,320
860.885193,314
861.002808,312
861.120361,310
861.237976,300
861.35553,315
861.473022,314
861.590698,322
861.708191,309
861.825745,321
861.943298,316
862.060852,313
862.178406,321
862.295959,305
862.413513,325
862.531006,314
862.64856,309
862.766113,326
862.883667,309
863.00116,324
863.118713,314
863.236206,323
863.353699,305
863.471252,334
863.588745,316
863.706177,323
863.82373,317
863.941162,315
864.058716,319
864.176208,322
864.29364,314
864.411194,321
864.528687,319
864.646118,309
864.763611,316
864.881042,304
864.998535,313
865.116028,323
865.233459,324
865.350891,309
865.468384,313
865.585754,324
865.703308,320
865.820679,318
865.938171,321
866.055542,321
866.173035,312
866.290466,326
866.407837,308
866.52533,320
866.6427,314
866.760071,317
866.877563,316
866.994934,306
867.112305,321
867.229736,327
867.347107,325
867.464539,320
867.58197,315
867.699341,322
867.81665,313
867.934082,313
868.051453,326
868.168823,317
868.286194,322
868.403564,321
868.520935,325
868.638306,318
868.755676,312
868.872986,329
868.990295,302
869.107727,307
869.225037,323
869.342346,321
869.459717,317
869.577026,322
869.694336,320
869.811707,326
869.929016,311
870.046326,316
870.163635,318
870.280945,319
870.398254,333
870.515564,313
870.632812,308
870.750183,307
870.867432,309
870.984741,329
871.102051,318
871.219299,318
871.336609,314
871.453918,310
871.571106,314
871.688416,306
871.805664,314
871.922852,311
872.040222,308
872.157471,321
872.274719,309
872.391968,320
872.509155,318
872.626465,334
872.743652,313
872.860962,325
872.978149,315
873.095337,312
873.212646,313
873.329834,310
873.44696,307
873.564209,333
873.681396,317
873.798645,314
873.915894,318
874.03302,317
874.150208,320
874.267456,324
874.384583,308
874.501831,322
874.618958,305
874.736145,326
874.853333,304
874.970459,308
875.087646,317
875.204834,319
875.32196,316
875.439148,317
875.556274,314
875.673401,322
875.790527,305
875.907715,326
876.024841,316
876.141968,312
876.259094,312
876.376282,333
876.493347,305
876.610474,322
876.7276,326
876.844727,317
876.961853,303
877.078918,318
877.195984,315
877.313171,316
877.430237,310
877.547302,318
877.664368,326
877.781433,305
877.898499,299
878.015625,321
878.13269,309
878.249695,319
878.366821,313
878.483887,330
878.600952,316
878.717957,325
878.834961,311
878.952087,322
879.069092,314
879.186157,325
879.303162,318
879.420227,321
879.537231,317
879.654236,312
879.77124,318
879.888306,320
880.005249,328
880.122314,327
880.239319,311
880.356323,312
880.473328,311
880.590271,323
880.707275,326
880.824341,321
880.941284,309
881.058228,324
881.175232,297
881.292236,323
881.40918,301
881.526123,321
881.643066,319
881.760071,323
881.877014,321
881.993958,314
882.11084,316
882.227783,316
882.344727,316
882.46167,320
882.578613,320
882.695618,319
882.812439,305
882.929382,319
883.046326,315
883.163208,313
883.280151,306
883.397034,316
883.513916,308
883.630798,325
883.747742,303
883.864563,313
883.981506,322
884.098389,306
884.21521,313
884.332153,320
884.448975,303
884.565796,313
884.682678,308
884.7995,313
884.916443,326
885.033264,328
885.150085,300
885.266968,328
885.383789,307
885.500671,319
885.617493,303
885.734314,317
885.851196,320
885.967896,324
886.084717,322
886.201599,322
886.318359,319
886.435181,316
886.552002,313
886.668762,313
886.785645,313
886.902344,313
887.019165,313
887.135925,313
887.252747,317
887.369446,326
887.486267,315
887.603027,323
887.719788,307
887.836548,320
887.953247,302
888.070068,325
888.186829,314
888.303528,317
888.420288,296
888.536987,316
888.653687,306
888.770447,313
888.887146,319
889.003967,308
889.120667,328
889.237305,323
889.354065,330
889.470703,312
889.587463,313
889.704163,327
889.820862,315
889.937561,314
890.054199,307
890.170837,326
890.287598,311
890.404236,311
890.520874,311
890.637634,312
890.754211,307
890.87085,331
890.987549,321
891.104187,319
891.220886,314
891.337463,317
891.454102,321
891.57074,310
891.687378,315
891.804077,321
891.920654,321
892.037231,320
892.15387,313
892.270447,326
892.387085,306
892.503723,316
892.6203,317
892.736877,318
892.853516,310
892.970032,313
893.08667,322
893.203186,327
893.319763,323
893.43634,312
893.552917,308
893.669556,319
893.786011,311
893.902588,329
894.019165,316
894.135681,326
894.252197,312
894.368835,315
894.485291,319
894.601868,323
894.718384,320
894.8349,328
894.951355,317
895.067932,339
895.184448,316
895.300964,331
895.417419,313
895.533936,312
895.650452,314
895.766907,326
895.883423,316
895.999878,315
896.116333,311
896.232849,325
896.349304,320
896.465759,310
896.582214,301
896.698669,305
896.815125,307
896.931641,321
897.048035,318
897.164551,326
897.280884,319
897.397339,316
897.513794,294
897.630249,326
897.746582,312
897.863098,322
897.979431,315
898.095886,316
898.212341,311
898.328674,325
898.445129,311
898.561462,317
898.677795,311
898.794312,313
898.910645,325
899.026978,325
899.143433,316
899.259766,323
899.37616,305
899.492493,328
899.608765,307
899.725159,318
899.841553,323
899.957947,319
900.07428,309
900.190552,323
900.306946,309
900.423157,326
900.53949,302
900.655884,325
900.772156,330
900.888489,321
901.004822,312
901.121033,319
901.237366,316
901.353699,325
901.46991,310
901.586304,321
901.702515,309
901.818787,321
901.93512,327
902.051331,310
902.167603,323
902.283875,314
902.400085,303
902.516418,328
902.632629,322
902.74884,318
902.865112,319
902.981384,316
903.097595,308
903.213867,312
903.330017,319
903.446289,328
903.5625,323
903.67865,323
903.794922,324
903.911072,329
904.027344,316
904.143494,322
904.259705,323
904.375916,321
904.492065,312
904.608215,312
904.724426,310
904.840576,315
904.956726,322
905.072876,320
905.189087,309
905.305176,318
905.421387,327
905.537537,322
905.653687,301
905.769775,327
905.885925,316
906.002014,315
906.118164,320
906.234314,320
906.350403,311
906.466492,311
906.582642,325
906.69873,307
906.814758,318
906.930908,322
907.046936,313
907.163086,326
907.279175,306
907.395264,321
907.511353,305
907.62738,312
907.743408,322
907.859497,317
907.975525,321
908.091553,316
908.207703,329
908.32373,308
908.439758,308
908.555786,330
908.671814,305
908.787842,311
908.90387,312
909.019775,320
909.135864,328
909.251892,322
909.367859,318
909.483826,309
909.599854,316
909.715881,314
909.831848,299
909.947815,315
910.063782,325
910.179749,314
910.295776,316
910.411743,324
910.527649,319
910.643616,323
910.759583,305
910.875488,335
910.991455,314
911.107361,326
911.223267,321
911.339294,325
911.4552,315
911.571106,328
911.687073,311
911.802979,328
911.918823,314
912.034729,322
912.150635,314
912.266602,318
912.382446,322
912.498352,319
912.614197,316
912.730103,322
912.846008,321
792.44574,307
792.56488,365
792.68396,410
792.80304,367
792.92218,327
793.041199,317
793.160339,319
793.279419,339
793.398499,339
793.517578,327
793.636658,327
793.755737,330
793.874817,349
793.993896,334
794.112976,335
794.232056,333
794.351074,320
794.470215,331
794.589233,331
794.708313,324
794.827393,326
794.946411,346
795.065552,341
795.18457,333
795.303589,342
795.422668,316
795.541687,340
795.660767,329
795.779846,328
795.898865,327
796.017883,326
796.136963,326
796.255981,341
796.375061,348
796.49408,330
796.613037,330
796.732117,328
796.851135,312
796.970154,324
797.089233,328
797.208191,335
797.327271,330
797.446228,324
797.565186,330
797.684265,339
797.803223,337
797.922241,330
798.04126,327
798.160278,326
798.279297,343
798.398315,329
798.517273,331
798.636292,324
798.75531,342
798.874268,339
798.993286,329
799.112244,336
799.231323,334
799.350281,338
799.469238,338
799.588257,337
799.707153,318
799.826111,331
799.945129,333
800.064087,316
800.183044,337
800.302063,326
800.421021,333
800.539978,324
800.658936,324
800.777893,347
800.896912,338
801.015747,330
801.134705,316
801.253723,338
801.37262,325
801.491638,337
801.610535,321
801.729492,326
801.84845,324
801.967407,325
802.086243,328
802.205261,333
802.324158,336
802.443115,332
802.562073,330
802.680969,317
802.799927,320
802.918762,328
803.037659,326
803.156677,336
803.275574,328
803.39447,325
803.513428,331
803.632263,323
803.751221,340
803.870117,317
803.989014,334
804.107971,330
804.226746,325
804.345642,335
804.4646,331
804.583496,342
804.702393,336
804.821228,347
804.940125,326
805.059021,332
805.177917,333
805.296814,329
805.415649,327
805.534546,339
805.653442,326
805.772278,325
805.891113,323
806.01001,330
806.128906,321
806.247742,320
806.366577,329
806.485413,325
806.604309,333
806.723145,323
806.84198,333
806.960876,341
807.079712,323
807.198486,331
807.317383,344
807.436218,334
807.554993,336
807.673889,330
807.792725,331
807.91156,330
808.030396,325
808.14917,337
808.268005,326
808.386841,335
808.505676,336
808.624451,331
808.743286,329
808.862122,330
808.980896,336
809.099731,338
809.218506,329
809.337341,335
809.456116,331
809.57489,325
809.693726,321
809.8125,317
809.931274,322
810.050049,360
810.168884,337
810.287659,335
810.406372,333
810.525269,319
810.643982,336
810.762756,327
810.881531,329
811.000305,322
811.11908,339
811.237854,321
811.356567,330
811.475403,349
811.594116,328
811.71283,338
811.831604,330
811.950378,317
812.069153,325
812.187927,349
812.30658,339
812.425415,322
812.544128,343
812.662781,338
812.781616,329
812.900269,333
813.019043,336
813.137756,332
813.256531,335
813.375244,331
813.493896,321
813.612671,332
813.731384,338
813.850037,340
813.96875,332
814.087524,345
814.206238,328
814.324951,349
814.443604,328
814.562256,334
814.68103,322
814.799683,339
814.918335,327
815.037109,339
815.155762,337
815.274475,338
815.393188,333
815.511841,350
815.630554,321
815.749146,338
815.867859,328
815.986572,339
816.105164,325
816.223877,341
816.342529,333
816.461182,318
816.579895,339
816.698486,340
816.817139,333
816.935791,341
817.054504,341
817.173096,335
817.291748,352
817.4104,338
817.529053,315
817.647644,333
817.766235,329
817.884949,330
818.00354,315
818.122192,333
818.240845,336
818.359436,325
818.478088,331
818.59668,322
818.715271,328
818.833923,321
818.952515,316
819.071106,321
819.189758,329
819.30835,334
819.426941,324
819.545532,310
819.664124,330
819.782715,319
819.901306,328
820.019897,329
820.138489,321
820.25708,334
820.375671,307
820.494202,325
820.612732,321
820.731384,317
820.849915,327
820.968506,321
821.087097,323
821.205627,329
821.324158,308
821.442749,322
821.561279,312
821.679871,322
821.798401,319
821.916931,326
822.035461,305
822.154053,319
822.272583,325
822.391174,328
822.509583,317
822.628174,324
822.746704,323
822.865234,327
822.983765,317
823.102295,318
823.220825,315
823.339294,323
823.457825,329
823.576355,321
823.694824,334
823.813354,326
823.931885,320
824.050354,318
824.168884,322
824.287354,328
824.405823,306
824.524353,328
824.642822,320
824.761353,312
824.879822,324
824.998291,327
825.116699,324
825.235291,316
825.353699,320
825.472168,321
825.590637,298
825.709106,320
825.827576,317
825.946045,318
826.064453,323
826.182983,312
826.301392,318
826.4198,319
826.53833,311
826.656738,307
826.775208,319
826.893677,312
827.012024,319
827.130493,327
827.248962,314
827.36731,310
827.485779,323
827.604248,321
827.722595,309
827.841064,313
827.959412,324
828.077942,314
828.196289,326
828.314636,317
828.433105,317
828.551514,313
828.669861,317
828.78833,322
828.906677,305
829.025085,317
829.143433,313
829.261841,328
829.38031,310
829.498657,320
829.617004,305
829.735413,325
829.85376,304
829.972107,327
830.090515,316
830.208862,312
830.327209,309
830.445557,320
830.563904,313
830.682312,310
830.800659,317
830.919006,312
831.037354,312
831.155701,325
831.274048,295
831.392395,314
831.51062,306
831.629028,308
831.747314,322
831.865662,328
831.984009,316
832.102356,320
832.220642,325
832.338928,326
832.457275,307
832.575623,325
832.693909,316
832.812134,308
832.930481,309
833.048828,321
833.167114,311
833.2854,315
833.403687,315
833.521973,316
833.640259,311
833.758545,313
833.876831,311
833.995056,319
834.113281,316
834.231628,319
834.349915,321
834.468201,315
834.586426,314
834.704651,321
834.822998,316
834.941162,323
835.059448,326
835.177673,304
835.295959,316
835.414246,317
835.53241,309
835.650635,315
835.768921,315
835.887146,321
836.005371,314
836.123596,311
836.241821,321
836.360046,331
836.478271,316
836.596497,315
836.714722,319
836.832886,332
836.95105,309
837.069336,317
837.1875,319
837.305725,311
837.423889,317
837.542053,310
837.660339,316
837.778503,322
837.896667,311
838.014832,321
838.132996,317
838.25116,316
838.369385,329
838.487488,326
838.605713,322
838.723877,317
838.84198,325
838.960205,321
839.078308,308
839.196472,314
839.314636,329
839.4328,315
839.550964,311
839.669067,320
839.787231,295
839.905396,312
840.023499,326
840.141602,325
840.259766,317
840.377869,317
840.495972,298
840.614136,310
840.732239,314
840.850342,313
840.968445,321
841.086548,323
841.204651,307
841.322754,321
841.440918,319
841.55896,319
841.677002,313
841.795166,317
841.913208,325
842.031311,333
842.149353,319
842.267456,319
842.385498,320
842.503601,309
842.621643,309
842.739746,323
842.857788,306
842.97583,324
843.093933,307
843.211975,307
843.330017,318
843.44812,308
843.566101,324
843.684204,322
843.802246,312
843.920227,305
844.038269,312
844.156311,310
844.274292,323
844.392395,317
844.510376,313
844.628357,300
844.74646,322
844.864441,316
844.982422,302
845.100403,318
845.218384,306
845.336426,316
845.454468,315
845.572449,323
845.69043,314
845.808411,335
845.926453,323
846.044373,306
846.162354,320
846.280396,328
846.398315,307
846.516296,326
846.634216,300
846.752197,308
846.870178,313
846.988098,324
847.106079,305
847.22406,335
847.34198,311
847.4599,322
847.577881,313
847.695801,313
847.813782,310
847.931641,318
848.049561,322
848.167603,303
848.285461,318
848.403381,314
848.521362,315
848.639221,325
848.75708,324
848.875,325
848.99292,321
849.110901,330
849.22876,309
849.34668,319
849.464539,326
849.582458,313
849.700317,324
849.818176,326
849.936096,310
850.053955,311
850.171875,318
850.289673,321
850.407593,304
850.525452,323
850.643311,328
850.761169,302
850.878967,316
850.996887,325
851.114746,308
851.232544,324
851.350403,316
851.468262,311
851.58606,313
851.703979,324
851.821777,323
851.939636,330
852.057434,308
852.175232,309
852.293091,316
852.410889,327
852.528687,314
852.646545,321
852.764343,307
852.88208,322
852.999939,310
853.117676,307
853.235535,315
853.353271,325
853.471069,315
853.588928,326
853.706604,315
853.824402,313
853.9422,318
854.059998,306
854.177734,311
854.295532,316
854.413269,303
854.531006,317
854.648804,315
854.766541,326
854.884277,318
855.002014,318
855.119751,311
855.237549,327
855.355225,311
855.473022,312
855.590698,313
855.708435,330
855.826172,318
855.943848,321
856.061646,320
856.179321,306
856.296997,326
856.414795,315
856.53241,317
856.650085,310
856.767822,303
856.885559,322
857.003174,329
857.120911,331
857.238586,300
857.356201,314
857.473938,304
857.591614,331
857.709351,311
857.826965,326
857.944641,313
858.062317,323
858.179993,312
858.297668,322
858.415283,313
858.532959,306
858.650574,309
858.768188,326
858.885803,330
859.003479,314
859.121094,304
859.23877,313
859.356384,307
859.473999,315
859.591675,316
859.709229,317
859.826843,325
859.944458,330
860.062012,322
860.179626,310
860.297302,317
860.414856,338
860.532471,311
860.650024,313
860.767639,314
860.885193,321
861.002808,326
861.120361,320
861.237976,324
861.35553,319
861.473022,317
861.590698,318
861.708191,316
861.825745,324
861.943298,302
862.060852,323
862.178406,305
862.295959,326
862.413513,317
862.531006,323
862.64856,312
862.766113,326
862.883667,320
863.00116,315
863.118713,319
863.236206,318
863.353699,313
863.471252,315
863.588745,310
863.706177,320
863.82373,300
863.941162,325
864.058716,314
864.176208,309
864.29364,321
864.411194,315
864.528687,319
864.646118,315
864.763611,318
864.881042,317
864.998535,317
865.116028,321
865.233459,318
865.350891,319
865.468384,322
865.585754,326
865.703308,301
865.820679,317
865.938171,311
866.055542,335
866.173035,310
866.290466,329
866.407837,312
866.52533,323
866.6427,305
866.760071,331
866.877563,320
866.994934,309
867.112305,310
867.229736,319
867.347107,290
867.464539,310
867.58197,308
867.699341,309
867.81665,311
867.934082,314
868.051453,315
868.168823,318
868.286194,323
868.403564,317
868.520935,322
868.638306,321
868.755676,313
868.872986,316
868.990295,328
869.107727,325
869.225037,314
869.342346,320
869.459717,312
869.577026,323
869.694336,308
869.811707,325
869.929016,308
870.046326,313
870.163635,307
870.280945,298
870.398254,311
870.515564,321
870.632812,320
870.750183,307
870.867432,302
870.984741,327
871.102051,308
871.219299,322
871.336609,327
871.453918,309
871.571106,319
871.688416,319
871.805664,312
871.922852,322
872.040222,313
872.157471,322
872.274719,320
872.391968,315
872.509155,315
872.626465,320
872.743652,305
872.860962,318
872.978149,315
873.095337,318
873.212646,304
873.329834,325
873.44696,310
873.564209,314
873.681396,329
873.798645,314
873.915894,317
874.03302,314
874.150208,317
874.267456,308
874.384583,323
874.501831,318
874.618958,303
874.736145,315
874.853333,319
874.970459,303
875.087646,320
875.204834,314
875.32196,315
875.439148,317
875.556274,313
875.673401,335
875.790527,322
875.907715,319
876.024841,311
876.141968,326
876.259094,322
876.376282,318
876.493347,318
876.610474,320
876.7276,316
876.844727,312
876.961853,326
877.078918,315
877.195984,323
877.313171,307
877.430237,324
877.547302,318
877.664368,323
877.781433,324
877.898499,323
878.015625,322
878.13269,307
878.249695,314
878.366821,313
878.483887,325
878.600952,322
878.717957,332
878.834961,308
878.952087,314
879.069092,312
879.186157,318
879.303162,301
879.420227,322
879.537231,313
879.654236,326
879.77124,316
879.888306,312
880.005249,317
880.122314,321
880.239319,308
880.356323,319
880.473328,306
880.590271,319
880.707275,325
880.824341,317
880.941284,318
881.058228,317
881.175232,312
881.292236,317
881.40918,313
881.526123,329
881.643066,332
881.760071,317
881.877014,306
881.993958,312
882.11084,310
882.227783,302
882.344727,312
882.46167,309
882.578613,321
882.695618,308
882.812439,315
882.929382,321
883.046326,310
883.163208,316
883.280151,311
883.397034,322
883.513916,326
883.630798,308
883.747742,317
883.864563,307
883.981506,309
884.098389,308
884.21521,310
884.332153,309
884.448975,314
884.565796,314
884.682678,328
884.7995,304
884.916443,310
885.033264,322
885.150085,303
885.266968,318
885.383789,318
885.500671,324
885.617493,304
885.734314,317
885.851196,315
885.967896,327
886.084717,300
886.201599,305
886.318359,322
886.435181,326
886.552002,318
886.668762,314
886.785645,302
886.902344,316
887.019165,323
887.135925,313
887.252747,324
887.369446,327
887.486267,317
887.603027,315
887.719788,311
887.836548,333
887.953247,321
888.070068,313
888.186829,316
888.303528,321
888.420288,325
888.536987,323
888.653687,305
888.770447,314
888.887146,318
889.003967,322
889.120667,301
889.237305,310
889.354065,316
889.470703,311
889.587463,307
889.704163,320
889.820862,312
889.937561,320
890.054199,315
890.170837,318
890.287598,321
890.404236,320
890.520874,326
890.637634,315
890.754211,317
890.87085,323
890.987549,321
891.104187,322
891.220886,304
891.337463,312
891.454102,306
891.57074,325
891.687378,316
891.804077,306
891.920654,321
892.037231,326
892.15387,315
892.270447,326
892.387085,304
892.503723,327
892.6203,319
892.736877,323
892.853516,305
892.970032,318
893.08667,315
893.203186,323
893.319763,310
893.43634,313
893.552917,310
893.669556,325
893.786011,320
893.902588,314
894.019165,322
894.135681,319
894.252197,301
894.368835,318
894.485291,308
894.601868,304
894.718384,316
894.8349,316
894.951355,323
895.067932,309
895.184448,310
895.300964,308
895.417419,316
895.533936,329
895.650452,308
895.766907,312
895.883423,316
895.999878,304
896.116333,323
896.232849,318
896.349304,309
896.465759,318
896.582214,315
896.698669,321
896.815125,314
896.931641,313
897.048035,309
897.164551,315
897.280884,322
897.397339,301
897.513794,316
897.630249,324
897.746582,307
897.863098,334
897.979431,316
898.095886,320
898.212341,319
898.328674,308
898.445129,309
898.561462,303
898.677795,313
898.794312,324
898.910645,311
899.026978,327
899.143433,318
899.259766,330
899.37616,312
899.492493,311
899.608765,319
899.725159,326
899.841553,319
899.957947,317
900.07428,306
900.190552,324
900.306946,317
900.423157,319
900.53949,315
900.655884,307
900.772156,296
900.888489,317
901.004822,321
901.121033,319
901.237366,306
901.353699,318
901.46991,300
901.586304,329
901.702515,317
901.818787,306
901.93512,311
902.051331,320
902.167603,320
902.283875,310
902.400085,307
902.516418,317
902.632629,315
902.74884,323
902.865112,304
902.981384,322
903.097595,313
903.213867,312
903.330017,315
903.446289,310
903.5625,314
903.67865,306
903.794922,296
903.911072,319
904.027344,323
904.143494,312
904.259705,312
904.375916,319
904.492065,311
904.608215,323
904.724426,316
904.840576,334
904.956726,325
905.072876,313
905.189087,310
905.305176,329
905.421387,322
905.537537,320
905.653687,318
905.769775,312
905.885925,306
906.002014,310
906.118164,311
906.234314,325
906.350403,303
906.466492,322
906.582642,314
906.69873,312
906.814758,322
906.930908,319
907.046936,330
907.163086,313
907.279175,318
907.395264,323
907.511353,313
907.62738,312
907.743408,329
907.859497,323
907.975525,315
908.091553,319
908.207703,308
908.32373,307
908.439758,314
908.555786,315
908.671814,315
908.787842,320
908.90387,304
909.019775,320
909.135864,315
909.251892,332
909.367859,324
909.483826,337
909.599854,315
909.715881,321
909.831848,306
909.947815,321
910.063782,320
910.179749,323
910.295776,313
910.411743,329
910.527649,315
910.643616,319
910.759583,313
910.875488,324
910.991455,313
911.107361,324
911.223267,324
911.339294,319
911.4552,310
911.571106,308
911.687073,321
911.802979,298
911.918823,321
912.034729,323
912.150635,307
912.266602,325
912.382446,318
912.498352,318
912.614197,303
912.730103,310
912.846008,305
792.44574,316
792.56488,346
792.68396,405
792.80304,375
792.92218,356
793.041199,321
793.160339,328
793.279419,338
793.398499,321
793.517578,325
793.636658,324
793.755737,341
793.874817,360
793.993896,334
794.112976,346
794.232056,328
794.351074,316
794.470215,328
794.589233,336
794.708313,327
794.827393,326
794.946411,327
795.065552,337
795.18457,331
795.303589,340
795.422668,350
795.541687,326
795.660767,342
795.779846,325
795.898865,325
796.017883,339
796.136963,322
796.255981,334
796.375061,341
796.49408,340
796.613037,345
796.732117,328
796.851135,324
796.970154,332
797.089233,338
797.208191,333
797.327271,328
797.446228,319
797.565186,330
797.684265,339
797.803223,325
797.922241,341
798.04126,330
798.160278,327
798.279297,330
798.398315,318
798.517273,336
798.636292,322
798.75531,338
798.874268,313
798.993286,339
799.112244,329
799.231323,337
799.350281,334
799.469238,327
799.588257,332
799.707153,315
799.826111,343
799.945129,331
800.064087,318
800.183044,318
800.302063,335
800.421021,319
800.539978,338
800.658936,339
800.777893,349
800.896912,309
801.015747,345
801.134705,318
801.253723,325
801.37262,325
801.491638,329
801.610535,342
801.729492,335
801.84845,320
801.967407,348
802.086243,311
802.205261,338
802.324158,334
802.443115,334
802.562073,329
802.680969,328
802.799927,326
802.918762,317
803.037659,339
803.156677,322
803.275574,320
803.39447,332
803.513428,322
803.632263,335
803.751221,338
803.870117,325
803.989014,334
804.107971,333
804.226746,335
804.345642,339
804.4646,326
804.583496,338
804.702393,316
804.821228,342
804.940125,319
805.059021,320
805.177917,331
805.296814,325
805.415649,316
805.534546,341
805.653442,332
805.772278,339
805.891113,327
806.01001,334
806.128906,330
806.247742,334
806.366577,322
806.485413,326
806.604309,336
806.723145,335
806.84198,322
806.960876,337
807.079712,325
807.198486,335
807.317383,324
807.436218,345
807.554993,334
807.673889,316
807.792725,339
807.91156,334
808.030396,331
808.14917,319
808.268005,338
808.386841,330
808.505676,322
808.624451,331
808.743286,324
808.862122,339
808.980896,340
809.099731,334
809.218506,314
809.337341,337
809.456116,342
809.57489,331
809.693726,330
809.8125,328
809.931274,330
810.050049,333
810.168884,330
810.287659,343
810.406372,329
810.525269,329
810.643982,336
810.762756,354
810.881531,330
811.000305,337
811.11908,329
811.237854,335
811.356567,329
811.475403,334
811.594116,341
811.71283,334
811.831604,327
811.950378,338
812.069153,344
812.187927,326
812.30658,326
812.425415,346
812.544128,334
812.662781,338
812.781616,329
812.900269,328
813.019043,316
813.137756,335
813.256531,328
813.375244,326
813.493896,341
813.612671,345
813.731384,324
813.850037,345
813.96875,325
814.087524,332
814.206238,332
814.324951,333
814.443604,345
814.562256,333
814.68103,325
814.799683,359
814.918335,335
815.037109,333
815.155762,328
815.274475,349
815.393188,340
815.511841,344
815.630554,331
815.749146,341
815.867859,340
815.986572,333
816.105164,330
816.223877,329
816.342529,331
816.461182,339
816.579895,333
816.698486,324
816.817139,324
816.935791,336
817.054504,341
817.173096,326
817.291748,344
817.4104,332
817.529053,331
817.647644,338
817.766235,320
817.884949,342
818.00354,321
818.122192,311
818.240845,320
818.359436,327
818.478088,323
818.59668,337
818.715271,320
818.833923,320
818.952515,322
819.071106,336
819.189758,320
819.30835,313
819.426941,319
819.545532,319
819.664124,321
819.782715,325
819.901306,324
820.019897,325
820.138489,322
820.25708,326
820.375671,321
820.494202,320
820.612732,318
820.731384,320
820.849915,315
820.968506,327
821.087097,312
821.205627,321
821.324158,320
821.442749,337
821.561279,323
821.679871,330
821.798401,333
821.916931,323
822.035461,325
822.154053,309
822.272583,318
822.391174,313
822.509583,312
822.628174,313
822.746704,317
822.865234,314
822.983765,317
823.102295,318
823.220825,329
823.339294,308
823.457825,320
823.576355,318
823.694824,319
823.813354,319
823.931885,320
824.050354,325
824.168884,317
824.287354,324
824.405823,304
824.524353,313
824.642822,303
824.761353,334
824.879822,325
824.998291,319
825.116699,316
825.235291,322
825.353699,313
825.472168,318
825.590637,321
825.709106,322
825.827576,321
825.946045,311
826.064453,321
826.182983,332
826.301392,313
826.4198,322
826.53833,323
826.656738,314
826.775208,316
826.893677,307
827.012024,318
827.130493,326
827.248962,306
827.36731,321
827.485779,319
827.604248,313
827.722595,321
827.841064,310
827.959412,317
828.077942,307
828.196289,324
828.314636,307
828.433105,327
828.551514,320
828.669861,317
828.78833,323
828.906677,314
829.025085,313
829.143433,311
829.261841,311
829.38031,320
829.498657,309
829.617004,311
829.735413,314
829.85376,320
829.972107,310
830.090515,313
830.208862,323
830.327209,332
830.445557,296
830.563904,310
830.682312,321
830.800659,310
830.919006,324
831.037354,309
831.155701,312
831.274048,321
831.392395,291
831.51062,305
831.629028,314
831.747314,315
831.865662,326
831.984009,317
832.102356,317
832.220642,313
832.338928,313
832.457275,323
832.575623,310
832.693909,302
832.812134,315
832.930481,319
833.048828,332
833.167114,315
833.2854,325
833.403687,309
833.521973,310
833.640259,317
833.758545,322
833.876831,315
833.995056,319
834.113281,320
834.231628,325
834.349915,319
834.468201,311
834.586426,329
834.704651,320
834.822998,305
834.941162,312
835.059448,316
835.177673,322
835.295959,306
835.414246,331
835.53241,304
835.650635,326
835.768921,317
835.887146,324
836.005371,320
836.123596,313
836.241821,318
836.360046,327
836.478271,312
836.596497,312
836.714722,324
836.832886,328
836.95105,316
837.069336,304
837.1875,313
837.305725,326
837.423889,320
837.542053,320
837.660339,311
837.778503,324
837.896667,304
838.014832,311
838.132996,316
838.25116,330
838.369385,308
838.487488,320
838.605713,312
838.723877,309
838.84198,329
838.960205,324
839.078308,311
839.196472,312
839.314636,314
839.4328,311
839.550964,325
839.669067,317
839.787231,314
839.905396,329
840.023499,324
840.141602,330
840.259766,324
840.377869,328
840.495972,315
840.614136,311
840.732239,314
840.850342,320
840.968445,314
841.086548,308
841.204651,305
841.322754,315
841.440918,311
841.55896,324
841.677002,314
841.795166,319
841.913208,321
842.031311,310
842.149353,318
842.267456,324
842.385498,300
842.503601,318
842.621643,304
842.739746,321
842.857788,315
842.97583,323
843.093933,307
843.211975,320
843.330017,315
843.44812,328
843.566101,306
843.684204,322
843.802246,310
843.920227,319
844.038269,302
844.156311,313
844.274292,306
844.392395,326
844.510376,327
844.628357,327
844.74646,321
844.864441,327
844.982422,309
845.100403,321
845.218384,314
845.336426,328
845.454468,319
845.572449,324
845.69043,324
845.808411,313
845.926453,310
846.044373,324
846.162354,318
846.280396,318
846.398315,311
846.516296,318
846.634216,324
846.752197,320
846.870178,312
846.988098,317
847.106079,299
847.22406,320
847.34198,308
847.4599,332
847.577881,302
847.695801,312
847.813782,309
847.931641,305
848.049561,313
848.167603,314
848.285461,301
848.403381,332
848.521362,302
848.639221,326
848.75708,323
848.875,322
848.99292,305
849.110901,322
849.22876,310
849.34668,317
849.464539,318
849.582458,323
849.700317,312
849.818176,316
849.936096,319
850.053955,309
850.171875,330
850.289673,310
850.407593,316
850.525452,326
850.643311,319
850.761169,311
850.878967,311
850.996887,316
851.114746,323
851.232544,317
851.350403,313
851.468262,329
851.58606,322
851.703979,331
851.821777,303
851.939636,313
852.057434,321
852.175232,326
852.293091,305
852.410889,305
852.528687,317
852.646545,314
852.764343,319
852.88208,324
852.999939,306
853.117676,323
853.235535,297
853.353271,316
853.471069,308
853.588928,328
853.706604,308
853.824402,310
853.9422,312
854.059998,323
854.177734,305
854.295532,303
854.413269,309
854.531006,319
854.648804,313
854.766541,315
854.884277,328
855.002014,299
855.119751,316
855.237549,325
855.355225,309
855.473022,318
855.590698,311
855.708435,313
855.826172,326
855.943848,315
856.061646,312
856.179321,317
856.296997,315
856.414795,317
856.53241,306
856.650085,317
856.767822,314
856.885559,317
857.003174,319
857.120911,295
857.238586,323
857.356201,319
857.473938,311
857.591614,316
857.709351,306
857.826965,319
857.944641,313
858.062317,331
858.179993,307
858.297668,320
858.415283,306
858.532959,315
858.650574,303
858.768188,316
858.885803,309
859.003479,312
859.121094,317
859.23877,326
859.356384,306
859.473999,317
859.591675,316
859.709229,310
859.826843,306
859.944458,320
860.062012,310
860.179626,325
860.297302,311
860.414856,329
860.532471,324
860.650024,310
860.767639,316
860.885193,313
861.002808,307
861.120361,319
861.237976,307
861.35553,337
861.473022,310
861.590698,307
861.708191,317
861.825745,325
861.943298,307
862.060852,311
862.178406,319
862.295959,308
862.413513,314
862.531006,335
862.64856,308
862.766113,313
862.883667,321
863.00116,310
863.118713,310
863.236206,314
863.353699,303
863.471252,308
863.588745,312
863.706177,304
863.82373,313
863.941162,312
864.058716,314
864.176208,328
864.29364,311
864.411194,319
864.528687,309
864.646118,330
864.763611,307
864.881042,321
864.998535,324
865.116028,320
865.233459,314
865.350891,314
865.468384,311
865.585754,313
865.703308,319
865.820679,316
865.938171,311
866.055542,311
866.173035,309
866.290466,324
866.407837,307
866.52533,305
866.6427,320
866.760071,322
866.877563,306
866.994934,321
867.112305,319
867.229736,316
867.347107,313
867.464539,323
867.58197,321
867.699341,303
867.81665,309
867.934082,302
868.051453,308
868.168823,328
868.286194,316
868.403564,315
868.520935,310
868.638306,322
868.755676,316
868.872986,323
868.990295,320
869.107727,319
869.225037,313
869.342346,315
869.459717,306
869.577026,313
869.694336,310
869.811707,316
869.929016,313
870.046326,314
870.163635,302
870.280945,312
870.398254,316
870.515564,315
870.632812,324
870.750183,324
870.867432,306
870.984741,316
871.102051,312
871.219299,322
871.336609,305
871.453918,324
871.571106,307
871.688416,303
871.805664,324
871.922852,318
872.040222,305
872.157471,321
872.274719,330
872.391968,314
872.509155,317
872.626465,304
872.743652,321
872.860962,311
872.978149,319
873.095337,324
873.212646,312
873.329834,317
873.44696,313
873.564209,318
873.681396,308
873.798645,307
873.915894,323
874.03302,314
874.150208,303
874.267456,319
874.384583,306
874.501831,315
874.618958,305
874.736145,318
874.853333,324
874.970459,299
875.087646,312
875.204834,326
875.32196,314
875.439148,315
875.556274,313
875.673401,316
875.790527,320
875.907715,310
876.024841,323
876.141968,311
876.259094,321
876.376282,306
876.493347,307
876.610474,316
876.7276,321
876.844727,323
876.961853,308
877.078918,322
877.195984,317
877.313171,317
877.430237,298
877.547302,321
877.664368,309
877.781433,333
877.898499,311
878.015625,316
878.13269,324
878.249695,319
878.366821,316
878.483887,305
878.600952,323
878.717957,324
878.834961,319
878.952087,318
879.069092,317
879.186157,323
879.303162,313
879.420227,312
879.537231,307
879.654236,324
879.77124,315
879.888306,313
880.005249,316
880.122314,317
880.239319,307
880.356323,305
880.473328,303
880.590271,312
880.707275,319
880.824341,310
880.941284,316
881.058228,308
881.175232,302
881.292236,318
881.40918,320
881.526123,328
881.643066,303
881.760071,313
881.877014,314
881.993958,309
882.11084,307
882.227783,321
882.344727,301
882.46167,318
882.578613,313
882.695618,319
882.812439,304
882.929382,310
883.046326,325
883.163208,325
883.280151,322
883.397034,309
883.513916,321
883.630798,317
883.747742,306
883.864563,319
883.981506,320
884.098389,312
884.21521,334
884.332153,327
884.448975,313
884.565796,316
884.682678,321
884.7995,326
884.916443,306
885.033264,309
885.150085,316
885.266968,331
885.383789,325
885.500671,311
885.617493,325
885.734314,306
885.851196,303
885.967896,317
886.084717,303
886.201599,320
886.318359,304
886.435181,316
886.552002,319
886.668762,325
886.785645,313
886.902344,311
887.019165,313
887.135925,310
887.252747,319
887.369446,318
887.486267,310
887.603027,314
887.719788,319
887.836548,323
887.953247,309
888.070068,315
888.186829,308
888.303528,319
888.420288,314
888.536987,331
888.653687,319
888.770447,322
888.887146,319
889.003967,315
889.120667,315
889.237305,315
889.354065,310
889.470703,324
889.587463,295
889.704163,317
889.820862,308
889.937561,322
890.054199,318
890.170837,318
890.287598,318
890.404236,327
890.520874,302
890.637634,316
890.754211,310
890.87085,327
890.987549,316
891.104187,308
891.220886,294
891.337463,320
891.454102,327
891.57074,316
891.687378,302
891.804077,313
891.920654,316
892.037231,312
892.15387,310
892.270447,318
892.387085,314
892.503723,323
892.6203,326
892.736877,327
892.853516,315
892.970032,333
893.08667,313
893.203186,318
893.319763,314
893.43634,308
893.552917,307
893.669556,319
893.786011,319
893.902588,308
894.019165,313
894.135681,324
894.252197,310
894.368835,327
894.485291,305
894.601868,315
894.718384,315
894.8349,323
894.951355,316
895.067932,316
895.184448,313
895.300964,312
895.417419,312
895.533936,321
895.650452,320
895.766907,305
895.883423,324
895.999878,334
896.116333,319
896.232849,310
896.349304,295
896.465759,318
896.582214,315
896.698669,324
896.815125,318
896.931641,324
897.048035,311
897.164551,326
897.280884,314
897.397339,331
897.513794,314
897.630249,321
897.746582,304
897.863098,321
897.979431,324
898.095886,316
898.212341,306
898.328674,316
898.445129,302
898.561462,320
898.677795,310
898.794312,327
898.910645,312
899.026978,314
899.143433,315
899.259766,320
899.37616,321
899.492493,308
899.608765,330
899.725159,310
899.841553,314
899.957947,312
900.07428,301
900.190552,324
900.306946,314
900.423157,325
900.53949,313
900.655884,309
900.772156,321
900.888489,319
901.004822,320
901.121033,324
901.237366,317
901.353699,333
901.46991,319
901.586304,314
901.702515,306
901.818787,317
901.93512,311
902.051331,324
902.167603,320
902.283875,320
902.400085,311
902.516418,313
902.632629,316
902.74884,326
902.865112,307
902.981384,317
903.097595,316
903.213867,316
903.330017,311
903.446289,306
903.5625,309
903.67865,323
903.794922,313
903.911072,313
904.027344,316
904.143494,315
904.259705,314
904.375916,327
904.492065,295
904.608215,334
904.724426,310
904.840576,309
904.956726,304
905.072876,311
905.189087,302
905.305176,316
905.421387,308
905.537537,325
905.653687,311
905.769775,313
905.885925,321
906.002014,320
906.118164,309
906.234314,309
906.350403,316
906.466492,309
906.582642,321
906.69873,314
906.814758,311
906.930908,316
907.046936,318
907.163086,319
907.279175,310
907.395264,309
907.511353,311
907.62738,319
907.743408,324
907.859497,317
907.975525,316
908.091553,311
908.207703,324
908.32373,304
908.439758,315
908.555786,319
908.671814,320
908.787842,312
908.90387,324
909.019775,319
909.135864,306
909.251892,326
909.367859,308
909.483826,322
909.599854,328
909.715881,323
909.831848,316
909.947815,322
910.063782,320
910.179749,334
910.295776,316
910.411743,303
910.527649,318
910.643616,326
910.759583,325
910.875488,322
910.991455,320
911.107361,319
911.223267,318
911.339294,319
911.4552,317
911.571106,308
911.687073,302
911.802979,321
911.918823,326
912.034729,311
912.150635,324
912.266602,314
912.382446,312
912.498352,334
912.614197,318
912.730103,320
912.846008,304
