792.44574,324
792.56488,364
792.68396,395
792.80304,400
792.92218,354
793.041199,330
793.160339,336
793.279419,338
793.398499,347
793.517578,345
793.636658,340
793.755737,346
793.874817,357
793.993896,369
794.112976,343
794.232056,343
794.351074,344
794.470215,345
794.589233,348
794.708313,322
794.827393,331
794.946411,331
795.065552,358
795.18457,348
795.303589,337
795.422668,348
795.541687,349
795.660767,330
795.779846,338
795.898865,313
796.017883,336
796.136963,332
796.255981,340
796.375061,333
796.49408,342
796.613037,341
796.732117,339
796.851135,344
796.970154,332
797.089233,325
797.208191,330
797.327271,340
797.446228,331
797.565186,328
797.684265,343
797.803223,345
797.922241,335
798.04126,329
798.160278,338
798.279297,325
798.398315,329
798.517273,331
798.636292,332
798.75531,337
798.874268,346
798.993286,340
799.112244,329
799.231323,326
799.350281,334
799.469238,318
799.588257,350
799.707153,335
799.826111,342
799.945129,349
800.064087,336
800.183044,331
800.302063,322
800.421021,319
800.539978,329
800.658936,337
800.777893,333
800.896912,348
801.015747,334
801.134705,334
801.253723,332
801.37262,328
801.491638,342
801.610535,320
801.729492,339
801.84845,333
801.967407,332
802.086243,320
802.205261,337
802.324158,343
802.443115,342
802.562073,319
802.680969,329
802.799927,330
802.918762,330
803.037659,325
803.156677,330
803.275574,320
803.39447,340
803.513428,329
803.632263,328
803.751221,336
803.870117,328
803.989014,328
804.107971,344
804.226746,326
804.345642,346
804.4646,325
804.583496,318
804.702393,344
804.821228,335
804.940125,329
805.059021,348
805.177917,328
805.296814,332
805.415649,323
805.534546,343
805.653442,328
805.772278,329
805.891113,346
806.01001,330
806.128906,335
806.247742,346
806.366577,326
806.485413,345
806.604309,329
806.723145,335
806.84198,330
806.960876,326
807.079712,330
807.198486,316
807.317383,331
807.436218,335
807.554993,327
807.673889,338
807.792725,327
807.91156,327
808.030396,334
808.14917,323
808.268005,362
808.386841,325
808.505676,348
808.624451,346
808.743286,341
808.862122,329
808.980896,327
809.099731,337
809.218506,351
809.337341,332
809.456116,337
809.57489,322
809.693726,347
809.8125,325
809.931274,344
810.050049,330
810.168884,339
810.287659,329
810.406372,343
810.525269,325
810.643982,339
810.762756,332
810.881531,323
811.000305,326
811.11908,339
811.237854,338
811.356567,342
811.475403,339
811.594116,335
811.71283,327
811.831604,343
811.950378,334
812.069153,342
812.187927,330
812.30658,336
812.425415,337
812.544128,331
812.662781,345
812.781616,337
812.900269,343
813.019043,333
813.137756,343
813.256531,324
813.375244,347
813.493896,333
813.612671,326
813.731384,337
813.850037,338
813.96875,331
814.087524,329
814.206238,327
814.324951,336
814.443604,323
814.562256,339
814.68103,335
814.799683,331
814.918335,332
815.037109,323
815.155762,350
815.274475,337
815.393188,318
815.511841,336
815.630554,316
815.749146,330
815.867859,337
815.986572,313
816.105164,327
816.223877,324
816.342529,339
816.461182,327
816.579895,331
816.698486,339
816.817139,326
816.935791,341
817.054504,324
817.173096,338
817.291748,339
817.4104,330
817.529053,344
817.647644,329
817.766235,342
817.884949,331
818.00354,343
818.122192,317
818.240845,340
818.359436,321
818.478088,329
818.59668,337
818.715271,323
818.833923,329
818.952515,325
819.071106,329
819.189758,317
819.30835,325
819.426941,326
819.545532,323
819.664124,326
819.782715,329
819.901306,310
820.019897,321
820.138489,328
820.25708,324
820.375671,331
820.494202,330
820.612732,323
820.731384,329
820.849915,311
820.968506,337
821.087097,308
821.205627,310
821.324158,314
821.442749,326
821.561279,320
821.679871,329
821.798401,313
821.916931,325
822.035461,330
822.154053,330
822.272583,340
822.391174,325
822.509583,314
822.628174,316
822.746704,315
822.865234,333
822.983765,328
823.102295,324
823.220825,317
823.339294,323
823.457825,318
823.576355,327
823.694824,317
823.813354,321
823.931885,325
824.050354,326
824.168884,323
824.287354,329
824.405823,333
824.524353,323
824.642822,318
824.761353,309
824.879822,332
824.998291,334
825.116699,312
825.235291,327
825.353699,314
825.472168,333
825.590637,333
825.709106,334
825.827576,328
825.946045,312
826.064453,318
826.182983,318
826.301392,311
826.4198,320
826.53833,323
826.656738,321
826.775208,324
826.893677,326
827.012024,319
827.130493,326
827.248962,314
827.36731,315
827.485779,329
827.604248,320
827.722595,319
827.841064,318
827.959412,322
828.077942,337
828.196289,313
828.314636,322
828.433105,319
828.551514,325
828.669861,327
828.78833,326
828.906677,311
829.025085,316
829.143433,319
829.261841,332
829.38031,325
829.498657,315
829.617004,301
829.735413,312
829.85376,318
829.972107,324
830.090515,321
830.208862,312
830.327209,314
830.445557,324
830.563904,309
830.682312,317
830.800659,332
830.919006,306
831.037354,332
831.155701,318
831.274048,320
831.392395,310
831.51062,324
831.629028,328
831.747314,325
831.865662,314
831.984009,316
832.102356,314
832.220642,334
832.338928,308
832.457275,320
832.575623,320
832.693909,318
832.812134,316
832.930481,315
833.048828,303
833.167114,319
833.2854,326
833.403687,322
833.521973,326
833.640259,314
833.758545,327
833.876831,306
833.995056,322
834.113281,329
834.231628,322
834.349915,323
834.468201,323
834.586426,323
834.704651,315
834.822998,312
834.941162,329
835.059448,315
835.177673,324
835.295959,322
835.414246,313
835.53241,314
835.650635,306
835.768921,321
835.887146,329
836.005371,310
836.123596,316
836.241821,338
836.360046,320
836.478271,316
836.596497,320
836.714722,330
836.832886,320
836.95105,317
837.069336,330
837.1875,303
837.305725,319
837.423889,333
837.542053,318
837.660339,334
837.778503,325
837.896667,322
838.014832,322
838.132996,334
838.25116,306
838.369385,317
838.487488,320
838.605713,319
838.723877,325
838.84198,321
838.960205,314
839.078308,326
839.196472,314
839.314636,319
839.4328,318
839.550964,321
839.669067,311
839.787231,321
839.905396,314
840.023499,310
840.141602,324
840.259766,323
840.377869,317
840.495972,339
840.614136,328
840.732239,326
840.850342,319
840.968445,319
841.086548,322
841.204651,319
841.322754,312
841.440918,311
841.55896,312
841.677002,330
841.795166,338
841.913208,332
842.031311,309
842.149353,316
842.267456,339
842.385498,323
842.503601,313
842.621643,318
842.739746,324
842.857788,323
842.97583,326
843.093933,311
843.211975,322
843.330017,309
843.44812,315
843.566101,311
843.684204,315
843.802246,310
843.920227,312
844.038269,306
844.156311,315
844.274292,338
844.392395,317
844.510376,318
844.628357,323
844.74646,315
844.864441,302
844.982422,327
845.100403,323
845.218384,333
845.336426,305
845.454468,323
845.572449,322
845.69043,314
845.808411,333
845.926453,305
846.044373,324
846.162354,305
846.280396,323
846.398315,313
846.516296,325
846.634216,327
846.752197,312
846.870178,313
846.988098,314
847.106079,320
847.22406,323
847.34198,313
847.4599,308
847.577881,317
847.695801,305
847.813782,315
847.931641,326
848.049561,317
848.167603,328
848.285461,319
848.403381,319
848.521362,319
848.639221,314
848.75708,315
848.875,322
848.99292,320
849.110901,311
849.22876,314
849.34668,325
849.464539,319
849.582458,329
849.700317,319
849.818176,315
849.936096,319
850.053955,331
850.171875,325
850.289673,316
850.407593,312
850.525452,315
850.643311,325
850.761169,298
850.878967,310
850.996887,328
851.114746,326
851.232544,310
851.350403,317
851.468262,333
851.58606,323
851.703979,315
851.821777,313
851.939636,324
852.057434,324
852.175232,322
852.293091,323
852.410889,312
852.528687,328
852.646545,316
852.764343,320
852.88208,313
852.999939,319
853.117676,309
853.235535,305
853.353271,314
853.471069,314
853.588928,310
853.706604,318
853.824402,320
853.9422,303
854.059998,316
854.177734,330
854.295532,331
854.413269,327
854.531006,315
854.648804,328
854.766541,307
854.884277,323
855.002014,320
855.119751,328
855.237549,315
855.355225,325
855.473022,328
855.590698,309
855.708435,323
855.826172,335
855.943848,331
856.061646,307
856.179321,323
856.296997,324
856.414795,310
856.53241,327
856.650085,317
856.767822,311
856.885559,311
857.003174,329
857.120911,318
857.238586,305
857.356201,313
857.473938,325
857.591614,325
857.709351,318
857.826965,315
857.944641,311
858.062317,325
858.179993,328
858.297668,325
858.415283,323
858.532959,312
858.650574,323
858.768188,318
858.885803,324
859.003479,309
859.121094,326
859.23877,321
859.356384,316
859.473999,306
859.591675,306
859.709229,319
859.826843,338
859.944458,331
860.062012,325
860.179626,321
860.297302,315
860.414856,321
860.532471,325
860.650024,307
860.767639,301
860.885193,315
861.002808,319
861.120361,318
861.237976,321
861.35553,315
861.473022,326
861.590698,328
861.708191,324
861.825745,318
861.943298,308
862.060852,317
862.178406,309
862.295959,325
862.413513,313
862.531006,309
862.64856,308
862.766113,307
862.883667,316
863.00116,307
863.118713,324
863.236206,318
863.353699,325
863.471252,311
863.588745,315
863.706177,311
863.82373,326
863.941162,307
864.058716,331
864.176208,306
864.29364,316
864.411194,318
864.528687,318
864.646118,319
864.763611,306
864.881042,314
864.998535,315
865.116028,319
865.233459,317
865.350891,315
865.468384,304
865.585754,302
865.703308,331
865.820679,317
865.938171,305
866.055542,312
866.173035,329
866.290466,311
866.407837,311
866.52533,316
866.6427,327
866.760071,313
866.877563,318
866.994934,322
867.112305,329
867.229736,309
867.347107,307
867.464539,313
867.58197,320
867.699341,330
867.81665,327
867.934082,327
868.051453,323
868.168823,315
868.286194,323
868.403564,314
868.520935,313
868.638306,312
868.755676,329
868.872986,311
868.990295,320
869.107727,324
869.225037,316
869.342346,312
869.459717,327
869.577026,314
869.694336,321
869.811707,313
869.929016,321
870.046326,325
870.163635,333
870.280945,310
870.398254,316
870.515564,318
870.632812,312
870.750183,308
870.867432,323
870.984741,323
871.102051,323
871.219299,321
871.336609,320
871.453918,312
871.571106,318
871.688416,309
871.805664,323
871.922852,322
872.040222,315
872.157471,310
872.274719,325
872.391968,319
872.509155,315
872.626465,330
872.743652,322
872.860962,327
872.978149,317
873.095337,318
873.212646,321
873.329834,311
873.44696,312
873.564209,317
873.681396,316
873.798645,321
873.915894,304
874.03302,309
874.150208,325
874.267456,318
874.384583,320
874.501831,316
874.618958,328
874.736145,319
874.853333,317
874.970459,318
875.087646,325
875.204834,311
875.32196,330
875.439148,309
875.556274,308
875.673401,317
875.790527,316
875.907715,325
876.024841,316
876.141968,316
876.259094,317
876.376282,325
876.493347,328
876.610474,333
876.7276,312
876.844727,301
876.961853,325
877.078918,327
877.195984,319
877.313171,311
877.430237,314
877.547302,318
877.664368,320
877.781433,304
877.898499,311
878.015625,301
878.13269,311
878.249695,316
878.366821,315
878.483887,308
878.600952,315
878.717957,324
878.834961,321
878.952087,304
879.069092,327
879.186157,298
879.303162,323
879.420227,314
879.537231,305
879.654236,319
879.77124,324
879.888306,317
880.005249,319
880.122314,313
880.239319,302
880.356323,317
880.473328,321
880.590271,314
880.707275,313
880.824341,306
880.941284,310
881.058228,308
881.175232,319
881.292236,322
881.40918,315
881.526123,314
881.643066,320
881.760071,324
881.877014,316
881.993958,317
882.11084,308
882.227783,310
882.344727,313
882.46167,317
882.578613,313
882.695618,313
882.812439,319
882.929382,325
883.046326,314
883.163208,316
883.280151,308
883.397034,310
883.513916,316
883.630798,315
883.747742,314
883.864563,314
883.981506,331
884.098389,320
884.21521,324
884.332153,302
884.448975,330
884.565796,324
884.682678,322
884.7995,320
884.916443,320
885.033264,314
885.150085,336
885.266968,318
885.383789,324
885.500671,326
885.617493,327
885.734314,321
885.851196,319
885.967896,321
886.084717,327
886.201599,322
886.318359,324
886.435181,318
886.552002,332
886.668762,305
886.785645,326
886.902344,321
887.019165,317
887.135925,316
887.252747,319
887.369446,318
887.486267,320
887.603027,310
887.719788,336
887.836548,312
887.953247,314
888.070068,319
888.186829,321
888.303528,319
888.420288,311
888.536987,305
888.653687,323
888.770447,309
888.887146,325
889.003967,318
889.120667,320
889.237305,324
889.354065,311
889.470703,304
889.587463,319
889.704163,315
889.820862,319
889.937561,319
890.054199,325
890.170837,321
890.287598,301
890.404236,321
890.520874,321
890.637634,328
890.754211,319
890.87085,321
890.987549,319
891.104187,303
891.220886,318
891.337463,303
891.454102,316
891.57074,300
891.687378,317
891.804077,303
891.920654,324
892.037231,318
892.15387,324
892.270447,316
892.387085,311
892.503723,322
892.6203,313
892.736877,320
892.853516,321
892.970032,299
893.08667,331
893.203186,312
893.319763,315
893.43634,315
893.552917,309
893.669556,315
893.786011,316
893.902588,306
894.019165,321
894.135681,319
894.252197,320
894.368835,313
894.485291,327
894.601868,308
894.718384,315
894.8349,315
894.951355,330
895.067932,325
895.184448,316
895.300964,317
895.417419,320
895.533936,307
895.650452,322
895.766907,317
895.883423,319
895.999878,321
896.116333,315
896.232849,327
896.349304,323
896.465759,318
896.582214,308
896.698669,308
896.815125,318
896.931641,307
897.048035,311
897.164551,311
897.280884,319
897.397339,313
897.513794,325
897.630249,328
897.746582,318
897.863098,326
897.979431,330
898.095886,313
898.212341,319
898.328674,314
898.445129,330
898.561462,323
898.677795,326
898.794312,314
898.910645,329
899.026978,311
899.143433,318
899.259766,319
899.37616,310
899.492493,312
899.608765,309
899.725159,310
899.841553,317
899.957947,316
900.07428,329
900.190552,313
900.306946,315
900.423157,309
900.53949,317
900.655884,320
900.772156,326
900.888489,307
901.004822,309
901.121033,317
901.237366,320
901.353699,313
901.46991,340
901.586304,322
901.702515,308
901.818787,317
901.93512,311
902.051331,313
902.167603,309
902.283875,314
902.400085,321
902.516418,319
902.632629,328
902.74884,322
902.865112,314
902.981384,306
903.097595,325
903.213867,328
903.330017,334
903.446289,321
903.5625,321
903.67865,312
903.794922,327
903.911072,328
904.027344,327
904.143494,308
904.259705,326
904.375916,314
904.492065,322
904.608215,307
904.724426,313
904.840576,308
904.956726,323
905.072876,310
905.189087,322
905.305176,323
905.421387,329
905.537537,327
905.653687,312
905.769775,310
905.885925,331
906.002014,325
906.118164,325
906.234314,325
906.350403,327
906.466492,313
906.582642,323
906.69873,322
906.814758,315
906.930908,327
907.046936,320
907.163086,321
907.279175,324
907.395264,298
907.511353,307
907.62738,323
907.743408,307
907.859497,321
907.975525,324
908.091553,326
908.207703,315
908.32373,294
908.439758,316
908.555786,312
908.671814,330
908.787842,318
908.90387,331
909.019775,321
909.135864,332
909.251892,319
909.367859,317
909.483826,317
909.599854,326
909.715881,314
909.831848,323
909.947815,304
910.063782,326
910.179749,318
910.295776,313
910.411743,315
910.527649,322
910.643616,301
910.759583,330
910.875488,315
910.991455,329
911.107361,323
911.223267,322
911.339294,309
911.4552,335
911.571106,313
911.687073,322
911.802979,310
911.918823,319
912.034729,318
912.150635,313
912.266602,316
912.382446,314
912.498352,313
912.614197,302
912.730103,301
912.846008,319
792.44574,331
792.56488,373
792.68396,406
792.80304,387
792.92218,343
793.041199,318
793.160339,340
793.279419,339
793.398499,335
793.517578,322
793.636658,330
793.755737,339
793.874817,368
793.993896,348
794.112976,332
794.232056,331
794.351074,343
794.470215,339
794.589233,341
794.708313,326
794.827393,331
794.946411,323
795.065552,344
795.18457,333
795.303589,339
795.422668,330
795.541687,341
795.660767,330
795.779846,337
795.898865,332
796.017883,331
796.136963,337
796.255981,322
796.375061,340
796.49408,325
796.613037,336
796.732117,332
796.851135,336
796.970154,343
797.089233,331
797.208191,326
797.327271,334
797.446228,333
797.565186,335
797.684265,324
797.803223,321
797.922241,335
798.04126,324
798.160278,334
798.279297,339
798.398315,347
798.517273,322
798.636292,334
798.75531,343
798.874268,326
798.993286,338
799.112244,330
799.231323,321
799.350281,329
799.469238,334
799.588257,327
799.707153,327
799.826111,320
799.945129,338
800.064087,328
800.183044,350
800.302063,330
800.421021,333
800.539978,342
800.658936,327
800.777893,350
800.896912,347
801.015747,336
801.134705,336
801.253723,320
801.37262,328
801.491638,335
801.610535,323
801.729492,328
801.84845,326
801.967407,334
802.086243,329
802.205261,334
802.324158,333
802.443115,329
802.562073,335
802.680969,330
802.799927,334
802.918762,344
803.037659,335
803.156677,330
803.275574,335
803.39447,329
803.513428,333
803.632263,339
803.751221,322
803.870117,329
803.989014,321
804.107971,328
804.226746,348
804.345642,321
804.4646,327
804.583496,333
804.702393,324
804.821228,323
804.940125,326
805.059021,333
805.177917,324
805.296814,333
805.415649,335
805.534546,342
805.653442,339
805.772278,347
805.891113,323
806.01001,328
806.128906,351
806.247742,341
806.366577,334
806.485413,329
806.604309,329
806.723145,335
806.84198,322
806.960876,333
807.079712,326
807.198486,325
807.317383,319
807.436218,326
807.554993,314
807.673889,325
807.792725,324
807.91156,335
808.030396,326
808.14917,326
808.268005,324
808.386841,332
808.505676,334
808.624451,323
808.743286,333
808.862122,335
808.980896,329
809.099731,329
809.218506,333
809.337341,321
809.456116,321
809.57489,340
809.693726,331
809.8125,323
809.931274,337
810.050049,346
810.168884,331
810.287659,335
810.406372,334
810.525269,339
810.643982,333
810.762756,328
810.881531,338
811.000305,318
811.11908,331
811.237854,326
811.356567,339
811.475403,343
811.594116,329
811.71283,336
811.831604,330
811.950378,340
812.069153,334
812.187927,338
812.30658,340
812.425415,338
812.544128,326
812.662781,351
812.781616,320
812.900269,325
813.019043,333
813.137756,325
813.256531,344
813.375244,330
813.493896,325
813.612671,328
813.731384,342
813.850037,330
813.96875,327
814.087524,327
814.206238,332
814.324951,345
814.443604,328
814.562256,323
814.68103,332
814.799683,333
814.918335,343
815.037109,336
815.155762,341
815.274475,337
815.393188,320
815.511841,339
815.630554,330
815.749146,329
815.867859,321
815.986572,338
816.105164,334
816.223877,332
816.342529,323
816.461182,322
816.579895,343
816.698486,337
816.817139,333
816.935791,324
817.054504,332
817.173096,326
817.291748,332
817.4104,334
817.529053,333
817.647644,324
817.766235,327
817.884949,318
818.00354,333
818.122192,327
818.240845,317
818.359436,325
818.478088,333
818.59668,327
818.715271,336
818.833923,317
818.952515,331
819.071106,340
819.189758,335
819.30835,334
819.426941,319
819.545532,325
819.664124,312
819.782715,333
819.901306,309
820.019897,335
820.138489,324
820.25708,338
820.375671,317
820.494202,333
820.612732,313
820.731384,319
820.849915,314
820.968506,318
821.087097,316
821.205627,321
821.324158,326
821.442749,320
821.561279,311
821.679871,349
821.798401,305
821.916931,315
822.035461,322
822.154053,318
822.272583,306
822.391174,317
822.509583,332
822.628174,313
822.746704,318
822.865234,319
822.983765,307
823.102295,330
823.220825,328
823.339294,326
823.457825,327
823.576355,317
823.694824,326
823.813354,320
823.931885,315
824.050354,322
824.168884,306
824.287354,325
824.405823,322
824.524353,314
824.642822,323
824.761353,334
824.879822,310
824.998291,320
825.116699,315
825.235291,319
825.353699,322
825.472168,330
825.590637,320
825.709106,328
825.827576,311
825.946045,331
826.064453,295
826.182983,316
826.301392,323
826.4198,317
826.53833,317
826.656738,326
826.775208,299
826.893677,327
827.012024,313
827.130493,324
827.248962,321
827.36731,313
827.485779,312
827.604248,318
827.722595,307
827.841064,315
827.959412,329
828.077942,308
828.196289,313
828.314636,318
828.433105,323
828.551514,333
828.669861,321
828.78833,322
828.906677,315
829.025085,329
829.143433,321
829.261841,324
829.38031,321
829.498657,311
829.617004,318
829.735413,315
829.85376,329
829.972107,323
830.090515,322
830.208862,319
830.327209,313
830.445557,318
830.563904,312
830.682312,323
830.800659,321
830.919006,317
831.037354,318
831.155701,319
831.274048,305
831.392395,339
831.51062,319
831.629028,325
831.747314,311
831.865662,323
831.984009,317
832.102356,331
832.220642,306
832.338928,317
832.457275,305
832.575623,319
832.693909,321
832.812134,313
832.930481,321
833.048828,304
833.167114,303
833.2854,312
833.403687,310
833.521973,314
833.640259,311
833.758545,311
833.876831,316
833.995056,320
834.113281,315
834.231628,306
834.349915,320
834.468201,320
834.586426,328
834.704651,317
834.822998,317
834.941162,308
835.059448,313
835.177673,317
835.295959,317
835.414246,310
835.53241,329
835.650635,312
835.768921,325
835.887146,316
836.005371,306
836.123596,319
836.241821,303
836.360046,315
836.478271,317
836.596497,325
836.714722,324
836.832886,325
836.95105,334
837.069336,324
837.1875,323
837.305725,330
837.423889,318
837.542053,324
837.660339,302
837.778503,313
837.896667,326
838.014832,321
838.132996,313
838.25116,316
838.369385,312
838.487488,317
838.605713,305
838.723877,330
838.84198,310
838.960205,317
839.078308,308
839.196472,331
839.314636,313
839.4328,320
839.550964,316
839.669067,313
839.787231,315
839.905396,316
840.023499,326
840.141602,320
840.259766,335
840.377869,303
840.495972,322
840.614136,322
840.732239,334
840.850342,323
840.968445,320
841.086548,313
841.204651,312
841.322754,307
841.440918,311
841.55896,321
841.677002,317
841.795166,337
841.913208,317
842.031311,320
842.149353,332
842.267456,321
842.385498,321
842.503601,307
842.621643,321
842.739746,326
842.857788,322
842.97583,305
843.093933,307
843.211975,321
843.330017,315
843.44812,323
843.566101,309
843.684204,313
843.802246,312
843.920227,311
844.038269,326
844.156311,323
844.274292,314
844.392395,313
844.510376,313
844.628357,325
844.74646,311
844.864441,326
844.982422,330
845.100403,327
845.218384,317
845.336426,304
845.454468,326
845.572449,331
845.69043,309
845.808411,331
845.926453,326
846.044373,317
846.162354,314
846.280396,320
846.398315,322
846.516296,308
846.634216,318
846.752197,321
846.870178,317
846.988098,320
847.106079,303
847.22406,295
847.34198,292
847.4599,305
847.577881,319
847.695801,309
847.813782,306
847.931641,326
848.049561,317
848.167603,315
848.285461,317
848.403381,329
848.521362,312
848.639221,312
848.75708,301
848.875,329
848.99292,307
849.110901,316
849.22876,318
849.34668,324
849.464539,308
849.582458,314
849.700317,313
849.818176,330
849.936096,322
850.053955,316
850.171875,307
850.289673,319
850.407593,315
850.525452,305
850.643311,309
850.761169,322
850.878967,324
850.996887,325
851.114746,317
851.232544,316
851.350403,318
851.468262,332
851.58606,311
851.703979,314
851.821777,325
851.939636,316
852.057434,308
852.175232,322
852.293091,308
852.410889,324
852.528687,327
852.646545,311
852.764343,312
852.88208,302
852.999939,329
853.117676,312
853.235535,308
853.353271,317
853.471069,332
853.588928,309
853.706604,326
853.824402,324
853.9422,323
854.059998,311
854.177734,319
854.295532,320
854.413269,316
854.531006,312
854.648804,311
854.766541,290
854.884277,308
855.002014,318
855.119751,298
855.237549,311
855.355225,320
855.473022,304
855.590698,309
855.708435,322
855.826172,316
855.943848,325
856.061646,319
856.179321,319
856.296997,316
856.414795,323
856.53241,317
856.650085,312
856.767822,312
856.885559,323
857.003174,316
857.120911,312
857.238586,329
857.356201,307
857.473938,308
857.591614,310
857.709351,316
857.826965,317
857.944641,305
858.062317,319
858.179993,319
858.297668,329
858.415283,313
858.532959,307
858.650574,302
858.768188,317
858.885803,308
859.003479,317
859.121094,322
859.23877,322
859.356384,322
859.473999,327
859.591675,319
859.709229,321
859.826843,325
859.944458,319
860.062012,308
860.179626,319
860.297302,313
860.414856,313
860.532471,314
860.650024,313
860.767639,319
860.885193,309
861.002808,328
861.120361,316
861.237976,299
861.35553,323
861.473022,323
861.590698,308
861.708191,312
861.825745,312
861.943298,312
862.060852,309
862.178406,309
862.295959,324
862.413513,317
862.531006,323
862.64856,314
862.766113,310
862.883667,317
863.00116,327
863.118713,316
863.236206,315
863.353699,306
863.471252,306
863.588745,316
863.706177,311
863.82373,305
863.941162,330
864.058716,319
864.176208,317
864.29364,311
864.411194,313
864.528687,313
864.646118,320
864.763611,323
864.881042,322
864.998535,323
865.116028,323
865.233459,333
865.350891,311
865.468384,310
865.585754,316
865.703308,307
865.820679,321
865.938171,309
866.055542,311
866.173035,320
866.290466,308
866.407837,311
866.52533,321
866.6427,305
866.760071,307
866.877563,323
866.994934,319
867.112305,319
867.229736,311
867.347107,313
867.464539,321
867.58197,322
867.699341,328
867.81665,323
867.934082,309
868.051453,318
868.168823,315
868.286194,328
868.403564,314
868.520935,315
868.638306,312
868.755676,326
868.872986,319
868.990295,308
869.107727,328
869.225037,316
869.342346,323
869.459717,312
869.577026,322
869.694336,324
869.811707,315
869.929016,309
870.046326,319
870.163635,319
870.280945,309
870.398254,314
870.515564,309
870.632812,320
870.750183,323
870.867432,307
870.984741,330
871.102051,322
871.219299,310
871.336609,321
871.453918,313
871.571106,302
871.688416,313
871.805664,312
871.922852,306
872.040222,308
872.157471,321
872.274719,325
872.391968,322
872.509155,315
872.626465,325
872.743652,307
872.860962,323
872.978149,315
873.095337,311
873.212646,318
873.329834,316
873.44696,314
873.564209,318
873.681396,316
873.798645,312
873.915894,328
874.03302,320
874.150208,326
874.267456,302
874.384583,324
874.501831,317
874.618958,319
874.736145,327
874.853333,323
874.970459,310
875.087646,328
875.204834,327
875.32196,307
875.439148,307
875.556274,320
875.673401,326
875.790527,323
875.907715,323
876.024841,314
876.141968,330
876.259094,313
876.376282,311
876.493347,314
876.610474,328
876.7276,309
876.844727,340
876.961853,315
877.078918,326
877.195984,316
877.313171,306
877.430237,304
877.547302,319
877.664368,323
877.781433,319
877.898499,314
878.015625,312
878.13269,307
878.249695,325
878.366821,315
878.483887,309
878.600952,336
878.717957,327
878.834961,299
878.952087,317
879.069092,310
879.186157,323
879.303162,323
879.420227,313
879.537231,320
879.654236,321
879.77124,312
879.888306,309
880.005249,314
880.122314,314
880.239319,314
880.356323,314
880.473328,321
880.590271,316
880.707275,310
880.824341,320
880.941284,321
881.058228,328
881.175232,309
881.292236,324
881.40918,320
881.526123,321
881.643066,322
881.760071,323
881.877014,317
881.993958,327
882.11084,318
882.227783,322
882.344727,315
882.46167,317
882.578613,302
882.695618,326
882.812439,316
882.929382,322
883.046326,304
883.163208,318
883.280151,313
883.397034,320
883.513916,307
883.630798,313
883.747742,307
883.864563,318
883.981506,316
884.098389,320
884.21521,319
884.332153,311
884.448975,319
884.565796,320
884.682678,327
884.7995,319
884.916443,326
885.033264,310
885.150085,313
885.266968,328
885.383789,304
885.500671,327
885.617493,304
885.734314,315
885.851196,332
885.967896,318
886.084717,320
886.201599,321
886.318359,314
886.435181,324
886.552002,324
886.668762,326
886.785645,330
886.902344,316
887.019165,318
887.135925,311
887.252747,337
887.369446,313
887.486267,318
887.603027,329
887.719788,320
887.836548,310
887.953247,310
888.070068,329
888.186829,311
888.303528,315
888.420288,315
888.536987,328
888.653687,333
888.770447,312
888.887146,311
889.003967,321
889.120667,319
889.237305,306
889.354065,304
889.470703,309
889.587463,308
889.704163,331
889.820862,326
889.937561,322
890.054199,316
890.170837,309
890.287598,319
890.404236,323
890.520874,325
890.637634,310
890.754211,314
890.87085,325
890.987549,317
891.104187,319
891.220886,318
891.337463,324
891.454102,309
891.57074,316
891.687378,318
891.804077,311
891.920654,320
892.037231,308
892.15387,324
892.270447,335
892.387085,316
892.503723,303
892.6203,320
892.736877,325
892.853516,317
892.970032,309
893.08667,313
893.203186,312
893.319763,305
893.43634,322
893.552917,319
893.669556,318
893.786011,304
893.902588,316
894.019165,326
894.135681,310
894.252197,319
894.368835,317
894.485291,316
894.601868,314
894.718384,325
894.8349,329
894.951355,297
895.067932,320
895.184448,311
895.300964,324
895.417419,303
895.533936,316
895.650452,310
895.766907,319
895.883423,311
895.999878,321
896.116333,301
896.232849,327
896.349304,308
896.465759,313
896.582214,316
896.698669,323
896.815125,307
896.931641,328
897.048035,317
897.164551,322
897.280884,309
897.397339,319
897.513794,318
897.630249,331
897.746582,321
897.863098,302
897.979431,328
898.095886,320
898.212341,314
898.328674,320
898.445129,314
898.561462,319
898.677795,323
898.794312,325
898.910645,321
899.026978,317
899.143433,319
899.259766,318
899.37616,313
899.492493,315
899.608765,311
899.725159,326
899.841553,321
899.957947,318
900.07428,322
900.190552,321
900.306946,315
900.423157,319
900.53949,312
900.655884,321
900.772156,320
900.888489,327
901.004822,314
901.121033,316
901.237366,324
901.353699,324
901.46991,332
901.586304,326
901.702515,304
901.818787,321
901.93512,309
902.051331,320
902.167603,316
902.283875,320
902.400085,313
902.516418,334
902.632629,317
902.74884,325
902.865112,308
902.981384,310
903.097595,307
903.213867,322
903.330017,315
903.446289,310
903.5625,299
903.67865,325
903.794922,316
903.911072,313
904.027344,309
904.143494,323
904.259705,318
904.375916,305
904.492065,329
904.608215,317
904.724426,317
904.840576,311
904.956726,315
905.072876,322
905.189087,324
905.305176,315
905.421387,309
905.537537,332
905.653687,320
905.769775,333
905.885925,313
906.002014,320
906.118164,312
906.234314,320
906.350403,310
906.466492,325
906.582642,311
906.69873,311
906.814758,299
906.930908,328
907.046936,313
907.163086,306
907.279175,318
907.395264,318
907.511353,316
907.62738,324
907.743408,317
907.859497,315
907.975525,309
908.091553,304
908.207703,318
908.32373,321
908.439758,320
908.555786,325
908.671814,306
908.787842,328
908.90387,305
909.019775,312
909.135864,313
909.251892,342
909.367859,332
909.483826,320
909.599854,307
909.715881,318
909.831848,304
909.947815,323
910.063782,320
910.179749,307
910.295776,315
910.411743,321
910.527649,314
910.643616,318
910.759583,320
910.875488,323
910.991455,314
911.107361,324
911.223267,303
911.339294,314
911.4552,324
911.571106,327
911.687073,315
911.802979,314
911.918823,320
912.034729,314
912.150635,315
912.266602,327
912.382446,305
912.498352,317
912.614197,314
912.730103,320
912.846008,318
792.44574,306
792.56488,363
792.68396,407
792.80304,388
792.92218,360
793.041199,335
793.160339,326
793.279419,342
793.398499,348
793.517578,332
793.636658,345
793.755737,352
793.874817,356
793.993896,347
794.112976,334
794.232056,330
794.351074,331
794.470215,332
794.589233,347
794.708313,327
794.827393,334
794.946411,340
795.065552,337
795.18457,353
795.303589,332
795.422668,330
795.541687,340
795.660767,333
795.779846,352
795.898865,321
796.017883,333
796.136963,337
796.255981,341
796.375061,340
796.49408,345
796.613037,336
796.732117,353
796.851135,331
796.970154,350
797.089233,328
797.208191,344
797.327271,341
797.446228,327
797.565186,345
797.684265,324
797.803223,343
797.922241,332
798.04126,325
798.160278,321
798.279297,348
798.398315,336
798.517273,346
798.636292,326
798.75531,340
798.874268,345
798.993286,330
799.112244,336
799.231323,334
799.350281,325
799.469238,323
799.588257,336
799.707153,328
799.826111,332
799.945129,334
800.064087,330
800.183044,336
800.302063,339
800.421021,319
800.539978,349
800.658936,329
800.777893,337
800.896912,330
801.015747,325
801.134705,328
801.253723,337
801.37262,331
801.491638,337
801.610535,316
801.729492,334
801.84845,325
801.967407,347
802.086243,328
802.205261,331
802.324158,335
802.443115,324
802.562073,338
802.680969,334
802.799927,329
802.918762,336
803.037659,331
803.156677,329
803.275574,325
803.39447,331
803.513428,316
803.632263,342
803.751221,334
803.870117,324
803.989014,336
804.107971,332
804.226746,339
804.345642,346
804.4646,333
804.583496,309
804.702393,330
804.821228,334
804.940125,332
805.059021,316
805.177917,337
805.296814,333
805.415649,330
805.534546,341
805.653442,332
805.772278,334
805.891113,338
806.01001,324
806.128906,347
806.247742,325
806.366577,340
806.485413,333
806.604309,334
806.723145,335
806.84198,332
806.960876,321
807.079712,331
807.198486,336
807.317383,348
807.436218,341
807.554993,339
807.673889,341
807.792725,317
807.91156,343
808.030396,336
808.14917,320
808.268005,342
808.386841,324
808.505676,330
808.624451,334
808.743286,329
808.862122,342
808.980896,342
809.099731,344
809.218506,328
809.337341,337
809.456116,335
809.57489,326
809.693726,320
809.8125,337
809.931274,330
810.050049,339
810.168884,318
810.287659,333
810.406372,330
810.525269,337
810.643982,337
810.762756,344
810.881531,336
811.000305,327
811.11908,325
811.237854,338
811.356567,336
811.475403,340
811.594116,331
811.71283,324
811.831604,345
811.950378,348
812.069153,340
812.187927,334
812.30658,322
812.425415,336
812.544128,317
812.662781,345
812.781616,332
812.900269,329
813.019043,331
813.137756,335
813.256531,339
813.375244,322
813.493896,339
813.612671,324
813.731384,330
813.850037,340
813.96875,339
814.087524,340
814.206238,345
814.324951,335
814.443604,345
814.562256,338
814.68103,331
814.799683,331
814.918335,319
815.037109,328
815.155762,335
815.274475,325
815.393188,327
815.511841,329
815.630554,337
815.749146,338
815.867859,326
815.986572,333
816.105164,328
816.223877,335
816.342529,328
816.461182,333
816.579895,338
816.698486,327
816.817139,338
816.935791,324
817.054504,325
817.173096,337
817.291748,334
817.4104,338
817.529053,337
817.647644,336
817.766235,320
817.884949,325
818.00354,328
818.122192,313
818.240845,334
818.359436,341
818.478088,328
818.59668,333
818.715271,324
818.833923,326
818.952515,329
819.071106,317
819.189758,330
819.30835,329
819.426941,318
819.545532,325
819.664124,319
819.782715,331
819.901306,328
820.019897,332
820.138489,329
820.25708,330
820.375671,324
820.494202,324
820.612732,327
820.731384,318
820.849915,325
820.968506,319
821.087097,316
821.205627,324
821.324158,319
821.442749,321
821.561279,328
821.679871,328
821.798401,325
821.916931,327
822.035461,318
822.154053,322
822.272583,314
822.391174,316
822.509583,311
822.628174,327
822.746704,326
822.865234,331
822.983765,315
823.102295,315
823.220825,328
823.339294,317
823.457825,312
823.576355,313
823.694824,311
823.813354,317
823.931885,316
824.050354,319
824.168884,322
824.287354,311
824.405823,325
824.524353,317
824.642822,319
824.761353,311
824.879822,322
824.998291,327
825.116699,327
825.235291,314
825.353699,318
825.472168,322
825.590637,324
825.709106,331
825.827576,320
825.946045,320
826.064453,311
826.182983,317
826.301392,319
826.4198,326
826.53833,319
826.656738,321
826.775208,315
826.893677,298
827.012024,324
827.130493,314
827.248962,322
827.36731,318
827.485779,335
827.604248,314
827.722595,318
827.841064,319
827.959412,307
828.077942,328
828.196289,332
828.314636,324
828.433105,322
828.551514,310
828.669861,322
828.78833,309
828.906677,322
829.025085,321
829.143433,295
829.261841,326
829.38031,318
829.498657,318
829.617004,315
829.735413,332
829.85376,325
829.972107,318
830.090515,312
830.208862,307
830.327209,324
830.445557,324
830.563904,311
830.682312,333
830.800659,319
830.919006,326
831.037354,310
831.155701,325
831.274048,305
831.392395,313
831.51062,305
831.629028,322
831.747314,315
831.865662,310
831.984009,331
832.102356,314
832.220642,335
832.338928,322
832.457275,322
832.575623,322
832.693909,305
832.812134,332
832.930481,307
833.048828,314
833.167114,319
833.2854,321
833.403687,327
833.521973,325
833.640259,312
833.758545,320
833.876831,321
833.995056,309
834.113281,317
834.231628,321
834.349915,318
834.468201,318
834.586426,317
834.704651,324
834.822998,310
834.941162,321
835.059448,321
835.177673,316
835.295959,345
835.414246,315
835.53241,326
835.650635,332
835.768921,328
835.887146,319
836.005371,319
836.123596,320
836.241821,303
836.360046,321
836.478271,325
836.596497,316
836.714722,316
836.832886,326
836.95105,304
837.069336,322
837.1875,318
837.305725,328
837.423889,319
837.542053,333
837.660339,311
837.778503,335
837.896667,320
838.014832,312
838.132996,323
838.25116,314
838.369385,322
838.487488,326
838.605713,317
838.723877,323
838.84198,311
838.960205,318
839.078308,318
839.196472,312
839.314636,320
839.4328,317
839.550964,307
839.669067,337
839.787231,325
839.905396,325
840.023499,322
840.141602,315
840.259766,330
840.377869,329
840.495972,330
840.614136,322
840.732239,325
840.850342,322
840.968445,313
841.086548,329
841.204651,323
841.322754,313
841.440918,327
841.55896,323
841.677002,322
841.795166,317
841.913208,332
842.031311,329
842.149353,317
842.267456,326
842.385498,315
842.503601,323
842.621643,327
842.739746,318
842.857788,329
842.97583,326
843.093933,314
843.211975,318
843.330017,316
843.44812,328
843.566101,315
843.684204,312
843.802246,329
843.920227,316
844.038269,323
844.156311,323
844.274292,317
844.392395,334
844.510376,304
844.628357,313
844.74646,314
844.864441,306
844.982422,318
845.100403,316
845.218384,320
845.336426,315
845.454468,324
845.572449,327
845.69043,314
845.808411,316
845.926453,322
846.044373,320
846.162354,319
846.280396,343
846.398315,333
846.516296,326
846.634216,321
846.752197,324
846.870178,316
846.988098,324
847.106079,299
847.22406,322
847.34198,319
847.4599,311
847.577881,318
847.695801,322
847.813782,315
847.931641,326
848.049561,311
848.167603,317
848.285461,317
848.403381,311
848.521362,312
848.639221,332
848.75708,316
848.875,340
848.99292,314
849.110901,324
849.22876,311
849.34668,323
849.464539,329
849.582458,321
849.700317,309
849.818176,312
849.936096,317
850.053955,325
850.171875,315
850.289673,328
850.407593,308
850.525452,310
850.643311,313
850.761169,319
850.878967,305
850.996887,322
851.114746,314
851.232544,322
851.350403,312
851.468262,319
851.58606,318
851.703979,332
851.821777,318
851.939636,308
852.057434,314
852.175232,331
852.293091,304
852.410889,329
852.528687,307
852.646545,337
852.764343,305
852.88208,321
852.999939,320
853.117676,332
853.235535,311
853.353271,321
853.471069,317
853.588928,324
853.706604,304
853.824402,328
853.9422,323
854.059998,312
854.177734,317
854.295532,320
854.413269,317
854.531006,322
854.648804,342
854.766541,344
854.884277,328
855.002014,319
855.119751,320
855.237549,300
855.355225,311
855.473022,324
855.590698,322
855.708435,305
855.826172,314
855.943848,328
856.061646,311
856.179321,326
856.296997,310
856.414795,334
856.53241,317
856.650085,327
856.767822,311
856.885559,322
857.003174,320
857.120911,315
857.238586,318
857.356201,321
857.473938,323
857.591614,328
857.709351,319
857.826965,321
857.944641,322
858.062317,312
858.179993,334
858.297668,319
858.415283,323
858.532959,315
858.650574,324
858.768188,316
858.885803,320
859.003479,309
859.121094,322
859.23877,327
859.356384,312
859.473999,331
859.591675,301
859.709229,331
859.826843,315
859.944458,316
860.062012,314
860.179626,322
860.297302,302
860.414856,316
860.532471,330
860.650024,324
860.767639,311
860.885193,305
861.002808,315
861.120361,313
861.237976,329
861.35553,318
861.473022,320
861.590698,331
861.708191,312
861.825745,319
861.943298,310
862.060852,317
862.178406,315
862.295959,319
862.413513,310
862.531006,309
862.64856,316
862.766113,324
862.883667,312
863.00116,321
863.118713,309
863.236206,325
863.353699,321
863.471252,326
863.588745,303
863.706177,341
863.82373,310
863.941162,307
864.058716,325
864.176208,325
864.29364,307
864.411194,318
864.528687,313
864.646118,326
864.763611,311
864.881042,324
864.998535,323
865.116028,333
865.233459,303
865.350891,314
865.468384,307
865.585754,312
865.703308,309
865.820679,312
865.938171,324
866.055542,315
866.173035,316
866.290466,304
866.407837,315
866.52533,325
866.6427,306
866.760071,318
866.877563,311
866.994934,327
867.112305,332
867.229736,308
867.347107,323
867.464539,322
867.58197,316
867.699341,308
867.81665,315
867.934082,306
868.051453,304
868.168823,325
868.286194,314
868.403564,312
868.520935,323
868.638306,335
868.755676,325
868.872986,318
868.990295,298
869.107727,328
869.225037,315
869.342346,312
869.459717,308
869.577026,302
869.694336,322
869.811707,313
869.929016,311
870.046326,321
870.163635,310
870.280945,326
870.398254,315
870.515564,329
870.632812,320
870.750183,315
870.867432,320
870.984741,317
871.102051,316
871.219299,327
871.336609,312
871.453918,321
871.571106,301
871.688416,320
871.805664,320
871.922852,322
872.040222,321
872.157471,307
872.274719,311
872.391968,326
872.509155,315
872.626465,313
872.743652,317
872.860962,336
872.978149,312
873.095337,327
873.212646,312
873.329834,316
873.44696,338
873.564209,306
873.681396,325
873.798645,311
873.915894,317
874.03302,324
874.150208,298
874.267456,314
874.384583,316
874.501831,326
874.618958,313
874.736145,326
874.853333,314
874.970459,331
875.087646,327
875.204834,317
875.32196,318
875.439148,325
875.556274,316
875.673401,315
875.790527,320
875.907715,315
876.024841,318
876.141968,325
876.259094,312
876.376282,326
876.493347,307
876.610474,315
876.7276,321
876.844727,315
876.961853,305
877.078918,319
877.195984,321
877.313171,316
877.430237,314
877.547302,316
877.664368,323
877.781433,328
877.898499,322
878.015625,317
878.13269,327
878.249695,307
878.366821,305
878.483887,313
878.600952,316
878.717957,316
878.834961,318
878.952087,328
879.069092,312
879.186157,328
879.303162,318
879.420227,315
879.537231,318
879.654236,322
879.77124,310
879.888306,308
880.005249,298
880.122314,318
880.239319,311
880.356323,303
880.473328,326
880.590271,332
880.707275,326
880.824341,319
880.941284,321
881.058228,324
881.175232,300
881.292236,325
881.40918,310
881.526123,324
881.643066,311
881.760071,321
881.877014,317
881.993958,326
882.11084,317
882.227783,315
882.344727,309
882.46167,321
882.578613,312
882.695618,315
882.812439,315
882.929382,326
883.046326,312
883.163208,311
883.280151,311
883.397034,310
883.513916,315
883.630798,317
883.747742,318
883.864563,319
883.981506,314
884.098389,312
884.21521,322
884.332153,315
884.448975,322
884.565796,314
884.682678,312
884.7995,309
884.916443,321
885.033264,324
885.150085,311
885.266968,331
885.383789,336
885.500671,323
885.617493,316
885.734314,323
885.851196,328
885.967896,308
886.084717,304
886.201599,319
886.318359,305
886.435181,329
886.552002,316
886.668762,319
886.785645,318
886.902344,330
887.019165,312
887.135925,327
887.252747,321
887.369446,329
887.486267,312
887.603027,324
887.719788,301
887.836548,320
887.953247,302
888.070068,322
888.186829,321
888.303528,321
888.420288,336
888.536987,320
888.653687,317
888.770447,323
888.887146,320
889.003967,307
889.120667,310
889.237305,339
889.354065,312
889.470703,314
889.587463,307
889.704163,315
889.820862,307
889.937561,310
890.054199,309
890.170837,334
890.287598,312
890.404236,307
890.520874,310
890.637634,308
890.754211,303
890.87085,314
890.987549,320
891.104187,322
891.220886,316
891.337463,310
891.454102,309
891.57074,321
891.687378,315
891.804077,324
891.920654,329
892.037231,324
892.15387,315
892.270447,325
892.387085,314
892.503723,320
892.6203,311
892.736877,324
892.853516,308
892.970032,327
893.08667,318
893.203186,323
893.319763,301
893.43634,329
893.552917,314
893.669556,307
893.786011,314
893.902588,318
894.019165,312
894.135681,313
894.252197,301
894.368835,323
894.485291,317
894.601868,324
894.718384,311
894.8349,328
894.951355,329
895.067932,330
895.184448,319
895.300964,313
895.417419,331
895.533936,320
895.650452,310
895.766907,310
895.883423,307
895.999878,311
896.116333,305
896.232849,309
896.349304,318
896.465759,317
896.582214,315
896.698669,315
896.815125,319
896.931641,321
897.048035,317
897.164551,320
897.280884,319
897.397339,316
897.513794,317
897.630249,314
897.746582,308
897.863098,307
897.979431,333
898.095886,339
898.212341,326
898.328674,333
898.445129,313
898.561462,323
898.677795,320
898.794312,315
898.910645,311
899.026978,322
899.143433,324
899.259766,324
899.37616,314
899.492493,311
899.608765,333
899.725159,324
899.841553,312
899.957947,320
900.07428,315
900.190552,328
900.306946,315
900.423157,319
900.53949,322
900.655884,322
900.772156,309
900.888489,333
901.004822,321
901.121033,334
901.237366,331
901.353699,328
901.46991,323
901.586304,326
901.702515,309
901.818787,314
901.93512,330
902.051331,333
902.167603,315
902.283875,319
902.400085,303
902.516418,332
902.632629,308
902.74884,327
902.865112,313
902.981384,325
903.097595,324
903.213867,320
903.330017,312
903.446289,332
903.5625,318
903.67865,318
903.794922,316
903.911072,324
904.027344,301
904.143494,317
904.259705,316
904.375916,325
904.492065,328
904.608215,319
904.724426,322
904.840576,318
904.956726,322
905.072876,322
905.189087,315
905.305176,310
905.421387,304
905.537537,327
905.653687,320
905.769775,316
905.885925,308
906.002014,317
906.118164,315
906.234314,320
906.350403,316
906.466492,319
906.582642,315
906.69873,327
906.814758,319
906.930908,311
907.046936,327
907.163086,303
907.279175,315
907.395264,308
907.511353,309
907.62738,317
907.743408,320
907.859497,315
907.975525,324
908.091553,332
908.207703,315
908.32373,317
908.439758,312
908.555786,310
908.671814,318
908.787842,314
908.90387,311
909.019775,331
909.135864,314
909.251892,318
909.367859,315
909.483826,307
909.599854,309
909.715881,311
909.831848,310
909.947815,330
910.063782,327
910.179749,317
910.295776,304
910.411743,342
910.527649,318
910.643616,324
910.759583,309
910.875488,324
910.991455,324
911.107361,327
911.223267,321
911.339294,313
911.4552,321
911.571106,310
911.687073,323
911.802979,325
911.918823,321
912.034729,316
912.150635,326
912.266602,312
912.382446,310
912.498352,321
912.614197,316
912.730103,326
912.846008,314
