792.44574,365
792.56488,396
792.68396,442
792.80304,420
792.92218,386
793.041199,370
793.160339,347
793.279419,376
793.398499,345
793.517578,358
793.636658,359
793.755737,375
793.874817,362
793.993896,372
794.112976,352
794.232056,339
794.351074,361
794.470215,351
794.589233,355
794.708313,360
794.827393,348
794.946411,345
795.065552,362
795.18457,356
795.303589,362
795.422668,350
795.541687,342
795.660767,358
795.779846,331
795.898865,346
796.017883,341
796.136963,347
796.255981,345
796.375061,346
796.49408,343
796.613037,330
796.732117,340
796.851135,331
796.970154,346
797.089233,332
797.208191,333
797.327271,330
797.446228,354
797.565186,338
797.684265,338
797.803223,351
797.922241,339
798.04126,334
798.160278,352
798.279297,344
798.398315,339
798.517273,323
798.636292,332
798.75531,348
798.874268,333
798.993286,342
799.112244,329
799.231323,337
799.350281,342
799.469238,335
799.588257,341
799.707153,350
799.826111,333
799.945129,338
800.064087,342
800.183044,324
800.302063,352
800.421021,335
800.539978,325
800.658936,343
800.777893,326
800.896912,326
801.015747,337
801.134705,322
801.253723,333
801.37262,328
801.491638,340
801.610535,340
801.729492,330
801.84845,329
801.967407,349
802.086243,327
802.205261,335
802.324158,331
802.443115,324
802.562073,330
802.680969,337
802.799927,340
802.918762,339
803.037659,328
803.156677,335
803.275574,332
803.39447,333
803.513428,330
803.632263,325
803.751221,336
803.870117,335
803.989014,322
804.107971,343
804.226746,328
804.345642,333
804.4646,329
804.583496,330
804.702393,320
804.821228,342
804.940125,327
805.059021,331
805.177917,336
805.296814,326
805.415649,340
805.534546,329
805.653442,327
805.772278,332
805.891113,328
806.01001,344
806.128906,334
806.247742,327
806.366577,311
806.485413,327
806.604309,315
806.723145,340
806.84198,340
806.960876,336
807.079712,326
807.198486,334
807.317383,325
807.436218,336
807.554993,325
807.673889,344
807.792725,327
807.91156,329
808.030396,334
808.14917,322
808.268005,327
808.386841,341
808.505676,311
808.624451,340
808.743286,325
808.862122,336
808.980896,329
809.099731,328
809.218506,311
809.337341,347
809.456116,321
809.57489,330
809.693726,319
809.8125,333
809.931274,313
810.050049,323
810.168884,319
810.287659,328
810.406372,330
810.525269,325
810.643982,327
810.762756,330
810.881531,333
811.000305,318
811.11908,322
811.237854,328
811.356567,325
811.475403,326
811.594116,340
811.71283,333
811.831604,320
811.950378,335
812.069153,326
812.187927,332
812.30658,321
812.425415,335
812.544128,337
812.662781,318
812.781616,332
812.900269,321
813.019043,324
813.137756,324
813.256531,326
813.375244,327
813.493896,330
813.612671,323
813.731384,333
813.850037,324
813.96875,320
814.087524,322
814.206238,341
814.324951,326
814.443604,337
814.562256,336
814.68103,329
814.799683,341
814.918335,331
815.037109,323
815.155762,327
815.274475,350
815.393188,328
815.511841,334
815.630554,323
815.749146,329
815.867859,343
815.986572,334
816.105164,323
816.223877,341
816.342529,333
816.461182,326
816.579895,322
816.698486,326
816.817139,316
816.935791,344
817.054504,331
817.173096,325
817.291748,315
817.4104,327
817.529053,322
817.647644,333
817.766235,317
817.884949,334
818.00354,331
818.122192,318
818.240845,310
818.359436,324
818.478088,323
818.59668,329
818.715271,327
818.833923,329
818.952515,309
819.071106,316
819.189758,324
819.30835,316
819.426941,318
819.545532,330
819.664124,312
819.782715,319
819.901306,318
820.019897,327
820.138489,310
820.25708,324
820.375671,330
820.494202,311
820.612732,318
820.731384,307
820.849915,327
820.968506,323
821.087097,313
821.205627,331
821.324158,319
821.442749,326
821.561279,306
821.679871,325
821.798401,328
821.916931,316
822.035461,322
822.154053,320
822.272583,316
822.391174,323
822.509583,314
822.628174,331
822.746704,336
822.865234,322
822.983765,311
823.102295,322
823.220825,301
823.339294,314
823.457825,330
823.576355,321
823.694824,315
823.813354,310
823.931885,317
824.050354,324
824.168884,327
824.287354,323
824.405823,331
824.524353,327
824.642822,302
824.761353,329
824.879822,315
824.998291,336
825.116699,326
825.235291,325
825.353699,324
825.472168,321
825.590637,307
825.709106,333
825.827576,315
825.946045,320
826.064453,309
826.182983,320
826.301392,322
826.4198,330
826.53833,323
826.656738,323
826.775208,305
826.893677,323
827.012024,308
827.130493,324
827.248962,308
827.36731,335
827.485779,308
827.604248,332
827.722595,322
827.841064,326
827.959412,326
828.077942,316
828.196289,333
828.314636,315
828.433105,301
828.551514,328
828.669861,308
828.78833,311
828.906677,325
829.025085,326
829.143433,314
829.261841,335
829.38031,319
829.498657,323
829.617004,323
829.735413,314
829.85376,313
829.972107,322
830.090515,315
830.208862,325
830.327209,313
830.445557,330
830.563904,321
830.682312,330
830.800659,319
830.919006,320
831.037354,311
831.155701,315
831.274048,329
831.392395,321
831.51062,326
831.629028,318
831.747314,316
831.865662,308
831.984009,321
832.102356,325
832.220642,323
832.338928,326
832.457275,319
832.575623,320
832.693909,305
832.812134,331
832.930481,307
833.048828,337
833.167114,319
833.2854,324
833.403687,325
833.521973,321
833.640259,326
833.758545,317
833.876831,324
833.995056,314
834.113281,310
834.231628,323
834.349915,322
834.468201,317
834.586426,327
834.704651,320
834.822998,312
834.941162,335
835.059448,316
835.177673,315
835.295959,319
835.414246,318
835.53241,322
835.650635,320
835.768921,320
835.887146,323
836.005371,322
836.123596,311
836.241821,320
836.360046,312
836.478271,312
836.596497,321
836.714722,325
836.832886,324
836.95105,320
837.069336,311
837.1875,311
837.305725,328
837.423889,319
837.542053,320
837.660339,315
837.778503,327
837.896667,308
838.014832,319
838.132996,316
838.25116,312
838.369385,321
838.487488,323
838.605713,329
838.723877,318
838.84198,323
838.960205,314
839.078308,318
839.196472,326
839.314636,321
839.4328,321
839.550964,319
839.669067,320
839.787231,328
839.905396,318
840.023499,319
840.141602,318
840.259766,310
840.377869,319
840.495972,329
840.614136,322
840.732239,332
840.850342,316
840.968445,310
841.086548,336
841.204651,313
841.322754,310
841.440918,328
841.55896,327
841.677002,331
841.795166,334
841.913208,315
842.031311,329
842.149353,346
842.267456,335
842.385498,322
842.503601,334
842.621643,313
842.739746,317
842.857788,311
842.97583,319
843.093933,320
843.211975,321
843.330017,309
843.44812,328
843.566101,320
843.684204,319
843.802246,324
843.920227,326
844.038269,325
844.156311,309
844.274292,328
844.392395,312
844.510376,335
844.628357,309
844.74646,302
844.864441,325
844.982422,330
845.100403,323
845.218384,330
845.336426,321
845.454468,335
845.572449,316
845.69043,321
845.808411,325
845.926453,327
846.044373,332
846.162354,322
846.280396,332
846.398315,316
846.516296,321
846.634216,338
846.752197,320
846.870178,326
846.988098,346
847.106079,338
847.22406,321
847.34198,321
847.4599,330
847.577881,343
847.695801,342
847.813782,318
847.931641,329
848.049561,330
848.167603,333
848.285461,309
848.403381,321
848.521362,314
848.639221,328
848.75708,317
848.875,321
848.99292,311
849.110901,328
849.22876,323
849.34668,319
849.464539,313
849.582458,335
849.700317,307
849.818176,321
849.936096,330
850.053955,322
850.171875,322
850.289673,308
850.407593,316
850.525452,326
850.643311,317
850.761169,317
850.878967,310
850.996887,321
851.114746,310
851.232544,329
851.350403,323
851.468262,312
851.58606,323
851.703979,324
851.821777,314
851.939636,324
852.057434,320
852.175232,328
852.293091,314
852.410889,327
852.528687,323
852.646545,335
852.764343,328
852.88208,320
852.999939,309
853.117676,314
853.235535,313
853.353271,313
853.471069,318
853.588928,312
853.706604,327
853.824402,324
853.9422,338
854.059998,319
854.177734,316
854.295532,324
854.413269,319
854.531006,323
854.648804,310
854.766541,327
854.884277,329
855.002014,327
855.119751,325
855.237549,331
855.355225,332
855.473022,315
855.590698,318
855.708435,326
855.826172,329
855.943848,340
856.061646,324
856.179321,319
856.296997,333
856.414795,324
856.53241,331
856.650085,331
856.767822,322
856.885559,314
857.003174,319
857.120911,316
857.238586,309
857.356201,329
857.473938,335
857.591614,326
857.709351,323
857.826965,330
857.944641,325
858.062317,320
858.179993,310
858.297668,317
858.415283,325
858.532959,332
858.650574,313
858.768188,339
858.885803,328
859.003479,329
859.121094,321
859.23877,324
859.356384,326
859.473999,315
859.591675,315
859.709229,327
859.826843,337
859.944458,320
860.062012,315
860.179626,321
860.297302,320
860.414856,338
860.532471,327
860.650024,323
860.767639,319
860.885193,320
861.002808,324
861.120361,335
861.237976,320
861.35553,333
861.473022,331
861.590698,330
861.708191,328
861.825745,314
861.943298,334
862.060852,321
862.178406,328
862.295959,326
862.413513,319
862.531006,333
862.64856,311
862.766113,309
862.883667,305
863.00116,321
863.118713,308
863.236206,320
863.353699,304
863.471252,322
863.588745,315
863.706177,327
863.82373,311
863.941162,333
864.058716,321
864.176208,336
864.29364,324
864.411194,321
864.528687,316
864.646118,333
864.763611,315
864.881042,315
864.998535,317
865.116028,328
865.233459,339
865.350891,329
865.468384,322
865.585754,313
865.703308,319
865.820679,314
865.938171,315
866.055542,306
866.173035,321
866.290466,321
866.407837,316
866.52533,304
866.6427,315
866.760071,322
866.877563,306
866.994934,327
867.112305,317
867.229736,333
867.347107,316
867.464539,322
867.58197,327
867.699341,315
867.81665,314
867.934082,329
868.051453,323
868.168823,323
868.286194,330
868.403564,330
868.520935,331
868.638306,338
868.755676,320
868.872986,328
868.990295,320
869.107727,330
869.225037,322
869.342346,324
869.459717,323
869.577026,336
869.694336,308
869.811707,335
869.929016,323
870.046326,325
870.163635,318
870.280945,315
870.398254,318
870.515564,332
870.632812,314
870.750183,329
870.867432,321
870.984741,328
871.102051,316
871.219299,329
871.336609,321
871.453918,326
871.571106,326
871.688416,322
871.805664,325
871.922852,314
872.040222,317
872.157471,327
872.274719,325
872.391968,317
872.509155,323
872.626465,331
872.743652,323
872.860962,342
872.978149,343
873.095337,329
873.212646,312
873.329834,336
873.44696,335
873.564209,329
873.681396,317
873.798645,333
873.915894,321
874.03302,323
874.150208,329
874.267456,327
874.384583,320
874.501831,321
874.618958,326
874.736145,317
874.853333,334
874.970459,323
875.087646,322
875.204834,327
875.32196,325
875.439148,349
875.556274,333
875.673401,321
875.790527,317
875.907715,334
876.024841,316
876.141968,325
876.259094,321
876.376282,324
876.493347,316
876.610474,321
876.7276,323
876.844727,316
876.961853,323
877.078918,314
877.195984,328
877.313171,318
877.430237,313
877.547302,329
877.664368,317
877.781433,322
877.898499,308
878.015625,328
878.13269,319
878.249695,321
878.366821,320
878.483887,317
878.600952,314
878.717957,323
878.834961,322
878.952087,336
879.069092,321
879.186157,319
879.303162,313
879.420227,324
879.537231,316
879.654236,322
879.77124,332
879.888306,318
880.005249,302
880.122314,316
880.239319,315
880.356323,307
880.473328,322
880.590271,310
880.707275,330
880.824341,327
880.941284,311
881.058228,344
881.175232,313
881.292236,314
881.40918,307
881.526123,304
881.643066,321
881.760071,321
881.877014,324
881.993958,327
882.11084,321
882.227783,334
882.344727,308
882.46167,321
882.578613,323
882.695618,320
882.812439,303
882.929382,327
883.046326,322
883.163208,318
883.280151,331
883.397034,324
883.513916,307
883.630798,315
883.747742,312
883.864563,332
883.981506,323
884.098389,323
884.21521,321
884.332153,316
884.448975,324
884.565796,336
884.682678,325
884.7995,326
884.916443,315
885.033264,333
885.150085,314
885.266968,333
885.383789,332
885.500671,345
885.617493,336
885.734314,340
885.851196,337
885.967896,325
886.084717,320
886.201599,336
886.318359,329
886.435181,330
886.552002,329
886.668762,331
886.785645,334
886.902344,328
887.019165,321
887.135925,331
887.252747,313
887.369446,334
887.486267,322
887.603027,336
887.719788,322
887.836548,324
887.953247,311
888.070068,326
888.186829,308
888.303528,326
888.420288,320
888.536987,316
888.653687,315
888.770447,318
888.887146,320
889.003967,320
889.120667,318
889.237305,330
889.354065,322
889.470703,331
889.587463,304
889.704163,317
889.820862,332
889.937561,325
890.054199,317
890.170837,310
890.287598,309
890.404236,318
890.520874,315
890.637634,312
890.754211,319
890.87085,322
890.987549,312
891.104187,316
891.220886,321
891.337463,322
891.454102,317
891.57074,320
891.687378,304
891.804077,313
891.920654,300
892.037231,320
892.15387,316
892.270447,319
892.387085,334
892.503723,317
892.6203,316
892.736877,325
892.853516,319
892.970032,322
893.08667,314
893.203186,322
893.319763,316
893.43634,340
893.552917,312
893.669556,319
893.786011,312
893.902588,323
894.019165,316
894.135681,317
894.252197,316
894.368835,326
894.485291,329
894.601868,321
894.718384,321
894.8349,339
894.951355,308
895.067932,308
895.184448,310
895.300964,319
895.417419,310
895.533936,330
895.650452,307
895.766907,315
895.883423,319
895.999878,327
896.116333,312
896.232849,321
896.349304,307
896.465759,318
896.582214,326
896.698669,322
896.815125,315
896.931641,323
897.048035,308
897.164551,326
897.280884,309
897.397339,328
897.513794,315
897.630249,327
897.746582,318
897.863098,308
897.979431,317
898.095886,326
898.212341,310
898.328674,313
898.445129,303
898.561462,314
898.677795,311
898.794312,323
898.910645,311
899.026978,321
899.143433,320
899.259766,325
899.37616,314
899.492493,312
899.608765,307
899.725159,334
899.841553,318
899.957947,322
900.07428,312
900.190552,324
900.306946,316
900.423157,323
900.53949,321
900.655884,320
900.772156,320
900.888489,315
901.004822,314
901.121033,317
901.237366,320
901.353699,333
901.46991,323
901.586304,310
901.702515,315
901.818787,312
901.93512,311
902.051331,324
902.167603,313
902.283875,322
902.400085,317
902.516418,333
902.632629,319
902.74884,335
902.865112,324
902.981384,329
903.097595,330
903.213867,319
903.330017,321
903.446289,325
903.5625,323
903.67865,339
903.794922,320
903.911072,339
904.027344,322
904.143494,319
904.259705,320
904.375916,334
904.492065,310
904.608215,320
904.724426,306
904.840576,319
904.956726,316
905.072876,316
905.189087,323
905.305176,318
905.421387,329
905.537537,321
905.653687,305
905.769775,336
905.885925,305
906.002014,312
906.118164,320
906.234314,325
906.350403,316
906.466492,322
906.582642,307
906.69873,316
906.814758,317
906.930908,318
907.046936,300
907.163086,322
907.279175,314
907.395264,317
907.511353,306
907.62738,314
907.743408,306
907.859497,314
907.975525,304
908.091553,319
908.207703,323
908.32373,321
908.439758,313
908.555786,313
908.671814,316
908.787842,321
908.90387,312
909.019775,322
909.135864,317
909.251892,328
909.367859,312
909.483826,317
909.599854,316
909.715881,314
909.831848,317
909.947815,320
910.063782,328
910.179749,327
910.295776,310
910.411743,328
910.527649,321
910.643616,326
910.759583,312
910.875488,314
910.991455,310
911.107361,309
911.223267,326
911.339294,309
911.4552,324
911.571106,319
911.687073,320
911.802979,325
911.918823,319
912.034729,329
912.150635,320
912.266602,311
912.382446,315
912.498352,322
912.614197,306
912.730103,326
912.846008,303
792.44574,391
792.56488,406
792.68396,455
792.80304,435
792.92218,366
793.041199,373
793.160339,353
793.279419,368
793.398499,365
793.517578,345
793.636658,350
793.755737,380
793.874817,387
793.993896,364
794.112976,374
794.232056,348
794.351074,375
794.470215,357
794.589233,356
794.708313,368
794.827393,344
794.946411,379
795.065552,357
795.18457,350
795.303589,343
795.422668,342
795.541687,356
795.660767,345
795.779846,339
795.898865,346
796.017883,341
796.136963,345
796.255981,359
796.375061,354
796.49408,354
796.613037,342
796.732117,350
796.851135,348
796.970154,340
797.089233,350
797.208191,329
797.327271,351
797.446228,352
797.565186,345
797.684265,340
797.803223,325
797.922241,342
798.04126,339
798.160278,336
798.279297,326
798.398315,347
798.517273,318
798.636292,330
798.75531,334
798.874268,334
798.993286,323
799.112244,349
799.231323,330
799.350281,357
799.469238,336
799.588257,348
799.707153,320
799.826111,348
799.945129,327
800.064087,335
800.183044,331
800.302063,328
800.421021,333
800.539978,329
800.658936,328
800.777893,345
800.896912,313
801.015747,336
801.134705,326
801.253723,333
801.37262,329
801.491638,339
801.610535,338
801.729492,320
801.84845,330
801.967407,322
802.086243,336
802.205261,322
802.324158,315
802.443115,328
802.562073,346
802.680969,334
802.799927,335
802.918762,340
803.037659,343
803.156677,324
803.275574,339
803.39447,338
803.513428,329
803.632263,336
803.751221,316
803.870117,329
803.989014,318
804.107971,330
804.226746,336
804.345642,337
804.4646,338
804.583496,333
804.702393,328
804.821228,329
804.940125,323
805.059021,337
805.177917,321
805.296814,323
805.415649,330
805.534546,323
805.653442,338
805.772278,331
805.891113,331
806.01001,334
806.128906,327
806.247742,338
806.366577,320
806.485413,337
806.604309,322
806.723145,334
806.84198,313
806.960876,326
807.079712,332
807.198486,339
807.317383,324
807.436218,327
807.554993,334
807.673889,336
807.792725,335
807.91156,336
808.030396,315
808.14917,338
808.268005,330
808.386841,351
808.505676,310
808.624451,348
808.743286,326
808.862122,334
808.980896,337
809.099731,321
809.218506,331
809.337341,330
809.456116,324
809.57489,315
809.693726,331
809.8125,333
809.931274,341
810.050049,338
810.168884,325
810.287659,315
810.406372,324
810.525269,322
810.643982,331
810.762756,319
810.881531,320
811.000305,331
811.11908,322
811.237854,324
811.356567,333
811.475403,326
811.594116,327
811.71283,335
811.831604,328
811.950378,329
812.069153,329
812.187927,331
812.30658,319
812.425415,327
812.544128,322
812.662781,324
812.781616,327
812.900269,336
813.019043,326
813.137756,342
813.256531,322
813.375244,337
813.493896,323
813.612671,338
813.731384,327
813.850037,331
813.96875,328
814.087524,342
814.206238,331
814.324951,304
814.443604,340
814.562256,333
814.68103,319
814.799683,335
814.918335,337
815.037109,329
815.155762,323
815.274475,336
815.393188,332
815.511841,321
815.630554,327
815.749146,326
815.867859,329
815.986572,320
816.105164,322
816.223877,337
816.342529,331
816.461182,339
816.579895,325
816.698486,337
816.817139,332
816.935791,340
817.054504,322
817.173096,341
817.291748,324
817.4104,320
817.529053,334
817.647644,335
817.766235,326
817.884949,335
818.00354,325
818.122192,330
818.240845,320
818.359436,329
818.478088,327
818.59668,322
818.715271,337
818.833923,320
818.952515,323
819.071106,332
819.189758,322
819.30835,332
819.426941,327
819.545532,327
819.664124,314
819.782715,322
819.901306,314
820.019897,308
820.138489,325
820.25708,311
820.375671,329
820.494202,319
820.612732,330
820.731384,321
820.849915,331
820.968506,319
821.087097,327
821.205627,318
821.324158,322
821.442749,321
821.561279,307
821.679871,323
821.798401,337
821.916931,318
822.035461,322
822.154053,322
822.272583,332
822.391174,323
822.509583,317
822.628174,312
822.746704,331
822.865234,325
822.983765,321
823.102295,323
823.220825,319
823.339294,328
823.457825,330
823.576355,318
823.694824,322
823.813354,322
823.931885,318
824.050354,320
824.168884,322
824.287354,327
824.405823,315
824.524353,341
824.642822,323
824.761353,318
824.879822,317
824.998291,331
825.116699,324
825.235291,308
825.353699,318
825.472168,325
825.590637,325
825.709106,330
825.827576,317
825.946045,333
826.064453,318
826.182983,317
826.301392,315
826.4198,320
826.53833,325
826.656738,330
826.775208,325
826.893677,329
827.012024,317
827.130493,331
827.248962,318
827.36731,307
827.485779,313
827.604248,314
827.722595,321
827.841064,321
827.959412,307
828.077942,318
828.196289,327
828.314636,323
828.433105,323
828.551514,326
828.669861,323
828.78833,329
828.906677,321
829.025085,313
829.143433,315
829.261841,326
829.38031,328
829.498657,317
829.617004,318
829.735413,317
829.85376,330
829.972107,326
830.090515,327
830.208862,322
830.327209,326
830.445557,318
830.563904,324
830.682312,315
830.800659,325
830.919006,321
831.037354,314
831.155701,334
831.274048,305
831.392395,319
831.51062,322
831.629028,321
831.747314,311
831.865662,319
831.984009,315
832.102356,319
832.220642,319
832.338928,327
832.457275,328
832.575623,327
832.693909,312
832.812134,320
832.930481,329
833.048828,319
833.167114,310
833.2854,320
833.403687,312
833.521973,342
833.640259,320
833.758545,318
833.876831,309
833.995056,327
834.113281,333
834.231628,319
834.349915,330
834.468201,323
834.586426,326
834.704651,329
834.822998,333
834.941162,319
835.059448,317
835.177673,313
835.295959,318
835.414246,334
835.53241,330
835.650635,326
835.768921,323
835.887146,318
836.005371,322
836.123596,334
836.241821,319
836.360046,324
836.478271,318
836.596497,306
836.714722,332
836.832886,312
836.95105,308
837.069336,332
837.1875,320
837.305725,321
837.423889,312
837.542053,304
837.660339,329
837.778503,322
837.896667,319
838.014832,314
838.132996,315
838.25116,325
838.369385,318
838.487488,307
838.605713,327
838.723877,305
838.84198,318
838.960205,320
839.078308,323
839.196472,322
839.314636,330
839.4328,324
839.550964,308
839.669067,316
839.787231,321
839.905396,329
840.023499,326
840.141602,319
840.259766,322
840.377869,322
840.495972,325
840.614136,328
840.732239,331
840.850342,319
840.968445,327
841.086548,341
841.204651,313
841.322754,320
841.440918,323
841.55896,324
841.677002,314
841.795166,329
841.913208,322
842.031311,331
842.149353,313
842.267456,317
842.385498,316
842.503601,327
842.621643,323
842.739746,313
842.857788,330
842.97583,324
843.093933,310
843.211975,338
843.330017,312
843.44812,326
843.566101,315
843.684204,335
843.802246,317
843.920227,322
844.038269,317
844.156311,341
844.274292,319
844.392395,319
844.510376,310
844.628357,323
844.74646,320
844.864441,324
844.982422,320
845.100403,324
845.218384,324
845.336426,319
845.454468,319
845.572449,327
845.69043,316
845.808411,327
845.926453,329
846.044373,322
846.162354,321
846.280396,326
846.398315,334
846.516296,330
846.634216,329
846.752197,318
846.870178,313
846.988098,331
847.106079,330
847.22406,323
847.34198,323
847.4599,331
847.577881,315
847.695801,325
847.813782,326
847.931641,328
848.049561,331
848.167603,332
848.285461,329
848.403381,325
848.521362,307
848.639221,324
848.75708,334
848.875,333
848.99292,328
849.110901,322
849.22876,323
849.34668,319
849.464539,330
849.582458,331
849.700317,324
849.818176,315
849.936096,321
850.053955,331
850.171875,318
850.289673,328
850.407593,316
850.525452,320
850.643311,324
850.761169,340
850.878967,316
850.996887,326
851.114746,318
851.232544,341
851.350403,318
851.468262,315
851.58606,334
851.703979,323
851.821777,332
851.939636,332
852.057434,320
852.175232,325
852.293091,320
852.410889,325
852.528687,323
852.646545,332
852.764343,323
852.88208,338
852.999939,321
853.117676,319
853.235535,324
853.353271,337
853.471069,327
853.588928,332
853.706604,322
853.824402,317
853.9422,314
854.059998,336
854.177734,327
854.295532,319
854.413269,323
854.531006,317
854.648804,314
854.766541,322
854.884277,316
855.002014,322
855.119751,309
855.237549,324
855.355225,319
855.473022,328
855.590698,320
855.708435,330
855.826172,326
855.943848,331
856.061646,305
856.179321,341
856.296997,314
856.414795,332
856.53241,319
856.650085,335
856.767822,325
856.885559,313
857.003174,317
857.120911,334
857.238586,328
857.356201,335
857.473938,334
857.591614,316
857.709351,341
857.826965,323
857.944641,311
858.062317,334
858.179993,319
858.297668,319
858.415283,325
858.532959,315
858.650574,325
858.768188,329
858.885803,340
859.003479,318
859.121094,322
859.23877,328
859.356384,330
859.473999,327
859.591675,327
859.709229,314
859.826843,313
859.944458,335
860.062012,319
860.179626,331
860.297302,321
860.414856,324
860.532471,317
860.650024,338
860.767639,317
860.885193,332
861.002808,316
861.120361,319
861.237976,326
861.35553,313
861.473022,320
861.590698,345
861.708191,318
861.825745,311
861.943298,323
862.060852,333
862.178406,330
862.295959,331
862.413513,328
862.531006,321
862.64856,322
862.766113,321
862.883667,316
863.00116,328
863.118713,328
863.236206,316
863.353699,318
863.471252,326
863.588745,326
863.706177,326
863.82373,320
863.941162,333
864.058716,322
864.176208,330
864.29364,307
864.411194,328
864.528687,326
864.646118,306
864.763611,313
864.881042,319
864.998535,323
865.116028,328
865.233459,310
865.350891,324
865.468384,319
865.585754,319
865.703308,329
865.820679,336
865.938171,317
866.055542,327
866.173035,319
866.290466,310
866.407837,318
866.52533,327
866.6427,321
866.760071,322
866.877563,328
866.994934,328
867.112305,314
867.229736,312
867.347107,305
867.464539,339
867.58197,322
867.699341,333
867.81665,312
867.934082,317
868.051453,329
868.168823,316
868.286194,315
868.403564,331
868.520935,320
868.638306,330
868.755676,324
868.872986,313
868.990295,322
869.107727,330
869.225037,312
869.342346,336
869.459717,321
869.577026,331
869.694336,323
869.811707,307
869.929016,325
870.046326,329
870.163635,322
870.280945,328
870.398254,315
870.515564,328
870.632812,334
870.750183,329
870.867432,322
870.984741,321
871.102051,318
871.219299,344
871.336609,320
871.453918,322
871.571106,335
871.688416,320
871.805664,328
871.922852,337
872.040222,328
872.157471,336
872.274719,321
872.391968,326
872.509155,328
872.626465,340
872.743652,317
872.860962,337
872.978149,312
873.095337,323
873.212646,323
873.329834,329
873.44696,329
873.564209,330
873.681396,323
873.798645,337
873.915894,316
874.03302,328
874.150208,305
874.267456,323
874.384583,305
874.501831,322
874.618958,310
874.736145,331
874.853333,330
874.970459,335
875.087646,328
875.204834,330
875.32196,331
875.439148,324
875.556274,318
875.673401,321
875.790527,317
875.907715,346
876.024841,331
876.141968,332
876.259094,326
876.376282,319
876.493347,312
876.610474,341
876.7276,310
876.844727,319
876.961853,327
877.078918,319
877.195984,331
877.313171,325
877.430237,312
877.547302,328
877.664368,319
877.781433,336
877.898499,327
878.015625,322
878.13269,326
878.249695,335
878.366821,327
878.483887,322
878.600952,325
878.717957,319
878.834961,325
878.952087,315
879.069092,323
879.186157,323
879.303162,324
879.420227,324
879.537231,315
879.654236,319
879.77124,322
879.888306,319
880.005249,320
880.122314,330
880.239319,315
880.356323,322
880.473328,305
880.590271,330
880.707275,330
880.824341,325
880.941284,320
881.058228,313
881.175232,318
881.292236,321
881.40918,316
881.526123,312
881.643066,320
881.760071,326
881.877014,326
881.993958,321
882.11084,325
882.227783,329
882.344727,324
882.46167,317
882.578613,314
882.695618,314
882.812439,329
882.929382,330
883.046326,331
883.163208,310
883.280151,331
883.397034,319
883.513916,327
883.630798,316
883.747742,325
883.864563,333
883.981506,305
884.098389,342
884.21521,318
884.332153,313
884.448975,313
884.565796,324
884.682678,332
884.7995,327
884.916443,318
885.033264,332
885.150085,335
885.266968,332
885.383789,333
885.500671,337
885.617493,326
885.734314,334
885.851196,340
885.967896,327
886.084717,326
886.201599,334
886.318359,335
886.435181,345
886.552002,326
886.668762,332
886.785645,331
886.902344,328
887.019165,330
887.135925,336
887.252747,323
887.369446,343
887.486267,327
887.603027,335
887.719788,340
887.836548,330
887.953247,327
888.070068,331
888.186829,318
888.303528,326
888.420288,313
888.536987,315
888.653687,311
888.770447,324
888.887146,314
889.003967,324
889.120667,327
889.237305,338
889.354065,313
889.470703,317
889.587463,329
889.704163,325
889.820862,310
889.937561,308
890.054199,308
890.170837,316
890.287598,322
890.404236,329
890.520874,321
890.637634,333
890.754211,313
890.87085,312
890.987549,318
891.104187,312
891.220886,321
891.337463,328
891.454102,320
891.57074,322
891.687378,326
891.804077,319
891.920654,314
892.037231,324
892.15387,317
892.270447,326
892.387085,306
892.503723,327
892.6203,313
892.736877,315
892.853516,323
892.970032,314
893.08667,316
893.203186,318
893.319763,310
893.43634,325
893.552917,320
893.669556,335
893.786011,317
893.902588,330
894.019165,335
894.135681,317
894.252197,294
894.368835,333
894.485291,306
894.601868,320
894.718384,326
894.8349,318
894.951355,321
895.067932,321
895.184448,334
895.300964,320
895.417419,295
895.533936,323
895.650452,309
895.766907,322
895.883423,314
895.999878,323
896.116333,303
896.232849,316
896.349304,318
896.465759,320
896.582214,310
896.698669,308
896.815125,315
896.931641,318
897.048035,323
897.164551,311
897.280884,324
897.397339,319
897.513794,320
897.630249,314
897.746582,319
897.863098,322
897.979431,316
898.095886,327
898.212341,313
898.328674,322
898.445129,313
898.561462,328
898.677795,322
898.794312,324
898.910645,309
899.026978,331
899.143433,310
899.259766,333
899.37616,314
899.492493,322
899.608765,302
899.725159,322
899.841553,321
899.957947,316
900.07428,302
900.190552,317
900.306946,308
900.423157,324
900.53949,315
900.655884,321
900.772156,319
900.888489,328
901.004822,314
901.121033,322
901.237366,312
901.353699,330
901.46991,330
901.586304,340
901.702515,299
901.818787,319
901.93512,322
902.051331,331
902.167603,313
902.283875,331
902.400085,317
902.516418,326
902.632629,317
902.74884,342
902.865112,323
902.981384,331
903.097595,318
903.213867,328
903.330017,314
903.446289,322
903.5625,319
903.67865,322
903.794922,320
903.911072,328
904.027344,327
904.143494,328
904.259705,311
904.375916,327
904.492065,319
904.608215,327
904.724426,322
904.840576,321
904.956726,318
905.072876,332
905.189087,305
905.305176,318
905.421387,320
905.537537,314
905.653687,325
905.769775,333
905.885925,308
906.002014,338
906.118164,303
906.234314,320
906.350403,309
906.466492,308
906.582642,322
906.69873,311
906.814758,312
906.930908,334
907.046936,318
907.163086,317
907.279175,312
907.395264,338
907.511353,315
907.62738,314
907.743408,312
907.859497,334
907.975525,309
908.091553,331
908.207703,316
908.32373,315
908.439758,319
908.555786,310
908.671814,315
908.787842,316
908.90387,326
909.019775,310
909.135864,306
909.251892,328
909.367859,319
909.483826,325
909.599854,324
909.715881,311
909.831848,322
909.947815,316
910.063782,324
910.179749,320
910.295776,324
910.411743,326
910.527649,304
910.643616,325
910.759583,317
910.875488,320
910.991455,325
911.107361,308
911.223267,331
911.339294,322
911.4552,318
911.571106,310
911.687073,311
911.802979,329
911.918823,301
912.034729,323
912.150635,322
912.266602,315
912.382446,316
912.498352,327
912.614197,301
912.730103,305
912.846008,305
792.44574,382
792.56488,403
792.68396,450
792.80304,422
792.92218,373
793.041199,350
793.160339,357
793.279419,366
793.398499,370
793.517578,341
793.636658,355
793.755737,377
793.874817,382
793.993896,381
794.112976,371
794.232056,366
794.351074,356
794.470215,363
794.589233,349
794.708313,362
794.827393,347
794.946411,348
795.065552,354
795.18457,354
795.303589,365
795.422668,339
795.541687,346
795.660767,349
795.779846,344
795.898865,349
796.017883,348
796.136963,336
796.255981,346
796.375061,339
796.49408,341
796.613037,355
796.732117,328
796.851135,331
796.970154,353
797.089233,324
797.208191,343
797.327271,333
797.446228,340
797.565186,342
797.684265,345
797.803223,358
797.922241,341
798.04126,327
798.160278,339
798.279297,327
798.398315,346
798.517273,337
798.636292,339
798.75531,343
798.874268,339
798.993286,360
799.112244,343
799.231323,329
799.350281,340
799.469238,330
799.588257,342
799.707153,343
799.826111,345
799.945129,341
800.064087,336
800.183044,331
800.302063,341
800.421021,338
800.539978,330
800.658936,340
800.777893,340
800.896912,324
801.015747,329
801.134705,320
801.253723,346
801.37262,331
801.491638,317
801.610535,324
801.729492,329
801.84845,351
801.967407,325
802.086243,334
802.205261,327
802.324158,310
802.443115,332
802.562073,321
802.680969,330
802.799927,327
802.918762,328
803.037659,328
803.156677,334
803.275574,328
803.39447,343
803.513428,326
803.632263,345
803.751221,323
803.870117,340
803.989014,329
804.107971,342
804.226746,324
804.345642,338
804.4646,335
804.583496,330
804.702393,326
804.821228,334
804.940125,333
805.059021,306
805.177917,331
805.296814,324
805.415649,330
805.534546,334
805.653442,318
805.772278,330
805.891113,321
806.01001,328
806.128906,320
806.247742,332
806.366577,330
806.485413,314
806.604309,326
806.723145,335
806.84198,319
806.960876,338
807.079712,328
807.198486,329
807.317383,323
807.436218,339
807.554993,331
807.673889,338
807.792725,333
807.91156,338
808.030396,329
808.14917,328
808.268005,326
808.386841,334
808.505676,340
808.624451,331
808.743286,328
808.862122,334
808.980896,331
809.099731,330
809.218506,339
809.337341,320
809.456116,319
809.57489,323
809.693726,330
809.8125,325
809.931274,330
810.050049,325
810.168884,334
810.287659,335
810.406372,323
810.525269,318
810.643982,321
810.762756,338
810.881531,327
811.000305,326
811.11908,326
811.237854,320
811.356567,321
811.475403,333
811.594116,331
811.71283,325
811.831604,338
811.950378,338
812.069153,326
812.187927,335
812.30658,327
812.425415,322
812.544128,328
812.662781,322
812.781616,322
812.900269,328
813.019043,326
813.137756,329
813.256531,314
813.375244,313
813.493896,321
813.612671,337
813.731384,311
813.850037,325
813.96875,320
814.087524,327
814.206238,332
814.324951,318
814.443604,337
814.562256,324
814.68103,320
814.799683,325
814.918335,327
815.037109,320
815.155762,322
815.274475,340
815.393188,330
815.511841,333
815.630554,327
815.749146,329
815.867859,315
815.986572,341
816.105164,313
816.223877,334
816.342529,329
816.461182,334
816.579895,318
816.698486,317
816.817139,324
816.935791,337
817.054504,328
817.173096,342
817.291748,329
817.4104,331
817.529053,317
817.647644,335
817.766235,310
817.884949,327
818.00354,324
818.122192,316
818.240845,334
818.359436,325
818.478088,328
818.59668,324
818.715271,318
818.833923,325
818.952515,323
819.071106,315
819.189758,328
819.30835,327
819.426941,324
819.545532,344
819.664124,316
819.782715,326
819.901306,329
820.019897,316
820.138489,319
820.25708,332
820.375671,324
820.494202,328
820.612732,322
820.731384,317
820.849915,317
820.968506,333
821.087097,322
821.205627,327
821.324158,322
821.442749,327
821.561279,320
821.679871,321
821.798401,319
821.916931,322
822.035461,318
822.154053,320
822.272583,321
822.391174,337
822.509583,324
822.628174,319
822.746704,316
822.865234,329
822.983765,324
823.102295,326
823.220825,320
823.339294,314
823.457825,305
823.576355,321
823.694824,316
823.813354,335
823.931885,318
824.050354,309
824.168884,319
824.287354,317
824.405823,318
824.524353,320
824.642822,314
824.761353,334
824.879822,309
824.998291,318
825.116699,318
825.235291,319
825.353699,319
825.472168,314
825.590637,322
825.709106,315
825.827576,313
825.946045,320
826.064453,326
826.182983,317
826.301392,318
826.4198,319
826.53833,313
826.656738,321
826.775208,318
826.893677,313
827.012024,320
827.130493,333
827.248962,312
827.36731,319
827.485779,318
827.604248,308
827.722595,316
827.841064,308
827.959412,311
828.077942,326
828.196289,313
828.314636,320
828.433105,318
828.551514,337
828.669861,327
828.78833,315
828.906677,321
829.025085,331
829.143433,327
829.261841,306
829.38031,313
829.498657,319
829.617004,321
829.735413,335
829.85376,313
829.972107,324
830.090515,318
830.208862,323
830.327209,317
830.445557,315
830.563904,319
830.682312,320
830.800659,310
830.919006,317
831.037354,326
831.155701,305
831.274048,323
831.392395,336
831.51062,316
831.629028,319
831.747314,306
831.865662,330
831.984009,297
832.102356,344
832.220642,324
832.338928,316
832.457275,302
832.575623,314
832.693909,312
832.812134,319
832.930481,314
833.048828,328
833.167114,312
833.2854,315
833.403687,313
833.521973,321
833.640259,312
833.758545,323
833.876831,321
833.995056,318
834.113281,328
834.231628,328
834.349915,312
834.468201,319
834.586426,317
834.704651,321
834.822998,315
834.941162,315
835.059448,342
835.177673,312
835.295959,307
835.414246,308
835.53241,304
835.650635,322
835.768921,316
835.887146,324
836.005371,321
836.123596,322
836.241821,316
836.360046,302
836.478271,314
836.596497,323
836.714722,315
836.832886,316
836.95105,323
837.069336,324
837.1875,324
837.305725,323
837.423889,327
837.542053,327
837.660339,314
837.778503,313
837.896667,311
838.014832,327
838.132996,311
838.25116,318
838.369385,316
838.487488,325
838.605713,314
838.723877,325
838.84198,319
838.960205,323
839.078308,320
839.196472,328
839.314636,324
839.4328,314
839.550964,322
839.669067,313
839.787231,330
839.905396,336
840.023499,320
840.141602,334
840.259766,320
840.377869,331
840.495972,329
840.614136,331
840.732239,323
840.850342,319
840.968445,316
841.086548,326
841.204651,335
841.322754,331
841.440918,329
841.55896,319
841.677002,326
841.795166,325
841.913208,322
842.031311,333
842.149353,324
842.267456,337
842.385498,313
842.503601,336
842.621643,322
842.739746,327
842.857788,310
842.97583,334
843.093933,303
843.211975,333
843.330017,334
843.44812,327
843.566101,325
843.684204,325
843.802246,321
843.920227,317
844.038269,327
844.156311,325
844.274292,325
844.392395,314
844.510376,321
844.628357,326
844.74646,309
844.864441,327
844.982422,323
845.100403,337
845.218384,317
845.336426,314
845.454468,321
845.572449,322
845.69043,334
845.808411,322
845.926453,325
846.044373,322
846.162354,321
846.280396,323
846.398315,320
846.516296,327
846.634216,315
846.752197,332
846.870178,335
846.988098,321
847.106079,330
847.22406,324
847.34198,323
847.4599,331
847.577881,318
847.695801,326
847.813782,323
847.931641,307
848.049561,336
848.167603,322
848.285461,306
848.403381,327
848.521362,337
848.639221,327
848.75708,316
848.875,324
848.99292,322
849.110901,322
849.22876,323
849.34668,328
849.464539,312
849.582458,327
849.700317,309
849.818176,331
849.936096,332
850.053955,322
850.171875,327
850.289673,326
850.407593,309
850.525452,307
850.643311,319
850.761169,322
850.878967,319
850.996887,322
851.114746,320
851.232544,317
851.350403,324
851.468262,330
851.58606,323
851.703979,326
851.821777,313
851.939636,324
852.057434,319
852.175232,337
852.293091,319
852.410889,339
852.528687,323
852.646545,333
852.764343,320
852.88208,336
852.999939,316
853.117676,319
853.235535,318
853.353271,327
853.471069,321
853.588928,321
853.706604,317
853.824402,327
853.9422,319
854.059998,321
854.177734,320
854.295532,325
854.413269,320
854.531006,323
854.648804,327
854.766541,319
854.884277,323
855.002014,332
855.119751,313
855.237549,334
855.355225,318
855.473022,330
855.590698,310
855.708435,325
855.826172,318
855.943848,333
856.061646,312
856.179321,332
856.296997,321
856.414795,322
856.53241,323
856.650085,318
856.767822,340
856.885559,322
857.003174,324
857.120911,322
857.238586,332
857.356201,326
857.473938,327
857.591614,328
857.709351,329
857.826965,321
857.944641,332
858.062317,329
858.179993,329
858.297668,325
858.415283,314
858.532959,334
858.650574,325
858.768188,328
858.885803,314
859.003479,314
859.121094,311
859.23877,331
859.356384,317
859.473999,320
859.591675,313
859.709229,323
859.826843,329
859.944458,321
860.062012,325
860.179626,324
860.297302,310
860.414856,322
860.532471,316
860.650024,329
860.767639,312
860.885193,317
861.002808,329
861.120361,316
861.237976,309
861.35553,329
861.473022,322
861.590698,332
861.708191,325
861.825745,326
861.943298,306
862.060852,330
862.178406,317
862.295959,308
862.413513,317
862.531006,328
862.64856,308
862.766113,326
862.883667,316
863.00116,333
863.118713,315
863.236206,322
863.353699,327
863.471252,324
863.588745,328
863.706177,324
863.82373,306
863.941162,331
864.058716,328
864.176208,317
864.29364,309
864.411194,326
864.528687,332
864.646118,322
864.763611,321
864.881042,327
864.998535,315
865.116028,330
865.233459,313
865.350891,304
865.468384,328
865.585754,321
865.703308,332
865.820679,311
865.938171,318
866.055542,317
866.173035,319
866.290466,330
866.407837,308
866.52533,317
866.6427,322
866.760071,331
866.877563,329
866.994934,337
867.112305,316
867.229736,323
867.347107,311
867.464539,334
867.58197,308
867.699341,317
867.81665,326
867.934082,314
868.051453,311
868.168823,319
868.286194,316
868.403564,321
868.520935,328
868.638306,329
868.755676,327
868.872986,308
868.990295,327
869.107727,324
869.225037,329
869.342346,316
869.459717,321
869.577026,337
869.694336,329
869.811707,336
869.929016,325
870.046326,338
870.163635,324
870.280945,309
870.398254,323
870.515564,314
870.632812,319
870.750183,319
870.867432,323
870.984741,323
871.102051,325
871.219299,333
871.336609,327
871.453918,323
871.571106,328
871.688416,317
871.805664,304
871.922852,327
872.040222,336
872.157471,330
872.274719,317
872.391968,326
872.509155,322
872.626465,324
872.743652,327
872.860962,322
872.978149,312
873.095337,321
873.212646,316
873.329834,322
873.44696,322
873.564209,308
873.681396,338
873.798645,329
873.915894,321
874.03302,323
874.150208,315
874.267456,322
874.384583,332
874.501831,323
874.618958,318
874.736145,335
874.853333,326
874.970459,323
875.087646,336
875.204834,332
875.32196,312
875.439148,322
875.556274,310
875.673401,323
875.790527,325
875.907715,332
876.024841,321
876.141968,329
876.259094,322
876.376282,329
876.493347,316
876.610474,319
876.7276,319
876.844727,323
876.961853,317
877.078918,318
877.195984,327
877.313171,317
877.430237,314
877.547302,324
877.664368,317
877.781433,327
877.898499,326
878.015625,323
878.13269,321
878.249695,305
878.366821,315
878.483887,321
878.600952,314
878.717957,331
878.834961,308
878.952087,327
879.069092,314
879.186157,321
879.303162,320
879.420227,329
879.537231,314
879.654236,317
879.77124,322
879.888306,320
880.005249,322
880.122314,308
880.239319,321
880.356323,328
880.473328,321
880.590271,329
880.707275,315
880.824341,321
880.941284,322
881.058228,319
881.175232,319
881.292236,324
881.40918,318
881.526123,318
881.643066,314
881.760071,311
881.877014,315
881.993958,326
882.11084,317
882.227783,323
882.344727,310
882.46167,326
882.578613,323
882.695618,339
882.812439,312
882.929382,328
883.046326,317
883.163208,323
883.280151,316
883.397034,330
883.513916,331
883.630798,309
883.747742,325
883.864563,333
883.981506,321
884.098389,320
884.21521,324
884.332153,321
884.448975,316
884.565796,335
884.682678,320
884.7995,335
884.916443,340
885.033264,332
885.150085,332
885.266968,330
885.383789,329
885.500671,332
885.617493,342
885.734314,329
885.851196,319
885.967896,333
886.084717,319
886.201599,333
886.318359,319
886.435181,327
886.552002,323
886.668762,333
886.785645,319
886.902344,320
887.019165,318
887.135925,318
887.252747,328
887.369446,314
887.486267,325
887.603027,339
887.719788,322
887.836548,342
887.953247,321
888.070068,331
888.186829,317
888.303528,338
888.420288,315
888.536987,317
888.653687,319
888.770447,329
888.887146,316
889.003967,324
889.120667,311
889.237305,329
889.354065,312
889.470703,315
889.587463,320
889.704163,325
889.820862,312
889.937561,325
890.054199,320
890.170837,316
890.287598,314
890.404236,319
890.520874,317
890.637634,335
890.754211,323
890.87085,330
890.987549,332
891.104187,342
891.220886,313
891.337463,322
891.454102,321
891.57074,313
891.687378,320
891.804077,328
891.920654,308
892.037231,309
892.15387,313
892.270447,310
892.387085,320
892.503723,308
892.6203,309
892.736877,329
892.853516,315
892.970032,332
893.08667,307
893.203186,321
893.319763,324
893.43634,324
893.552917,328
893.669556,306
893.786011,324
893.902588,321
894.019165,312
894.135681,318
894.252197,320
894.368835,321
894.485291,317
894.601868,313
894.718384,313
894.8349,311
894.951355,303
895.067932,308
895.184448,304
895.300964,318
895.417419,306
895.533936,325
895.650452,306
895.766907,322
895.883423,305
895.999878,320
896.116333,302
896.232849,336
896.349304,317
896.465759,330
896.582214,306
896.698669,323
896.815125,305
896.931641,310
897.048035,315
897.164551,310
897.280884,308
897.397339,318
897.513794,326
897.630249,317
897.746582,313
897.863098,313
897.979431,328
898.095886,322
898.212341,310
898.328674,320
898.445129,320
898.561462,324
898.677795,314
898.794312,323
898.910645,305
899.026978,314
899.143433,316
899.259766,317
899.37616,320
899.492493,319
899.608765,307
899.725159,313
899.841553,313
899.957947,319
900.07428,325
900.190552,326
900.306946,316
900.423157,325
900.53949,335
900.655884,321
900.772156,312
900.888489,325
901.004822,315
901.121033,315
901.237366,300
901.353699,322
901.46991,316
901.586304,324
901.702515,315
901.818787,315
901.93512,309
902.051331,319
902.167603,316
902.283875,323
902.400085,323
902.516418,329
902.632629,329
902.74884,327
902.865112,328
902.981384,335
903.097595,322
903.213867,320
903.330017,323
903.446289,321
903.5625,317
903.67865,326
903.794922,319
903.911072,324
904.027344,313
904.143494,327
904.259705,318
904.375916,317
904.492065,310
904.608215,328
904.724426,320
904.840576,321
904.956726,329
905.072876,316
905.189087,320
905.305176,318
905.421387,314
905.537537,317
905.653687,306
905.769775,311
905.885925,315
906.002014,321
906.118164,312
906.234314,308
906.350403,322
906.466492,316
906.582642,304
906.69873,329
906.814758,320
906.930908,311
907.046936,314
907.163086,315
907.279175,328
907.395264,315
907.511353,302
907.62738,327
907.743408,322
907.859497,321
907.975525,313
908.091553,326
908.207703,310
908.32373,324
908.439758,310
908.555786,316
908.671814,322
908.787842,326
908.90387,301
909.019775,317
909.135864,316
909.251892,314
909.367859,313
909.483826,317
909.599854,320
909.715881,319
909.831848,319
909.947815,326
910.063782,305
910.179749,310
910.295776,315
910.411743,314
910.527649,320
910.643616,314
910.759583,318
910.875488,313
910.991455,324
911.107361,313
911.223267,306
911.339294,325
911.4552,303
911.571106,311
911.687073,304
911.802979,329
911.918823,315
912.034729,319
912.150635,309
912.266602,313
912.382446,309
912.498352,311
912.614197,315
912.730103,317
912.846008,318
