792.44574,317
792.56488,362
792.68396,411
792.80304,385
792.92218,330
793.041199,320
793.160339,332
793.279419,318
793.398499,343
793.517578,320
793.636658,329
793.755737,332
793.874817,362
793.993896,340
794.112976,351
794.232056,327
794.351074,325
794.470215,330
794.589233,342
794.708313,342
794.827393,325
794.946411,340
795.065552,344
795.18457,339
795.303589,353
795.422668,327
795.541687,338
795.660767,324
795.779846,338
795.898865,318
796.017883,328
796.136963,326
796.255981,321
796.375061,325
796.49408,335
796.613037,338
796.732117,338
796.851135,346
796.970154,335
797.089233,332
797.208191,339
797.327271,335
797.446228,328
797.565186,332
797.684265,334
797.803223,323
797.922241,331
798.04126,335
798.160278,336
798.279297,319
798.398315,329
798.517273,324
798.636292,338
798.75531,335
798.874268,332
798.993286,321
799.112244,333
799.231323,334
799.350281,334
799.469238,319
799.588257,320
799.707153,329
799.826111,340
799.945129,326
800.064087,342
800.183044,325
800.302063,326
800.421021,338
800.539978,323
800.658936,342
800.777893,349
800.896912,327
801.015747,329
801.134705,327
801.253723,319
801.37262,324
801.491638,327
801.610535,338
801.729492,321
801.84845,334
801.967407,331
802.086243,335
802.205261,346
802.324158,342
802.443115,333
802.562073,318
802.680969,335
802.799927,334
802.918762,346
803.037659,317
803.156677,339
803.275574,334
803.39447,318
803.513428,342
803.632263,330
803.751221,339
803.870117,335
803.989014,338
804.107971,329
804.226746,335
804.345642,331
804.4646,343
804.583496,316
804.702393,329
804.821228,322
804.940125,323
805.059021,351
805.177917,345
805.296814,318
805.415649,324
805.534546,334
805.653442,338
805.772278,353
805.891113,329
806.01001,339
806.128906,321
806.247742,321
806.366577,326
806.485413,337
806.604309,332
806.723145,314
806.84198,333
806.960876,327
807.079712,337
807.198486,329
807.317383,336
807.436218,334
807.554993,339
807.673889,336
807.792725,331
807.91156,341
808.030396,325
808.14917,336
808.268005,319
808.386841,330
808.505676,339
808.624451,334
808.743286,318
808.862122,344
808.980896,345
809.099731,337
809.218506,345
809.337341,318
809.456116,324
809.57489,328
809.693726,357
809.8125,345
809.931274,342
810.050049,331
810.168884,332
810.287659,338
810.406372,342
810.525269,338
810.643982,336
810.762756,335
810.881531,340
811.000305,330
811.11908,322
811.237854,328
811.356567,327
811.475403,332
811.594116,319
811.71283,337
811.831604,328
811.950378,339
812.069153,333
812.187927,340
812.30658,345
812.425415,342
812.544128,331
812.662781,339
812.781616,339
812.900269,333
813.019043,312
813.137756,330
813.256531,332
813.375244,337
813.493896,341
813.612671,325
813.731384,344
813.850037,316
813.96875,335
814.087524,347
814.206238,327
814.324951,337
814.443604,325
814.562256,341
814.68103,340
814.799683,335
814.918335,335
815.037109,345
815.155762,342
815.274475,327
815.393188,324
815.511841,335
815.630554,337
815.749146,332
815.867859,323
815.986572,334
816.105164,345
816.223877,328
816.342529,331
816.461182,341
816.579895,327
816.698486,340
816.817139,329
816.935791,330
817.054504,336
817.173096,337
817.291748,336
817.4104,338
817.529053,313
817.647644,337
817.766235,327
817.884949,335
818.00354,304
818.122192,331
818.240845,315
818.359436,335
818.478088,315
818.59668,325
818.715271,319
818.833923,333
818.952515,325
819.071106,324
819.189758,311
819.30835,326
819.426941,318
819.545532,325
819.664124,316
819.782715,325
819.901306,309
820.019897,313
820.138489,312
820.25708,322
820.375671,334
820.494202,320
820.612732,322
820.731384,326
820.849915,320
820.968506,317
821.087097,329
821.205627,324
821.324158,321
821.442749,315
821.561279,303
821.679871,329
821.798401,331
821.916931,320
822.035461,334
822.154053,330
822.272583,322
822.391174,323
822.509583,312
822.628174,334
822.746704,330
822.865234,320
822.983765,320
823.102295,329
823.220825,326
823.339294,310
823.457825,299
823.576355,316
823.694824,317
823.813354,331
823.931885,326
824.050354,321
824.168884,325
824.287354,307
824.405823,323
824.524353,298
824.642822,338
824.761353,314
824.879822,316
824.998291,337
825.116699,326
825.235291,316
825.353699,317
825.472168,329
825.590637,319
825.709106,321
825.827576,325
825.946045,322
826.064453,328
826.182983,317
826.301392,310
826.4198,323
826.53833,329
826.656738,310
826.775208,319
826.893677,322
827.012024,315
827.130493,314
827.248962,316
827.36731,318
827.485779,316
827.604248,308
827.722595,319
827.841064,328
827.959412,323
828.077942,311
828.196289,320
828.314636,317
828.433105,305
828.551514,320
828.669861,324
828.78833,319
828.906677,318
829.025085,319
829.143433,317
829.261841,320
829.38031,315
829.498657,318
829.617004,306
829.735413,309
829.85376,323
829.972107,321
830.090515,317
830.208862,326
830.327209,302
830.445557,323
830.563904,314
830.682312,329
830.800659,308
830.919006,327
831.037354,321
831.155701,327
831.274048,310
831.392395,323
831.51062,316
831.629028,309
831.747314,326
831.865662,322
831.984009,299
832.102356,321
832.220642,311
832.338928,323
832.457275,319
832.575623,320
832.693909,312
832.812134,316
832.930481,312
833.048828,316
833.167114,314
833.2854,308
833.403687,313
833.521973,326
833.640259,313
833.758545,306
833.876831,330
833.995056,313
834.113281,323
834.231628,326
834.349915,318
834.468201,312
834.586426,327
834.704651,314
834.822998,317
834.941162,323
835.059448,315
835.177673,323
835.295959,318
835.414246,325
835.53241,317
835.650635,307
835.768921,313
835.887146,316
836.005371,303
836.123596,300
836.241821,323
836.360046,307
836.478271,308
836.596497,314
836.714722,317
836.832886,314
836.95105,311
837.069336,316
837.1875,315
837.305725,324
837.423889,311
837.542053,326
837.660339,316
837.778503,313
837.896667,321
838.014832,327
838.132996,336
838.25116,330
838.369385,329
838.487488,313
838.605713,308
838.723877,319
838.84198,325
838.960205,333
839.078308,317
839.196472,338
839.314636,311
839.4328,322
839.550964,319
839.669067,318
839.787231,313
839.905396,316
840.023499,307
840.141602,331
840.259766,322
840.377869,325
840.495972,322
840.614136,321
840.732239,313
840.850342,307
840.968445,314
841.086548,333
841.204651,321
841.322754,323
841.440918,319
841.55896,329
841.677002,308
841.795166,323
841.913208,322
842.031311,312
842.149353,327
842.267456,323
842.385498,318
842.503601,320
842.621643,316
842.739746,321
842.857788,314
842.97583,324
843.093933,314
843.211975,311
843.330017,325
843.44812,325
843.566101,327
843.684204,317
843.802246,312
843.920227,315
844.038269,311
844.156311,322
844.274292,321
844.392395,304
844.510376,315
844.628357,313
844.74646,315
844.864441,334
844.982422,317
845.100403,306
845.218384,315
845.336426,326
845.454468,321
845.572449,318
845.69043,322
845.808411,320
845.926453,317
846.044373,318
846.162354,308
846.280396,326
846.398315,314
846.516296,317
846.634216,322
846.752197,323
846.870178,318
846.988098,322
847.106079,327
847.22406,316
847.34198,310
847.4599,322
847.577881,314
847.695801,324
847.813782,320
847.931641,317
848.049561,315
848.167603,314
848.285461,315
848.403381,316
848.521362,298
848.639221,324
848.75708,309
848.875,313
848.99292,318
849.110901,314
849.22876,309
849.34668,310
849.464539,304
849.582458,328
849.700317,307
849.818176,324
849.936096,318
850.053955,321
850.171875,320
850.289673,308
850.407593,326
850.525452,320
850.643311,314
850.761169,329
850.878967,302
850.996887,315
851.114746,311
851.232544,335
851.350403,311
851.468262,327
851.58606,327
851.703979,288
851.821777,333
851.939636,308
852.057434,319
852.175232,322
852.293091,299
852.410889,304
852.528687,319
852.646545,325
852.764343,323
852.88208,325
852.999939,330
853.117676,319
853.235535,303
853.353271,323
853.471069,302
853.588928,326
853.706604,321
853.824402,318
853.9422,322
854.059998,313
854.177734,313
854.295532,316
854.413269,304
854.531006,324
854.648804,321
854.766541,319
854.884277,306
855.002014,309
855.119751,300
855.237549,314
855.355225,309
855.473022,327
855.590698,312
855.708435,328
855.826172,315
855.943848,313
856.061646,314
856.179321,318
856.296997,308
856.414795,302
856.53241,329
856.650085,315
856.767822,308
856.885559,312
857.003174,316
857.120911,314
857.238586,308
857.356201,313
857.473938,325
857.591614,310
857.709351,318
857.826965,328
857.944641,311
858.062317,321
858.179993,314
858.297668,299
858.415283,321
858.532959,325
858.650574,321
858.768188,319
858.885803,312
859.003479,315
859.121094,316
859.23877,317
859.356384,322
859.473999,316
859.591675,322
859.709229,316
859.826843,311
859.944458,324
860.062012,323
860.179626,315
860.297302,321
860.414856,308
860.532471,324
860.650024,313
860.767639,320
860.885193,320
861.002808,328
861.120361,312
861.237976,315
861.35553,303
861.473022,317
861.590698,329
861.708191,297
861.825745,310
861.943298,309
862.060852,318
862.178406,325
862.295959,305
862.413513,315
862.531006,321
862.64856,321
862.766113,313
862.883667,319
863.00116,321
863.118713,292
863.236206,311
863.353699,318
863.471252,316
863.588745,311
863.706177,320
863.82373,313
863.941162,320
864.058716,301
864.176208,317
864.29364,326
864.411194,327
864.528687,304
864.646118,315
864.763611,323
864.881042,312
864.998535,301
865.116028,315
865.233459,313
865.350891,319
865.468384,320
865.585754,323
865.703308,319
865.820679,315
865.938171,316
866.055542,318
866.173035,313
866.290466,318
866.407837,317
866.52533,319
866.6427,306
866.760071,322
866.877563,322
866.994934,316
867.112305,314
867.229736,316
867.347107,306
867.464539,314
867.58197,314
867.699341,318
867.81665,309
867.934082,318
868.051453,320
868.168823,330
868.286194,323
868.403564,315
868.520935,305
868.638306,312
868.755676,303
868.872986,315
868.990295,321
869.107727,330
869.225037,320
869.342346,318
869.459717,307
869.577026,323
869.694336,302
869.811707,319
869.929016,321
870.046326,308
870.163635,315
870.280945,309
870.398254,315
870.515564,322
870.632812,320
870.750183,325
870.867432,308
870.984741,321
871.102051,304
871.219299,325
871.336609,321
871.453918,311
871.571106,317
871.688416,332
871.805664,312
871.922852,315
872.040222,318
872.157471,319
872.274719,327
872.391968,304
872.509155,315
872.626465,328
872.743652,318
872.860962,304
872.978149,320
873.095337,316
873.212646,305
873.329834,322
873.44696,317
873.564209,323
873.681396,323
873.798645,309
873.915894,314
874.03302,329
874.150208,319
874.267456,310
874.384583,320
874.501831,308
874.618958,317
874.736145,318
874.853333,306
874.970459,326
875.087646,335
875.204834,316
875.32196,309
875.439148,318
875.556274,313
875.673401,312
875.790527,308
875.907715,323
876.024841,321
876.141968,314
876.259094,311
876.376282,325
876.493347,326
876.610474,321
876.7276,303
876.844727,326
876.961853,317
877.078918,318
877.195984,303
877.313171,316
877.430237,314
877.547302,309
877.664368,312
877.781433,318
877.898499,322
878.015625,326
878.13269,306
878.249695,325
878.366821,315
878.483887,315
878.600952,309
878.717957,310
878.834961,316
878.952087,307
879.069092,314
879.186157,319
879.303162,308
879.420227,325
879.537231,317
879.654236,333
879.77124,313
879.888306,315
880.005249,317
880.122314,321
880.239319,318
880.356323,328
880.473328,319
880.590271,319
880.707275,325
880.824341,309
880.941284,318
881.058228,315
881.175232,314
881.292236,318
881.40918,307
881.526123,314
881.643066,312
881.760071,317
881.877014,325
881.993958,327
882.11084,318
882.227783,315
882.344727,319
882.46167,323
882.578613,316
882.695618,316
882.812439,317
882.929382,306
883.046326,312
883.163208,314
883.280151,303
883.397034,311
883.513916,298
883.630798,309
883.747742,308
883.864563,318
883.981506,310
884.098389,314
884.21521,317
884.332153,324
884.448975,321
884.565796,322
884.682678,318
884.7995,323
884.916443,323
885.033264,329
885.150085,308
885.266968,321
885.383789,318
885.500671,316
885.617493,309
885.734314,311
885.851196,310
885.967896,312
886.084717,310
886.201599,320
886.318359,309
886.435181,329
886.552002,326
886.668762,316
886.785645,318
886.902344,316
887.019165,306
887.135925,314
887.252747,304
887.369446,316
887.486267,316
887.603027,331
887.719788,313
887.836548,323
887.953247,298
888.070068,305
888.186829,309
888.303528,333
888.420288,326
888.536987,317
888.653687,308
888.770447,329
888.887146,296
889.003967,317
889.120667,302
889.237305,316
889.354065,311
889.470703,323
889.587463,321
889.704163,314
889.820862,322
889.937561,319
890.054199,314
890.170837,327
890.287598,308
890.404236,332
890.520874,324
890.637634,306
890.754211,313
890.87085,329
890.987549,316
891.104187,328
891.220886,327
891.337463,320
891.454102,300
891.57074,320
891.687378,318
891.804077,315
891.920654,315
892.037231,326
892.15387,312
892.270447,337
892.387085,317
892.503723,312
892.6203,306
892.736877,314
892.853516,328
892.970032,319
893.08667,318
893.203186,322
893.319763,314
893.43634,324
893.552917,318
893.669556,315
893.786011,323
893.902588,324
894.019165,323
894.135681,313
894.252197,321
894.368835,317
894.485291,321
894.601868,329
894.718384,340
894.8349,319
894.951355,321
895.067932,313
895.184448,323
895.300964,310
895.417419,311
895.533936,316
895.650452,305
895.766907,311
895.883423,332
895.999878,314
896.116333,312
896.232849,317
896.349304,317
896.465759,331
896.582214,306
896.698669,318
896.815125,317
896.931641,321
897.048035,318
897.164551,321
897.280884,313
897.397339,324
897.513794,310
897.630249,322
897.746582,308
897.863098,322
897.979431,307
898.095886,315
898.212341,316
898.328674,317
898.445129,314
898.561462,315
898.677795,312
898.794312,325
898.910645,300
899.026978,324
899.143433,308
899.259766,319
899.37616,318
899.492493,309
899.608765,313
899.725159,314
899.841553,315
899.957947,305
900.07428,308
900.190552,315
900.306946,324
900.423157,330
900.53949,324
900.655884,333
900.772156,312
900.888489,326
901.004822,315
901.121033,315
901.237366,304
901.353699,316
901.46991,309
901.586304,318
901.702515,323
901.818787,311
901.93512,317
902.051331,315
902.167603,313
902.283875,331
902.400085,320
902.516418,313
902.632629,316
902.74884,319
902.865112,311
902.981384,335
903.097595,311
903.213867,328
903.330017,313
903.446289,315
903.5625,328
903.67865,331
903.794922,321
903.911072,308
904.027344,314
904.143494,316
904.259705,317
904.375916,327
904.492065,306
904.608215,324
904.724426,313
904.840576,329
904.956726,313
905.072876,338
905.189087,317
905.305176,305
905.421387,312
905.537537,319
905.653687,324
905.769775,329
905.885925,322
906.002014,324
906.118164,320
906.234314,320
906.350403,320
906.466492,316
906.582642,305
906.69873,325
906.814758,309
906.930908,312
907.046936,312
907.163086,309
907.279175,312
907.395264,321
907.511353,311
907.62738,316
907.743408,296
907.859497,312
907.975525,314
908.091553,326
908.207703,317
908.32373,321
908.439758,334
908.555786,316
908.671814,313
908.787842,319
908.90387,318
909.019775,325
909.135864,323
909.251892,322
909.367859,322
909.483826,329
909.599854,312
909.715881,318
909.831848,326
909.947815,318
910.063782,325
910.179749,308
910.295776,322
910.411743,324
910.527649,315
910.643616,314
910.759583,328
910.875488,311
910.991455,320
911.107361,316
911.223267,315
911.339294,319
911.4552,313
911.571106,317
911.687073,324
911.802979,321
911.918823,315
912.034729,319
912.150635,306
912.266602,327
912.382446,308
912.498352,318
912.614197,301
912.730103,325
912.846008,313
792.44574,310
792.56488,357
792.68396,393
792.80304,376
792.92218,340
793.041199,317
793.160339,338
793.279419,336
793.398499,344
793.517578,311
793.636658,318
793.755737,343
793.874817,348
793.993896,338
794.112976,340
794.232056,324
794.351074,327
794.470215,320
794.589233,344
794.708313,325
794.827393,335
794.946411,336
795.065552,343
795.18457,331
795.303589,334
795.422668,325
795.541687,318
795.660767,334
795.779846,328
795.898865,328
796.017883,327
796.136963,323
796.255981,334
796.375061,338
796.49408,330
796.613037,327
796.732117,333
796.851135,346
796.970154,325
797.089233,322
797.208191,321
797.327271,320
797.446228,320
797.565186,337
797.684265,332
797.803223,334
797.922241,345
798.04126,340
798.160278,325
798.279297,327
798.398315,336
798.517273,332
798.636292,330
798.75531,329
798.874268,343
798.993286,330
799.112244,341
799.231323,321
799.350281,317
799.469238,317
799.588257,334
799.707153,338
799.826111,337
799.945129,325
800.064087,325
800.183044,330
800.302063,321
800.421021,331
800.539978,322
800.658936,337
800.777893,318
800.896912,322
801.015747,337
801.134705,312
801.253723,333
801.37262,338
801.491638,327
801.610535,338
801.729492,305
801.84845,330
801.967407,324
802.086243,341
802.205261,316
802.324158,338
802.443115,327
802.562073,325
802.680969,334
802.799927,334
802.918762,330
803.037659,316
803.156677,334
803.275574,337
803.39447,328
803.513428,332
803.632263,330
803.751221,335
803.870117,335
803.989014,326
804.107971,310
804.226746,331
804.345642,317
804.4646,347
804.583496,325
804.702393,329
804.821228,339
804.940125,326
805.059021,332
805.177917,329
805.296814,330
805.415649,334
805.534546,333
805.653442,326
805.772278,354
805.891113,327
806.01001,328
806.128906,337
806.247742,318
806.366577,344
806.485413,332
806.604309,331
806.723145,316
806.84198,339
806.960876,352
807.079712,342
807.198486,332
807.317383,340
807.436218,320
807.554993,342
807.673889,335
807.792725,319
807.91156,325
808.030396,329
808.14917,322
808.268005,335
808.386841,323
808.505676,330
808.624451,335
808.743286,326
808.862122,322
808.980896,337
809.099731,345
809.218506,336
809.337341,308
809.456116,343
809.57489,339
809.693726,329
809.8125,329
809.931274,349
810.050049,335
810.168884,330
810.287659,333
810.406372,338
810.525269,334
810.643982,333
810.762756,332
810.881531,347
811.000305,326
811.11908,350
811.237854,332
811.356567,331
811.475403,337
811.594116,346
811.71283,343
811.831604,322
811.950378,342
812.069153,337
812.187927,345
812.30658,332
812.425415,326
812.544128,329
812.662781,335
812.781616,313
812.900269,332
813.019043,337
813.137756,331
813.256531,325
813.375244,326
813.493896,324
813.612671,321
813.731384,332
813.850037,346
813.96875,347
814.087524,337
814.206238,338
814.324951,336
814.443604,333
814.562256,332
814.68103,333
814.799683,322
814.918335,341
815.037109,332
815.155762,336
815.274475,325
815.393188,331
815.511841,335
815.630554,328
815.749146,338
815.867859,334
815.986572,326
816.105164,320
816.223877,330
816.342529,324
816.461182,339
816.579895,338
816.698486,321
816.817139,322
816.935791,339
817.054504,333
817.173096,345
817.291748,330
817.4104,326
817.529053,340
817.647644,346
817.766235,331
817.884949,332
818.00354,333
818.122192,334
818.240845,329
818.359436,322
818.478088,327
818.59668,318
818.715271,319
818.833923,344
818.952515,320
819.071106,329
819.189758,316
819.30835,329
819.426941,333
819.545532,310
819.664124,315
819.782715,311
819.901306,323
820.019897,326
820.138489,318
820.25708,316
820.375671,322
820.494202,314
820.612732,321
820.731384,326
820.849915,315
820.968506,322
821.087097,316
821.205627,322
821.324158,316
821.442749,322
821.561279,324
821.679871,308
821.798401,327
821.916931,313
822.035461,317
822.154053,313
822.272583,319
822.391174,328
822.509583,309
822.628174,320
822.746704,334
822.865234,318
822.983765,324
823.102295,319
823.220825,308
823.339294,330
823.457825,316
823.576355,322
823.694824,311
823.813354,315
823.931885,331
824.050354,320
824.168884,335
824.287354,305
824.405823,316
824.524353,326
824.642822,321
824.761353,338
824.879822,325
824.998291,305
825.116699,322
825.235291,318
825.353699,321
825.472168,308
825.590637,328
825.709106,323
825.827576,322
825.946045,332
826.064453,313
826.182983,310
826.301392,321
826.4198,310
826.53833,332
826.656738,319
826.775208,319
826.893677,315
827.012024,330
827.130493,304
827.248962,323
827.36731,303
827.485779,307
827.604248,327
827.722595,317
827.841064,311
827.959412,333
828.077942,317
828.196289,319
828.314636,320
828.433105,323
828.551514,316
828.669861,311
828.78833,314
828.906677,323
829.025085,312
829.143433,321
829.261841,329
829.38031,311
829.498657,321
829.617004,321
829.735413,319
829.85376,314
829.972107,317
830.090515,318
830.208862,313
830.327209,309
830.445557,327
830.563904,318
830.682312,316
830.800659,321
830.919006,327
831.037354,309
831.155701,310
831.274048,311
831.392395,302
831.51062,303
831.629028,314
831.747314,323
831.865662,324
831.984009,310
832.102356,317
832.220642,320
832.338928,328
832.457275,316
832.575623,314
832.693909,309
832.812134,324
832.930481,317
833.048828,312
833.167114,305
833.2854,312
833.403687,316
833.521973,306
833.640259,323
833.758545,314
833.876831,325
833.995056,311
834.113281,305
834.231628,313
834.349915,315
834.468201,316
834.586426,316
834.704651,324
834.822998,316
834.941162,321
835.059448,320
835.177673,322
835.295959,324
835.414246,320
835.53241,304
835.650635,316
835.768921,314
835.887146,310
836.005371,307
836.123596,309
836.241821,311
836.360046,301
836.478271,306
836.596497,329
836.714722,317
836.832886,313
836.95105,324
837.069336,314
837.1875,315
837.305725,313
837.423889,331
837.542053,329
837.660339,318
837.778503,311
837.896667,319
838.014832,317
838.132996,310
838.25116,320
838.369385,322
838.487488,322
838.605713,315
838.723877,335
838.84198,322
838.960205,315
839.078308,313
839.196472,316
839.314636,322
839.4328,323
839.550964,320
839.669067,308
839.787231,326
839.905396,315
840.023499,316
840.141602,322
840.259766,322
840.377869,324
840.495972,317
840.614136,316
840.732239,317
840.850342,322
840.968445,303
841.086548,319
841.204651,319
841.322754,331
841.440918,312
841.55896,321
841.677002,322
841.795166,323
841.913208,305
842.031311,307
842.149353,317
842.267456,313
842.385498,312
842.503601,309
842.621643,315
842.739746,314
842.857788,314
842.97583,322
843.093933,327
843.211975,308
843.330017,319
843.44812,310
843.566101,312
843.684204,312
843.802246,308
843.920227,322
844.038269,324
844.156311,317
844.274292,333
844.392395,300
844.510376,318
844.628357,312
844.74646,315
844.864441,312
844.982422,305
845.100403,312
845.218384,297
845.336426,326
845.454468,311
845.572449,321
845.69043,309
845.808411,322
845.926453,311
846.044373,303
846.162354,316
846.280396,307
846.398315,295
846.516296,317
846.634216,323
846.752197,319
846.870178,324
846.988098,331
847.106079,338
847.22406,318
847.34198,314
847.4599,314
847.577881,322
847.695801,311
847.813782,324
847.931641,308
848.049561,313
848.167603,312
848.285461,312
848.403381,309
848.521362,322
848.639221,329
848.75708,316
848.875,313
848.99292,322
849.110901,324
849.22876,303
849.34668,323
849.464539,322
849.582458,316
849.700317,319
849.818176,307
849.936096,324
850.053955,307
850.171875,315
850.289673,296
850.407593,303
850.525452,313
850.643311,321
850.761169,314
850.878967,309
850.996887,328
851.114746,303
851.232544,319
851.350403,312
851.468262,321
851.58606,320
851.703979,317
851.821777,318
851.939636,314
852.057434,321
852.175232,305
852.293091,309
852.410889,322
852.528687,331
852.646545,320
852.764343,321
852.88208,318
852.999939,317
853.117676,322
853.235535,319
853.353271,316
853.471069,314
853.588928,314
853.706604,299
853.824402,318
853.9422,305
854.059998,318
854.177734,311
854.295532,317
854.413269,306
854.531006,306
854.648804,317
854.766541,329
854.884277,321
855.002014,313
855.119751,311
855.237549,319
855.355225,313
855.473022,324
855.590698,314
855.708435,305
855.826172,320
855.943848,318
856.061646,325
856.179321,313
856.296997,321
856.414795,323
856.53241,319
856.650085,321
856.767822,317
856.885559,317
857.003174,318
857.120911,306
857.238586,322
857.356201,318
857.473938,315
857.591614,314
857.709351,305
857.826965,320
857.944641,305
858.062317,337
858.179993,316
858.297668,313
858.415283,322
858.532959,318
858.650574,312
858.768188,314
858.885803,319
859.003479,313
859.121094,309
859.23877,312
859.356384,319
859.473999,334
859.591675,333
859.709229,313
859.826843,308
859.944458,316
860.062012,315
860.179626,310
860.297302,317
860.414856,322
860.532471,308
860.650024,315
860.767639,303
860.885193,306
861.002808,299
861.120361,309
861.237976,306
861.35553,323
861.473022,307
861.590698,301
861.708191,320
861.825745,323
861.943298,319
862.060852,309
862.178406,330
862.295959,318
862.413513,323
862.531006,310
862.64856,315
862.766113,316
862.883667,322
863.00116,314
863.118713,311
863.236206,323
863.353699,313
863.471252,310
863.588745,320
863.706177,312
863.82373,325
863.941162,325
864.058716,304
864.176208,327
864.29364,301
864.411194,329
864.528687,315
864.646118,307
864.763611,325
864.881042,318
864.998535,325
865.116028,313
865.233459,316
865.350891,309
865.468384,316
865.585754,315
865.703308,315
865.820679,318
865.938171,327
866.055542,320
866.173035,314
866.290466,330
866.407837,326
866.52533,316
866.6427,326
866.760071,325
866.877563,321
866.994934,323
867.112305,315
867.229736,308
867.347107,320
867.464539,319
867.58197,317
867.699341,309
867.81665,317
867.934082,315
868.051453,324
868.168823,307
868.286194,302
868.403564,314
868.520935,314
868.638306,306
868.755676,303
868.872986,323
868.990295,322
869.107727,317
869.225037,304
869.342346,296
869.459717,317
869.577026,319
869.694336,320
869.811707,320
869.929016,331
870.046326,307
870.163635,311
870.280945,323
870.398254,331
870.515564,320
870.632812,327
870.750183,321
870.867432,317
870.984741,330
871.102051,307
871.219299,321
871.336609,322
871.453918,303
871.571106,314
871.688416,315
871.805664,319
871.922852,323
872.040222,300
872.157471,304
872.274719,319
872.391968,322
872.509155,321
872.626465,312
872.743652,324
872.860962,315
872.978149,323
873.095337,307
873.212646,317
873.329834,317
873.44696,321
873.564209,319
873.681396,305
873.798645,309
873.915894,319
874.03302,321
874.150208,324
874.267456,311
874.384583,321
874.501831,309
874.618958,308
874.736145,303
874.853333,313
874.970459,313
875.087646,328
875.204834,317
875.32196,325
875.439148,319
875.556274,326
875.673401,305
875.790527,311
875.907715,311
876.024841,320
876.141968,316
876.259094,316
876.376282,313
876.493347,325
876.610474,326
876.7276,309
876.844727,317
876.961853,320
877.078918,313
877.195984,320
877.313171,318
877.430237,316
877.547302,305
877.664368,311
877.781433,328
877.898499,309
878.015625,330
878.13269,317
878.249695,319
878.366821,328
878.483887,305
878.600952,340
878.717957,322
878.834961,312
878.952087,319
879.069092,323
879.186157,330
879.303162,302
879.420227,317
879.537231,313
879.654236,319
879.77124,316
879.888306,318
880.005249,319
880.122314,318
880.239319,314
880.356323,316
880.473328,324
880.590271,323
880.707275,315
880.824341,312
880.941284,320
881.058228,323
881.175232,314
881.292236,300
881.40918,314
881.526123,303
881.643066,305
881.760071,328
881.877014,319
881.993958,311
882.11084,317
882.227783,312
882.344727,317
882.46167,320
882.578613,324
882.695618,312
882.812439,321
882.929382,322
883.046326,325
883.163208,316
883.280151,317
883.397034,308
883.513916,323
883.630798,321
883.747742,317
883.864563,315
883.981506,320
884.098389,321
884.21521,321
884.332153,311
884.448975,312
884.565796,302
884.682678,301
884.7995,316
884.916443,306
885.033264,310
885.150085,311
885.266968,317
885.383789,308
885.500671,311
885.617493,323
885.734314,323
885.851196,321
885.967896,320
886.084717,331
886.201599,324
886.318359,319
886.435181,312
886.552002,323
886.668762,309
886.785645,309
886.902344,307
887.019165,317
887.135925,326
887.252747,312
887.369446,322
887.486267,305
887.603027,314
887.719788,314
887.836548,304
887.953247,326
888.070068,323
888.186829,320
888.303528,321
888.420288,315
888.536987,307
888.653687,315
888.770447,318
888.887146,319
889.003967,314
889.120667,313
889.237305,326
889.354065,314
889.470703,332
889.587463,324
889.704163,320
889.820862,314
889.937561,327
890.054199,324
890.170837,320
890.287598,314
890.404236,326
890.520874,321
890.637634,321
890.754211,309
890.87085,320
890.987549,323
891.104187,317
891.220886,317
891.337463,304
891.454102,318
891.57074,315
891.687378,315
891.804077,323
891.920654,305
892.037231,305
892.15387,324
892.270447,309
892.387085,321
892.503723,311
892.6203,315
892.736877,311
892.853516,311
892.970032,307
893.08667,312
893.203186,302
893.319763,317
893.43634,329
893.552917,310
893.669556,323
893.786011,319
893.902588,311
894.019165,321
894.135681,323
894.252197,312
894.368835,312
894.485291,319
894.601868,324
894.718384,325
894.8349,322
894.951355,322
895.067932,312
895.184448,316
895.300964,315
895.417419,315
895.533936,315
895.650452,323
895.766907,321
895.883423,316
895.999878,326
896.116333,324
896.232849,323
896.349304,330
896.465759,319
896.582214,304
896.698669,319
896.815125,312
896.931641,323
897.048035,321
897.164551,311
897.280884,337
897.397339,330
897.513794,318
897.630249,310
897.746582,316
897.863098,323
897.979431,318
898.095886,309
898.212341,321
898.328674,321
898.445129,315
898.561462,315
898.677795,325
898.794312,322
898.910645,322
899.026978,319
899.143433,314
899.259766,317
899.37616,311
899.492493,303
899.608765,317
899.725159,310
899.841553,329
899.957947,316
900.07428,312
900.190552,326
900.306946,321
900.423157,312
900.53949,315
900.655884,316
900.772156,309
900.888489,324
901.004822,318
901.121033,315
901.237366,306
901.353699,327
901.46991,315
901.586304,313
901.702515,303
901.818787,314
901.93512,324
902.051331,313
902.167603,321
902.283875,325
902.400085,321
902.516418,311
902.632629,313
902.74884,320
902.865112,322
902.981384,316
903.097595,317
903.213867,323
903.330017,314
903.446289,311
903.5625,320
903.67865,309
903.794922,319
903.911072,331
904.027344,311
904.143494,317
904.259705,324
904.375916,327
904.492065,321
904.608215,317
904.724426,319
904.840576,325
904.956726,317
905.072876,301
905.189087,318
905.305176,314
905.421387,311
905.537537,315
905.653687,322
905.769775,312
905.885925,334
906.002014,329
906.118164,316
906.234314,313
906.350403,329
906.466492,318
906.582642,320
906.69873,307
906.814758,322
906.930908,319
907.046936,317
907.163086,317
907.279175,316
907.395264,318
907.511353,317
907.62738,310
907.743408,327
907.859497,304
907.975525,321
908.091553,315
908.207703,323
908.32373,305
908.439758,320
908.555786,326
908.671814,307
908.787842,315
908.90387,317
909.019775,319
909.135864,321
909.251892,319
909.367859,319
909.483826,314
909.599854,316
909.715881,308
909.831848,313
909.947815,320
910.063782,312
910.179749,316
910.295776,318
910.411743,317
910.527649,314
910.643616,309
910.759583,305
910.875488,319
910.991455,309
911.107361,320
911.223267,324
911.339294,324
911.4552,306
911.571106,317
911.687073,314
911.802979,327
911.918823,317
912.034729,311
912.150635,333
912.266602,313
912.382446,311
912.498352,312
912.614197,303
912.730103,310
912.846008,316
792.44574,314
792.56488,352
792.68396,400
792.80304,380
792.92218,343
793.041199,314
793.160339,325
793.279419,328
793.398499,341
793.517578,313
793.636658,324
793.755737,332
793.874817,345
793.993896,342
794.112976,329
794.232056,319
794.351074,335
794.470215,333
794.589233,326
794.708313,322
794.827393,326
794.946411,345
795.065552,352
795.18457,342
795.303589,334
795.422668,321
795.541687,326
795.660767,322
795.779846,351
795.898865,332
796.017883,330
796.136963,326
796.255981,341
796.375061,345
796.49408,333
796.613037,336
796.732117,328
796.851135,334
796.970154,314
797.089233,326
797.208191,329
797.327271,325
797.446228,318
797.565186,313
797.684265,336
797.803223,309
797.922241,335
798.04126,337
798.160278,340
798.279297,326
798.398315,338
798.517273,327
798.636292,332
798.75531,343
798.874268,333
798.993286,329
799.112244,319
799.231323,342
799.350281,350
799.469238,345
799.588257,314
799.707153,333
799.826111,334
799.945129,323
800.064087,323
800.183044,321
800.302063,325
800.421021,324
800.539978,329
800.658936,323
800.777893,327
800.896912,328
801.015747,321
801.134705,327
801.253723,322
801.37262,329
801.491638,329
801.610535,305
801.729492,344
801.84845,323
801.967407,330
802.086243,339
802.205261,325
802.324158,335
802.443115,332
802.562073,331
802.680969,332
802.799927,336
802.918762,324
803.037659,336
803.156677,341
803.275574,325
803.39447,316
803.513428,332
803.632263,333
803.751221,327
803.870117,329
803.989014,336
804.107971,327
804.226746,327
804.345642,342
804.4646,331
804.583496,333
804.702393,346
804.821228,337
804.940125,325
805.059021,324
805.177917,327
805.296814,336
805.415649,333
805.534546,333
805.653442,336
805.772278,326
805.891113,339
806.01001,322
806.128906,316
806.247742,324
806.366577,341
806.485413,340
806.604309,332
806.723145,325
806.84198,337
806.960876,333
807.079712,325
807.198486,324
807.317383,327
807.436218,336
807.554993,323
807.673889,336
807.792725,336
807.91156,343
808.030396,329
808.14917,327
808.268005,324
808.386841,350
808.505676,317
808.624451,329
808.743286,329
808.862122,337
808.980896,325
809.099731,338
809.218506,337
809.337341,337
809.456116,342
809.57489,341
809.693726,339
809.8125,325
809.931274,345
810.050049,337
810.168884,336
810.287659,332
810.406372,316
810.525269,339
810.643982,339
810.762756,328
810.881531,337
811.000305,324
811.11908,328
811.237854,341
811.356567,331
811.475403,327
811.594116,330
811.71283,341
811.831604,335
811.950378,340
812.069153,330
812.187927,336
812.30658,346
812.425415,323
812.544128,326
812.662781,325
812.781616,346
812.900269,325
813.019043,340
813.137756,332
813.256531,331
813.375244,332
813.493896,323
813.612671,337
813.731384,333
813.850037,339
813.96875,333
814.087524,330
814.206238,339
814.324951,357
814.443604,327
814.562256,329
814.68103,341
814.799683,346
814.918335,313
815.037109,319
815.155762,323
815.274475,319
815.393188,329
815.511841,337
815.630554,331
815.749146,330
815.867859,328
815.986572,334
816.105164,331
816.223877,331
816.342529,331
816.461182,316
816.579895,325
816.698486,321
816.817139,333
816.935791,317
817.054504,334
817.173096,339
817.291748,327
817.4104,331
817.529053,331
817.647644,336
817.766235,319
817.884949,325
818.00354,324
818.122192,318
818.240845,321
818.359436,328
818.478088,319
818.59668,329
818.715271,334
818.833923,316
818.952515,330
819.071106,317
819.189758,325
819.30835,324
819.426941,332
819.545532,312
819.664124,320
819.782715,320
819.901306,308
820.019897,324
820.138489,318
820.25708,322
820.375671,313
820.494202,309
820.612732,333
820.731384,316
820.849915,321
820.968506,319
821.087097,305
821.205627,316
821.324158,328
821.442749,325
821.561279,310
821.679871,306
821.798401,321
821.916931,328
822.035461,325
822.154053,319
822.272583,318
822.391174,310
822.509583,322
822.628174,322
822.746704,303
822.865234,333
822.983765,311
823.102295,335
823.220825,325
823.339294,310
823.457825,322
823.576355,322
823.694824,329
823.813354,322
823.931885,325
824.050354,308
824.168884,301
824.287354,319
824.405823,302
824.524353,322
824.642822,329
824.761353,317
824.879822,316
824.998291,315
825.116699,319
825.235291,314
825.353699,322
825.472168,320
825.590637,314
825.709106,320
825.827576,306
825.946045,310
826.064453,308
826.182983,322
826.301392,310
826.4198,329
826.53833,307
826.656738,316
826.775208,303
826.893677,318
827.012024,303
827.130493,309
827.248962,326
827.36731,307
827.485779,315
827.604248,314
827.722595,307
827.841064,310
827.959412,313
828.077942,299
828.196289,322
828.314636,312
828.433105,308
828.551514,313
828.669861,308
828.78833,311
828.906677,303
829.025085,312
829.143433,312
829.261841,319
829.38031,315
829.498657,314
829.617004,326
829.735413,318
829.85376,314
829.972107,310
830.090515,329
830.208862,300
830.327209,324
830.445557,301
830.563904,321
830.682312,318
830.800659,314
830.919006,346
831.037354,315
831.155701,313
831.274048,306
831.392395,310
831.51062,303
831.629028,315
831.747314,299
831.865662,316
831.984009,314
832.102356,334
832.220642,300
832.338928,305
832.457275,318
832.575623,311
832.693909,320
832.812134,309
832.930481,312
833.048828,300
833.167114,322
833.2854,327
833.403687,311
833.521973,315
833.640259,320
833.758545,323
833.876831,319
833.995056,322
834.113281,315
834.231628,322
834.349915,321
834.468201,325
834.586426,316
834.704651,324
834.822998,312
834.941162,339
835.059448,305
835.177673,323
835.295959,305
835.414246,318
835.53241,310
835.650635,315
835.768921,329
835.887146,318
836.005371,311
836.123596,321
836.241821,312
836.360046,312
836.478271,322
836.596497,318
836.714722,318
836.832886,330
836.95105,318
837.069336,316
837.1875,321
837.305725,318
837.423889,294
837.542053,329
837.660339,320
837.778503,309
837.896667,320
838.014832,325
838.132996,303
838.25116,338
838.369385,310
838.487488,320
838.605713,299
838.723877,314
838.84198,329
838.960205,321
839.078308,323
839.196472,305
839.314636,316
839.4328,319
839.550964,318
839.669067,323
839.787231,322
839.905396,321
840.023499,314
840.141602,327
840.259766,317
840.377869,319
840.495972,310
840.614136,317
840.732239,312
840.850342,313
840.968445,313
841.086548,314
841.204651,320
841.322754,315
841.440918,307
841.55896,313
841.677002,306
841.795166,314
841.913208,315
842.031311,323
842.149353,306
842.267456,318
842.385498,302
842.503601,307
842.621643,321
842.739746,309
842.857788,321
842.97583,305
843.093933,312
843.211975,317
843.330017,312
843.44812,320
843.566101,317
843.684204,309
843.802246,308
843.920227,332
844.038269,308
844.156311,317
844.274292,321
844.392395,321
844.510376,314
844.628357,310
844.74646,318
844.864441,303
844.982422,327
845.100403,325
845.218384,315
845.336426,309
845.454468,304
845.572449,333
845.69043,306
845.808411,318
845.926453,300
846.044373,313
846.162354,320
846.280396,326
846.398315,301
846.516296,321
846.634216,304
846.752197,311
846.870178,314
846.988098,320
847.106079,298
847.22406,317
847.34198,325
847.4599,334
847.577881,305
847.695801,324
847.813782,308
847.931641,307
848.049561,305
848.167603,309
848.285461,325
848.403381,319
848.521362,304
848.639221,309
848.75708,303
848.875,324
848.99292,322
849.110901,326
849.22876,317
849.34668,309
849.464539,316
849.582458,316
849.700317,310
849.818176,313
849.936096,305
850.053955,313
850.171875,316
850.289673,308
850.407593,323
850.525452,308
850.643311,314
850.761169,309
850.878967,314
850.996887,315
851.114746,313
851.232544,311
851.350403,307
851.468262,329
851.58606,304
851.703979,308
851.821777,310
851.939636,309
852.057434,298
852.175232,319
852.293091,318
852.410889,320
852.528687,318
852.646545,317
852.764343,310
852.88208,322
852.999939,313
853.117676,329
853.235535,311
853.353271,299
853.471069,308
853.588928,317
853.706604,315
853.824402,319
853.9422,308
854.059998,314
854.177734,313
854.295532,317
854.413269,313
854.531006,311
854.648804,314
854.766541,308
854.884277,320
855.002014,322
855.119751,315
855.237549,311
855.355225,308
855.473022,300
855.590698,324
855.708435,323
855.826172,319
855.943848,317
856.061646,300
856.179321,324
856.296997,319
856.414795,309
856.53241,312
856.650085,318
856.767822,300
856.885559,324
857.003174,306
857.120911,328
857.238586,310
857.356201,316
857.473938,313
857.591614,301
857.709351,318
857.826965,329
857.944641,317
858.062317,322
858.179993,314
858.297668,308
858.415283,310
858.532959,312
858.650574,319
858.768188,315
858.885803,318
859.003479,328
859.121094,297
859.23877,321
859.356384,315
859.473999,321
859.591675,321
859.709229,326
859.826843,313
859.944458,320
860.062012,300
860.179626,319
860.297302,318
860.414856,312
860.532471,333
860.650024,309
860.767639,306
860.885193,328
861.002808,314
861.120361,322
861.237976,330
861.35553,315
861.473022,319
861.590698,318
861.708191,299
861.825745,317
861.943298,311
862.060852,300
862.178406,316
862.295959,311
862.413513,316
862.531006,322
862.64856,312
862.766113,336
862.883667,307
863.00116,324
863.118713,303
863.236206,333
863.353699,307
863.471252,320
863.588745,304
863.706177,311
863.82373,313
863.941162,319
864.058716,311
864.176208,319
864.29364,306
864.411194,315
864.528687,317
864.646118,311
864.763611,305
864.881042,311
864.998535,303
865.116028,312
865.233459,314
865.350891,326
865.468384,310
865.585754,324
865.703308,315
865.820679,322
865.938171,324
866.055542,323
866.173035,317
866.290466,323
866.407837,298
866.52533,314
866.6427,312
866.760071,331
866.877563,315
866.994934,324
867.112305,319
867.229736,314
867.347107,326
867.464539,318
867.58197,298
867.699341,325
867.81665,316
867.934082,325
868.051453,320
868.168823,312
868.286194,313
868.403564,315
868.520935,313
868.638306,310
868.755676,303
868.872986,314
868.990295,299
869.107727,315
869.225037,307
869.342346,313
869.459717,320
869.577026,318
869.694336,305
869.811707,314
869.929016,309
870.046326,311
870.163635,316
870.280945,327
870.398254,301
870.515564,316
870.632812,311
870.750183,319
870.867432,308
870.984741,319
871.102051,309
871.219299,325
871.336609,322
871.453918,295
871.571106,333
871.688416,314
871.805664,320
871.922852,324
872.040222,302
872.157471,335
872.274719,299
872.391968,308
872.509155,309
872.626465,307
872.743652,303
872.860962,321
872.978149,307
873.095337,314
873.212646,324
873.329834,325
873.44696,321
873.564209,322
873.681396,319
873.798645,319
873.915894,293
874.03302,315
874.150208,321
874.267456,317
874.384583,312
874.501831,322
874.618958,313
874.736145,325
874.853333,301
874.970459,318
875.087646,305
875.204834,314
875.32196,300
875.439148,300
875.556274,320
875.673401,311
875.790527,316
875.907715,308
876.024841,313
876.141968,316
876.259094,316
876.376282,332
876.493347,325
876.610474,312
876.7276,321
876.844727,320
876.961853,319
877.078918,316
877.195984,302
877.313171,324
877.430237,343
877.547302,310
877.664368,299
877.781433,318
877.898499,315
878.015625,314
878.13269,316
878.249695,318
878.366821,310
878.483887,328
878.600952,299
878.717957,318
878.834961,308
878.952087,319
879.069092,327
879.186157,316
879.303162,305
879.420227,327
879.537231,320
879.654236,311
879.77124,302
879.888306,321
880.005249,299
880.122314,312
880.239319,323
880.356323,314
880.473328,301
880.590271,332
880.707275,308
880.824341,330
880.941284,302
881.058228,320
881.175232,304
881.292236,322
881.40918,308
881.526123,323
881.643066,308
881.760071,314
881.877014,306
881.993958,314
882.11084,307
882.227783,321
882.344727,303
882.46167,323
882.578613,321
882.695618,315
882.812439,295
882.929382,320
883.046326,313
883.163208,320
883.280151,320
883.397034,305
883.513916,308
883.630798,324
883.747742,318
883.864563,315
883.981506,318
884.098389,323
884.21521,318
884.332153,326
884.448975,317
884.565796,314
884.682678,311
884.7995,311
884.916443,308
885.033264,329
885.150085,313
885.266968,326
885.383789,300
885.500671,321
885.617493,318
885.734314,324
885.851196,321
885.967896,313
886.084717,313
886.201599,328
886.318359,318
886.435181,301
886.552002,316
886.668762,303
886.785645,310
886.902344,319
887.019165,307
887.135925,312
887.252747,318
887.369446,315
887.486267,309
887.603027,324
887.719788,311
887.836548,317
887.953247,310
888.070068,307
888.186829,309
888.303528,320
888.420288,313
888.536987,323
888.653687,305
888.770447,315
888.887146,306
889.003967,307
889.120667,311
889.237305,319
889.354065,317
889.470703,322
889.587463,302
889.704163,326
889.820862,308
889.937561,318
890.054199,304
890.170837,314
890.287598,309
890.404236,320
890.520874,304
890.637634,324
890.754211,320
890.87085,321
890.987549,313
891.104187,315
891.220886,310
891.337463,320
891.454102,303
891.57074,325
891.687378,317
891.804077,315
891.920654,316
892.037231,310
892.15387,320
892.270447,325
892.387085,301
892.503723,314
892.6203,317
892.736877,322
892.853516,315
892.970032,308
893.08667,321
893.203186,328
893.319763,313
893.43634,319
893.552917,316
893.669556,325
893.786011,318
893.902588,304
894.019165,316
894.135681,314
894.252197,306
894.368835,321
894.485291,306
894.601868,326
894.718384,311
894.8349,324
894.951355,314
895.067932,316
895.184448,316
895.300964,321
895.417419,304
895.533936,325
895.650452,306
895.766907,320
895.883423,317
895.999878,323
896.116333,303
896.232849,312
896.349304,305
896.465759,325
896.582214,303
896.698669,313
896.815125,302
896.931641,323
897.048035,316
897.164551,303
897.280884,317
897.397339,321
897.513794,314
897.630249,322
897.746582,317
897.863098,318
897.979431,300
898.095886,315
898.212341,315
898.328674,317
898.445129,293
898.561462,299
898.677795,302
898.794312,320
898.910645,318
899.026978,321
899.143433,296
899.259766,314
899.37616,317
899.492493,300
899.608765,332
899.725159,298
899.841553,313
899.957947,312
900.07428,310
900.190552,319
900.306946,312
900.423157,319
900.53949,314
900.655884,328
900.772156,310
900.888489,320
901.004822,310
901.121033,327
901.237366,314
901.353699,316
901.46991,309
901.586304,325
901.702515,320
901.818787,318
901.93512,317
902.051331,318
902.167603,311
902.283875,315
902.400085,314
902.516418,307
902.632629,318
902.74884,322
902.865112,315
902.981384,316
903.097595,312
903.213867,324
903.330017,307
903.446289,312
903.5625,318
903.67865,329
903.794922,307
903.911072,325
904.027344,302
904.143494,314
904.259705,317
904.375916,319
904.492065,313
904.608215,310
904.724426,320
904.840576,319
904.956726,313
905.072876,319
905.189087,317
905.305176,312
905.421387,318
905.537537,321
905.653687,314
905.769775,306
905.885925,317
906.002014,321
906.118164,310
906.234314,321
906.350403,310
906.466492,319
906.582642,302
906.69873,312
906.814758,316
906.930908,311
907.046936,310
907.163086,338
907.279175,328
907.395264,320
907.511353,323
907.62738,321
907.743408,314
907.859497,319
907.975525,306
908.091553,329
908.207703,306
908.32373,329
908.439758,324
908.555786,322
908.671814,307
908.787842,316
908.90387,318
909.019775,314
909.135864,325
909.251892,306
909.367859,313
909.483826,325
909.599854,316
909.715881,315
909.831848,311
909.947815,328
910.063782,306
910.179749,312
910.295776,311
910.411743,309
910.527649,313
910.643616,313
910.759583,309
910.875488,319
910.991455,313
911.107361,311
911.223267,329
911.339294,317
911.4552,331
911.571106,314
911.687073,321
911.802979,313
911.918823,314
912.034729,318
912.150635,302
912.266602,314
912.382446,321
912.498352,303
912.614197,308
912.730103,330
912.846008,326
