792.44574,321
792.56488,354
792.68396,395
792.80304,388
792.92218,342
793.041199,322
793.160339,320
793.279419,327
793.398499,332
793.517578,319
793.636658,325
793.755737,342
793.874817,350
793.993896,348
794.112976,333
794.232056,326
794.351074,325
794.470215,345
794.589233,330
794.708313,336
794.827393,321
794.946411,341
795.065552,326
795.18457,343
795.303589,332
795.422668,318
795.541687,331
795.660767,327
795.779846,340
795.898865,331
796.017883,331
796.136963,324
796.255981,335
796.375061,347
796.49408,337
796.613037,330
796.732117,331
796.851135,341
796.970154,323
797.089233,329
797.208191,338
797.327271,321
797.446228,329
797.565186,340
797.684265,318
797.803223,335
797.922241,318
798.04126,335
798.160278,331
798.279297,347
798.398315,333
798.517273,326
798.636292,323
798.75531,332
798.874268,334
798.993286,332
799.112244,325
799.231323,335
799.350281,328
799.469238,328
799.588257,330
799.707153,338
799.826111,325
799.945129,330
800.064087,330
800.183044,335
800.302063,332
800.421021,345
800.539978,331
800.658936,337
800.777893,320
800.896912,328
801.015747,330
801.134705,338
801.253723,314
801.37262,329
801.491638,321
801.610535,339
801.729492,325
801.84845,316
801.967407,330
802.086243,337
802.205261,324
802.324158,327
802.443115,324
802.562073,326
802.680969,347
802.799927,321
802.918762,327
803.037659,326
803.156677,323
803.275574,332
803.39447,317
803.513428,326
803.632263,328
803.751221,338
803.870117,320
803.989014,322
804.107971,337
804.226746,320
804.345642,335
804.4646,328
804.583496,323
804.702393,327
804.821228,322
804.940125,330
805.059021,329
805.177917,345
805.296814,328
805.415649,334
805.534546,331
805.653442,328
805.772278,325
805.891113,339
806.01001,320
806.128906,332
806.247742,340
806.366577,323
806.485413,342
806.604309,329
806.723145,339
806.84198,320
806.960876,331
807.079712,337
807.198486,321
807.317383,322
807.436218,322
807.554993,327
807.673889,334
807.792725,332
807.91156,336
808.030396,339
808.14917,336
808.268005,324
808.386841,339
808.505676,342
808.624451,327
808.743286,335
808.862122,333
808.980896,338
809.099731,343
809.218506,325
809.337341,336
809.456116,337
809.57489,322
809.693726,332
809.8125,329
809.931274,334
810.050049,338
810.168884,333
810.287659,318
810.406372,330
810.525269,340
810.643982,340
810.762756,319
810.881531,324
811.000305,337
811.11908,338
811.237854,323
811.356567,334
811.475403,323
811.594116,339
811.71283,332
811.831604,327
811.950378,343
812.069153,327
812.187927,339
812.30658,343
812.425415,327
812.544128,342
812.662781,319
812.781616,339
812.900269,338
813.019043,328
813.137756,336
813.256531,321
813.375244,335
813.493896,334
813.612671,343
813.731384,339
813.850037,329
813.96875,333
814.087524,325
814.206238,337
814.324951,323
814.443604,327
814.562256,329
814.68103,332
814.799683,328
814.918335,341
815.037109,328
815.155762,335
815.274475,334
815.393188,317
815.511841,327
815.630554,327
815.749146,329
815.867859,334
815.986572,350
816.105164,332
816.223877,325
816.342529,325
816.461182,340
816.579895,334
816.698486,347
816.817139,338
816.935791,331
817.054504,338
817.173096,324
817.291748,322
817.4104,337
817.529053,331
817.647644,322
817.766235,318
817.884949,327
818.00354,325
818.122192,325
818.240845,321
818.359436,339
818.478088,337
818.59668,312
818.715271,329
818.833923,321
818.952515,333
819.071106,326
819.189758,309
819.30835,319
819.426941,334
819.545532,326
819.664124,326
819.782715,322
819.901306,321
820.019897,312
820.138489,334
820.25708,316
820.375671,319
820.494202,315
820.612732,314
820.731384,321
820.849915,316
820.968506,327
821.087097,304
821.205627,303
821.324158,322
821.442749,311
821.561279,324
821.679871,323
821.798401,317
821.916931,322
822.035461,328
822.154053,324
822.272583,312
822.391174,336
822.509583,315
822.628174,319
822.746704,306
822.865234,316
822.983765,307
823.102295,319
823.220825,325
823.339294,328
823.457825,328
823.576355,310
823.694824,329
823.813354,319
823.931885,321
824.050354,311
824.168884,306
824.287354,326
824.405823,313
824.524353,307
824.642822,315
824.761353,318
824.879822,314
824.998291,326
825.116699,313
825.235291,310
825.353699,315
825.472168,313
825.590637,317
825.709106,316
825.827576,316
825.946045,315
826.064453,333
826.182983,312
826.301392,327
826.4198,303
826.53833,316
826.656738,314
826.775208,314
826.893677,334
827.012024,319
827.130493,328
827.248962,317
827.36731,316
827.485779,313
827.604248,321
827.722595,308
827.841064,321
827.959412,321
828.077942,308
828.196289,311
828.314636,322
828.433105,318
828.551514,304
828.669861,320
828.78833,323
828.906677,331
829.025085,321
829.143433,320
829.261841,316
829.38031,327
829.498657,308
829.617004,311
829.735413,313
829.85376,326
829.972107,312
830.090515,319
830.208862,324
830.327209,317
830.445557,317
830.563904,316
830.682312,305
830.800659,326
830.919006,312
831.037354,304
831.155701,326
831.274048,321
831.392395,324
831.51062,325
831.629028,325
831.747314,318
831.865662,308
831.984009,317
832.102356,311
832.220642,322
832.338928,319
832.457275,311
832.575623,318
832.693909,320
832.812134,327
832.930481,301
833.048828,321
833.167114,319
833.2854,323
833.403687,318
833.521973,316
833.640259,315
833.758545,312
833.876831,327
833.995056,326
834.113281,323
834.231628,317
834.349915,312
834.468201,332
834.586426,318
834.704651,306
834.822998,321
834.941162,302
835.059448,302
835.177673,311
835.295959,323
835.414246,305
835.53241,326
835.650635,314
835.768921,313
835.887146,333
836.005371,331
836.123596,316
836.241821,321
836.360046,316
836.478271,331
836.596497,326
836.714722,317
836.832886,312
836.95105,312
837.069336,313
837.1875,316
837.305725,333
837.423889,311
837.542053,312
837.660339,316
837.778503,320
837.896667,310
838.014832,314
838.132996,316
838.25116,296
838.369385,313
838.487488,316
838.605713,321
838.723877,313
838.84198,324
838.960205,325
839.078308,318
839.196472,330
839.314636,297
839.4328,318
839.550964,318
839.669067,315
839.787231,317
839.905396,323
840.023499,314
840.141602,311
840.259766,311
840.377869,315
840.495972,314
840.614136,319
840.732239,316
840.850342,319
840.968445,323
841.086548,318
841.204651,313
841.322754,325
841.440918,332
841.55896,315
841.677002,305
841.795166,312
841.913208,325
842.031311,320
842.149353,318
842.267456,309
842.385498,329
842.503601,321
842.621643,319
842.739746,319
842.857788,317
842.97583,326
843.093933,328
843.211975,317
843.330017,314
843.44812,311
843.566101,317
843.684204,311
843.802246,329
843.920227,317
844.038269,319
844.156311,310
844.274292,314
844.392395,314
844.510376,321
844.628357,315
844.74646,307
844.864441,319
844.982422,323
845.100403,325
845.218384,311
845.336426,318
845.454468,321
845.572449,321
845.69043,325
845.808411,302
845.926453,332
846.044373,312
846.162354,327
846.280396,318
846.398315,310
846.516296,319
846.634216,310
846.752197,311
846.870178,319
846.988098,319
847.106079,313
847.22406,318
847.34198,319
847.4599,326
847.577881,310
847.695801,311
847.813782,311
847.931641,305
848.049561,316
848.167603,316
848.285461,322
848.403381,309
848.521362,323
848.639221,299
848.75708,329
848.875,326
848.99292,302
849.110901,305
849.22876,314
849.34668,319
849.464539,310
849.582458,302
849.700317,315
849.818176,309
849.936096,318
850.053955,316
850.171875,315
850.289673,313
850.407593,306
850.525452,315
850.643311,310
850.761169,317
850.878967,317
850.996887,309
851.114746,317
851.232544,314
851.350403,312
851.468262,316
851.58606,322
851.703979,311
851.821777,321
851.939636,305
852.057434,320
852.175232,316
852.293091,327
852.410889,319
852.528687,327
852.646545,322
852.764343,319
852.88208,310
852.999939,320
853.117676,309
853.235535,317
853.353271,310
853.471069,313
853.588928,315
853.706604,312
853.824402,332
853.9422,320
854.059998,306
854.177734,320
854.295532,326
854.413269,318
854.531006,312
854.648804,313
854.766541,311
854.884277,322
855.002014,311
855.119751,313
855.237549,309
855.355225,316
855.473022,313
855.590698,316
855.708435,306
855.826172,320
855.943848,310
856.061646,317
856.179321,327
856.296997,329
856.414795,306
856.53241,307
856.650085,314
856.767822,323
856.885559,317
857.003174,317
857.120911,312
857.238586,322
857.356201,309
857.473938,309
857.591614,320
857.709351,310
857.826965,318
857.944641,313
858.062317,319
858.179993,304
858.297668,310
858.415283,320
858.532959,308
858.650574,316
858.768188,313
858.885803,320
859.003479,317
859.121094,318
859.23877,316
859.356384,321
859.473999,324
859.591675,328
859.709229,306
859.826843,316
859.944458,322
860.062012,312
860.179626,320
860.297302,310
860.414856,323
860.532471,325
860.650024,324
860.767639,324
860.885193,315
861.002808,315
861.120361,315
861.237976,319
861.35553,316
861.473022,310
861.590698,317
861.708191,307
861.825745,316
861.943298,321
862.060852,308
862.178406,326
862.295959,308
862.413513,332
862.531006,326
862.64856,316
862.766113,309
862.883667,314
863.00116,316
863.118713,322
863.236206,319
863.353699,312
863.471252,302
863.588745,317
863.706177,313
863.82373,324
863.941162,308
864.058716,309
864.176208,314
864.29364,327
864.411194,318
864.528687,319
864.646118,308
864.763611,319
864.881042,316
864.998535,323
865.116028,312
865.233459,322
865.350891,312
865.468384,314
865.585754,316
865.703308,321
865.820679,314
865.938171,326
866.055542,310
866.173035,310
866.290466,317
866.407837,316
866.52533,309
866.6427,333
866.760071,313
866.877563,322
866.994934,303
867.112305,319
867.229736,319
867.347107,310
867.464539,299
867.58197,319
867.699341,316
867.81665,314
867.934082,320
868.051453,311
868.168823,308
868.286194,320
868.403564,319
868.520935,324
868.638306,311
868.755676,315
868.872986,321
868.990295,311
869.107727,316
869.225037,320
869.342346,313
869.459717,324
869.577026,308
869.694336,314
869.811707,317
869.929016,322
870.046326,319
870.163635,303
870.280945,310
870.398254,312
870.515564,293
870.632812,316
870.750183,321
870.867432,325
870.984741,322
871.102051,331
871.219299,327
871.336609,314
871.453918,320
871.571106,305
871.688416,311
871.805664,304
871.922852,316
872.040222,322
872.157471,319
872.274719,304
872.391968,315
872.509155,320
872.626465,314
872.743652,307
872.860962,317
872.978149,323
873.095337,318
873.212646,319
873.329834,308
873.44696,317
873.564209,319
873.681396,312
873.798645,307
873.915894,320
874.03302,295
874.150208,323
874.267456,309
874.384583,306
874.501831,311
874.618958,320
874.736145,322
874.853333,314
874.970459,312
875.087646,315
875.204834,307
875.32196,328
875.439148,318
875.556274,318
875.673401,310
875.790527,308
875.907715,316
876.024841,312
876.141968,309
876.259094,310
876.376282,316
876.493347,314
876.610474,305
876.7276,325
876.844727,311
876.961853,318
877.078918,322
877.195984,321
877.313171,308
877.430237,315
877.547302,317
877.664368,322
877.781433,319
877.898499,325
878.015625,318
878.13269,318
878.249695,320
878.366821,310
878.483887,313
878.600952,320
878.717957,314
878.834961,322
878.952087,323
879.069092,325
879.186157,321
879.303162,321
879.420227,332
879.537231,336
879.654236,321
879.77124,322
879.888306,315
880.005249,311
880.122314,309
880.239319,306
880.356323,318
880.473328,313
880.590271,318
880.707275,315
880.824341,311
880.941284,318
881.058228,318
881.175232,312
881.292236,319
881.40918,321
881.526123,324
881.643066,322
881.760071,319
881.877014,307
881.993958,315
882.11084,322
882.227783,308
882.344727,319
882.46167,311
882.578613,319
882.695618,310
882.812439,304
882.929382,323
883.046326,309
883.163208,311
883.280151,304
883.397034,318
883.513916,325
883.630798,318
883.747742,319
883.864563,307
883.981506,305
884.098389,308
884.21521,324
884.332153,324
884.448975,313
884.565796,321
884.682678,329
884.7995,311
884.916443,309
885.033264,310
885.150085,315
885.266968,322
885.383789,318
885.500671,315
885.617493,311
885.734314,309
885.851196,321
885.967896,314
886.084717,314
886.201599,308
886.318359,311
886.435181,313
886.552002,321
886.668762,305
886.785645,318
886.902344,316
887.019165,306
887.135925,315
887.252747,322
887.369446,307
887.486267,316
887.603027,316
887.719788,311
887.836548,317
887.953247,311
888.070068,303
888.186829,318
888.303528,321
888.420288,318
888.536987,310
888.653687,314
888.770447,329
888.887146,322
889.003967,319
889.120667,314
889.237305,314
889.354065,318
889.470703,323
889.587463,325
889.704163,313
889.820862,313
889.937561,325
890.054199,311
890.170837,321
890.287598,315
890.404236,314
890.520874,326
890.637634,327
890.754211,322
890.87085,318
890.987549,324
891.104187,316
891.220886,315
891.337463,323
891.454102,318
891.57074,304
891.687378,312
891.804077,315
891.920654,327
892.037231,314
892.15387,323
892.270447,317
892.387085,307
892.503723,323
892.6203,311
892.736877,329
892.853516,321
892.970032,315
893.08667,323
893.203186,307
893.319763,315
893.43634,308
893.552917,317
893.669556,319
893.786011,311
893.902588,316
894.019165,322
894.135681,299
894.252197,326
894.368835,310
894.485291,320
894.601868,325
894.718384,331
894.8349,311
894.951355,327
895.067932,305
895.184448,321
895.300964,319
895.417419,315
895.533936,313
895.650452,331
895.766907,303
895.883423,311
895.999878,309
896.116333,319
896.232849,314
896.349304,304
896.465759,320
896.582214,324
896.698669,310
896.815125,318
896.931641,312
897.048035,329
897.164551,321
897.280884,307
897.397339,313
897.513794,318
897.630249,307
897.746582,324
897.863098,317
897.979431,312
898.095886,317
898.212341,317
898.328674,319
898.445129,317
898.561462,318
898.677795,322
898.794312,313
898.910645,315
899.026978,327
899.143433,313
899.259766,305
899.37616,329
899.492493,312
899.608765,325
899.725159,304
899.841553,317
899.957947,305
900.07428,331
900.190552,322
900.306946,314
900.423157,299
900.53949,317
900.655884,327
900.772156,320
900.888489,294
901.004822,323
901.121033,302
901.237366,310
901.353699,313
901.46991,330
901.586304,330
901.702515,313
901.818787,331
901.93512,326
902.051331,312
902.167603,319
902.283875,316
902.400085,319
902.516418,311
902.632629,317
902.74884,316
902.865112,305
902.981384,318
903.097595,314
903.213867,309
903.330017,319
903.446289,317
903.5625,317
903.67865,311
903.794922,333
903.911072,321
904.027344,318
904.143494,319
904.259705,316
904.375916,309
904.492065,315
904.608215,316
904.724426,299
904.840576,315
904.956726,318
905.072876,317
905.189087,320
905.305176,311
905.421387,312
905.537537,298
905.653687,309
905.769775,309
905.885925,315
906.002014,322
906.118164,319
906.234314,314
906.350403,325
906.466492,330
906.582642,320
906.69873,312
906.814758,304
906.930908,327
907.046936,329
907.163086,319
907.279175,325
907.395264,313
907.511353,326
907.62738,313
907.743408,315
907.859497,297
907.975525,312
908.091553,317
908.207703,335
908.32373,315
908.439758,321
908.555786,331
908.671814,305
908.787842,307
908.90387,324
909.019775,311
909.135864,320
909.251892,311
909.367859,325
909.483826,311
909.599854,315
909.715881,311
909.831848,310
909.947815,329
910.063782,331
910.179749,319
910.295776,328
910.411743,324
910.527649,312
910.643616,318
910.759583,327
910.875488,310
910.991455,309
911.107361,313
911.223267,326
911.339294,314
911.4552,310
911.571106,310
911.687073,318
911.802979,318
911.918823,310
912.034729,316
912.150635,324
912.266602,308
912.382446,329
912.498352,314
912.614197,326
912.730103,319
912.846008,320
792.44574,309
792.56488,358
792.68396,389
792.80304,388
792.92218,336
793.041199,330
793.160339,314
793.279419,345
793.398499,325
793.517578,320
793.636658,320
793.755737,336
793.874817,355
793.993896,348
794.112976,348
794.232056,324
794.351074,331
794.470215,349
794.589233,325
794.708313,340
794.827393,325
794.946411,327
795.065552,330
795.18457,347
795.303589,331
795.422668,329
795.541687,321
795.660767,331
795.779846,323
795.898865,324
796.017883,319
796.136963,317
796.255981,335
796.375061,326
796.49408,329
796.613037,339
796.732117,321
796.851135,330
796.970154,316
797.089233,316
797.208191,327
797.327271,345
797.446228,329
797.565186,333
797.684265,337
797.803223,325
797.922241,341
798.04126,343
798.160278,328
798.279297,336
798.398315,326
798.517273,330
798.636292,313
798.75531,331
798.874268,333
798.993286,333
799.112244,325
799.231323,327
799.350281,317
799.469238,338
799.588257,323
799.707153,331
799.826111,327
799.945129,333
800.064087,317
800.183044,324
800.302063,329
800.421021,336
800.539978,323
800.658936,329
800.777893,342
800.896912,317
801.015747,335
801.134705,335
801.253723,341
801.37262,327
801.491638,332
801.610535,329
801.729492,319
801.84845,343
801.967407,334
802.086243,333
802.205261,328
802.324158,336
802.443115,342
802.562073,336
802.680969,329
802.799927,334
802.918762,331
803.037659,317
803.156677,340
803.275574,317
803.39447,333
803.513428,327
803.632263,343
803.751221,329
803.870117,340
803.989014,337
804.107971,340
804.226746,332
804.345642,333
804.4646,320
804.583496,332
804.702393,329
804.821228,340
804.940125,335
805.059021,322
805.177917,325
805.296814,329
805.415649,331
805.534546,334
805.653442,335
805.772278,334
805.891113,325
806.01001,343
806.128906,341
806.247742,349
806.366577,321
806.485413,347
806.604309,340
806.723145,324
806.84198,342
806.960876,323
807.079712,328
807.198486,331
807.317383,337
807.436218,336
807.554993,330
807.673889,327
807.792725,341
807.91156,334
808.030396,329
808.14917,323
808.268005,324
808.386841,333
808.505676,312
808.624451,334
808.743286,334
808.862122,326
808.980896,344
809.099731,348
809.218506,325
809.337341,325
809.456116,329
809.57489,329
809.693726,326
809.8125,339
809.931274,338
810.050049,332
810.168884,343
810.287659,334
810.406372,324
810.525269,342
810.643982,333
810.762756,343
810.881531,327
811.000305,330
811.11908,342
811.237854,326
811.356567,333
811.475403,342
811.594116,328
811.71283,338
811.831604,318
811.950378,332
812.069153,349
812.187927,333
812.30658,328
812.425415,326
812.544128,328
812.662781,322
812.781616,321
812.900269,332
813.019043,330
813.137756,340
813.256531,326
813.375244,343
813.493896,340
813.612671,329
813.731384,342
813.850037,333
813.96875,326
814.087524,332
814.206238,321
814.324951,332
814.443604,340
814.562256,337
814.68103,317
814.799683,327
814.918335,328
815.037109,321
815.155762,327
815.274475,328
815.393188,329
815.511841,337
815.630554,330
815.749146,332
815.867859,323
815.986572,327
816.105164,329
816.223877,327
816.342529,343
816.461182,320
816.579895,349
816.698486,330
816.817139,342
816.935791,331
817.054504,342
817.173096,333
817.291748,353
817.4104,332
817.529053,345
817.647644,331
817.766235,329
817.884949,323
818.00354,318
818.122192,322
818.240845,323
818.359436,332
818.478088,320
818.59668,330
818.715271,325
818.833923,327
818.952515,319
819.071106,319
819.189758,327
819.30835,315
819.426941,320
819.545532,311
819.664124,323
819.782715,324
819.901306,323
820.019897,321
820.138489,317
820.25708,317
820.375671,314
820.494202,304
820.612732,320
820.731384,319
820.849915,318
820.968506,316
821.087097,327
821.205627,327
821.324158,339
821.442749,319
821.561279,315
821.679871,324
821.798401,315
821.916931,321
822.035461,329
822.154053,332
822.272583,329
822.391174,318
822.509583,313
822.628174,315
822.746704,323
822.865234,332
822.983765,305
823.102295,318
823.220825,319
823.339294,318
823.457825,321
823.576355,316
823.694824,326
823.813354,338
823.931885,312
824.050354,314
824.168884,321
824.287354,312
824.405823,328
824.524353,306
824.642822,325
824.761353,321
824.879822,311
824.998291,310
825.116699,332
825.235291,310
825.353699,330
825.472168,310
825.590637,318
825.709106,318
825.827576,317
825.946045,327
826.064453,318
826.182983,326
826.301392,312
826.4198,325
826.53833,323
826.656738,329
826.775208,324
826.893677,313
827.012024,320
827.130493,314
827.248962,305
827.36731,324
827.485779,316
827.604248,322
827.722595,319
827.841064,318
827.959412,319
828.077942,322
828.196289,314
828.314636,309
828.433105,315
828.551514,317
828.669861,304
828.78833,308
828.906677,305
829.025085,308
829.143433,327
829.261841,313
829.38031,327
829.498657,327
829.617004,319
829.735413,320
829.85376,318
829.972107,300
830.090515,309
830.208862,312
830.327209,325
830.445557,317
830.563904,331
830.682312,313
830.800659,317
830.919006,324
831.037354,309
831.155701,315
831.274048,317
831.392395,325
831.51062,325
831.629028,304
831.747314,316
831.865662,330
831.984009,312
832.102356,307
832.220642,320
832.338928,313
832.457275,318
832.575623,323
832.693909,327
832.812134,313
832.930481,312
833.048828,306
833.167114,320
833.2854,334
833.403687,315
833.521973,314
833.640259,313
833.758545,323
833.876831,306
833.995056,322
834.113281,325
834.231628,322
834.349915,327
834.468201,322
834.586426,336
834.704651,319
834.822998,325
834.941162,317
835.059448,314
835.177673,310
835.295959,312
835.414246,317
835.53241,313
835.650635,311
835.768921,322
835.887146,312
836.005371,318
836.123596,309
836.241821,311
836.360046,319
836.478271,311
836.596497,318
836.714722,325
836.832886,308
836.95105,313
837.069336,313
837.1875,313
837.305725,328
837.423889,321
837.542053,317
837.660339,308
837.778503,311
837.896667,309
838.014832,327
838.132996,327
838.25116,315
838.369385,318
838.487488,322
838.605713,315
838.723877,319
838.84198,317
838.960205,318
839.078308,320
839.196472,320
839.314636,329
839.4328,318
839.550964,319
839.669067,307
839.787231,323
839.905396,311
840.023499,315
840.141602,322
840.259766,322
840.377869,316
840.495972,323
840.614136,322
840.732239,307
840.850342,329
840.968445,322
841.086548,317
841.204651,318
841.322754,314
841.440918,325
841.55896,322
841.677002,319
841.795166,317
841.913208,317
842.031311,324
842.149353,319
842.267456,312
842.385498,317
842.503601,303
842.621643,315
842.739746,310
842.857788,327
842.97583,319
843.093933,320
843.211975,308
843.330017,327
843.44812,311
843.566101,322
843.684204,307
843.802246,315
843.920227,314
844.038269,322
844.156311,309
844.274292,320
844.392395,328
844.510376,317
844.628357,327
844.74646,311
844.864441,316
844.982422,320
845.100403,310
845.218384,308
845.336426,309
845.454468,327
845.572449,325
845.69043,316
845.808411,324
845.926453,322
846.044373,312
846.162354,314
846.280396,307
846.398315,330
846.516296,320
846.634216,326
846.752197,321
846.870178,324
846.988098,317
847.106079,307
847.22406,338
847.34198,322
847.4599,321
847.577881,322
847.695801,311
847.813782,325
847.931641,315
848.049561,324
848.167603,306
848.285461,318
848.403381,310
848.521362,327
848.639221,330
848.75708,324
848.875,309
848.99292,313
849.110901,310
849.22876,311
849.34668,316
849.464539,307
849.582458,319
849.700317,320
849.818176,311
849.936096,326
850.053955,306
850.171875,316
850.289673,313
850.407593,323
850.525452,322
850.643311,318
850.761169,302
850.878967,328
850.996887,332
851.114746,318
851.232544,313
851.350403,316
851.468262,330
851.58606,322
851.703979,320
851.821777,316
851.939636,305
852.057434,321
852.175232,322
852.293091,323
852.410889,313
852.528687,314
852.646545,300
852.764343,332
852.88208,313
852.999939,306
853.117676,310
853.235535,316
853.353271,320
853.471069,317
853.588928,321
853.706604,313
853.824402,303
853.9422,324
854.059998,323
854.177734,323
854.295532,303
854.413269,323
854.531006,329
854.648804,309
854.766541,311
854.884277,337
855.002014,320
855.119751,315
855.237549,324
855.355225,320
855.473022,319
855.590698,312
855.708435,312
855.826172,312
855.943848,317
856.061646,319
856.179321,306
856.296997,324
856.414795,322
856.53241,321
856.650085,311
856.767822,317
856.885559,315
857.003174,315
857.120911,321
857.238586,304
857.356201,313
857.473938,325
857.591614,307
857.709351,324
857.826965,315
857.944641,310
858.062317,314
858.179993,311
858.297668,317
858.415283,324
858.532959,311
858.650574,311
858.768188,323
858.885803,313
859.003479,311
859.121094,308
859.23877,322
859.356384,327
859.473999,311
859.591675,310
859.709229,326
859.826843,319
859.944458,311
860.062012,310
860.179626,309
860.297302,308
860.414856,320
860.532471,303
860.650024,320
860.767639,317
860.885193,322
861.002808,322
861.120361,308
861.237976,310
861.35553,319
861.473022,315
861.590698,303
861.708191,317
861.825745,309
861.943298,304
862.060852,319
862.178406,323
862.295959,320
862.413513,306
862.531006,309
862.64856,324
862.766113,304
862.883667,324
863.00116,309
863.118713,335
863.236206,316
863.353699,318
863.471252,317
863.588745,308
863.706177,318
863.82373,315
863.941162,314
864.058716,317
864.176208,310
864.29364,320
864.411194,317
864.528687,305
864.646118,318
864.763611,316
864.881042,316
864.998535,312
865.116028,317
865.233459,320
865.350891,305
865.468384,324
865.585754,295
865.703308,319
865.820679,299
865.938171,314
866.055542,317
866.173035,322
866.290466,321
866.407837,321
866.52533,315
866.6427,314
866.760071,321
866.877563,312
866.994934,312
867.112305,326
867.229736,311
867.347107,320
867.464539,328
867.58197,338
867.699341,308
867.81665,324
867.934082,316
868.051453,329
868.168823,324
868.286194,318
868.403564,303
868.520935,323
868.638306,312
868.755676,321
868.872986,323
868.990295,326
869.107727,310
869.225037,320
869.342346,306
869.459717,307
869.577026,311
869.694336,309
869.811707,313
869.929016,317
870.046326,313
870.163635,312
870.280945,309
870.398254,324
870.515564,325
870.632812,318
870.750183,320
870.867432,312
870.984741,316
871.102051,319
871.219299,320
871.336609,312
871.453918,305
871.571106,311
871.688416,324
871.805664,322
871.922852,316
872.040222,317
872.157471,321
872.274719,314
872.391968,315
872.509155,306
872.626465,309
872.743652,323
872.860962,316
872.978149,310
873.095337,319
873.212646,318
873.329834,306
873.44696,317
873.564209,314
873.681396,321
873.798645,308
873.915894,324
874.03302,307
874.150208,315
874.267456,308
874.384583,312
874.501831,318
874.618958,321
874.736145,310
874.853333,326
874.970459,307
875.087646,319
875.204834,311
875.32196,310
875.439148,322
875.556274,327
875.673401,325
875.790527,313
875.907715,306
876.024841,322
876.141968,313
876.259094,330
876.376282,317
876.493347,325
876.610474,300
876.7276,327
876.844727,313
876.961853,316
877.078918,313
877.195984,325
877.313171,318
877.430237,311
877.547302,311
877.664368,314
877.781433,323
877.898499,310
878.015625,311
878.13269,319
878.249695,308
878.366821,321
878.483887,322
878.600952,320
878.717957,319
878.834961,311
878.952087,304
879.069092,318
879.186157,308
879.303162,304
879.420227,309
879.537231,317
879.654236,309
879.77124,315
879.888306,318
880.005249,309
880.122314,323
880.239319,311
880.356323,308
880.473328,325
880.590271,306
880.707275,307
880.824341,309
880.941284,326
881.058228,324
881.175232,321
881.292236,306
881.40918,303
881.526123,329
881.643066,321
881.760071,314
881.877014,312
881.993958,316
882.11084,311
882.227783,308
882.344727,320
882.46167,314
882.578613,331
882.695618,323
882.812439,324
882.929382,305
883.046326,317
883.163208,329
883.280151,334
883.397034,311
883.513916,326
883.630798,311
883.747742,306
883.864563,320
883.981506,334
884.098389,310
884.21521,328
884.332153,312
884.448975,306
884.565796,302
884.682678,319
884.7995,319
884.916443,320
885.033264,328
885.150085,322
885.266968,318
885.383789,315
885.500671,314
885.617493,318
885.734314,330
885.851196,313
885.967896,330
886.084717,315
886.201599,321
886.318359,332
886.435181,315
886.552002,322
886.668762,315
886.785645,314
886.902344,309
887.019165,298
887.135925,309
887.252747,316
887.369446,300
887.486267,317
887.603027,312
887.719788,321
887.836548,328
887.953247,322
888.070068,321
888.186829,325
888.303528,318
888.420288,306
888.536987,321
888.653687,328
888.770447,323
888.887146,317
889.003967,315
889.120667,331
889.237305,327
889.354065,317
889.470703,312
889.587463,309
889.704163,314
889.820862,315
889.937561,311
890.054199,316
890.170837,300
890.287598,309
890.404236,306
890.520874,308
890.637634,313
890.754211,311
890.87085,303
890.987549,325
891.104187,316
891.220886,318
891.337463,310
891.454102,306
891.57074,310
891.687378,316
891.804077,315
891.920654,311
892.037231,313
892.15387,318
892.270447,312
892.387085,317
892.503723,323
892.6203,319
892.736877,311
892.853516,316
892.970032,333
893.08667,323
893.203186,319
893.319763,318
893.43634,311
893.552917,323
893.669556,307
893.786011,322
893.902588,311
894.019165,317
894.135681,314
894.252197,315
894.368835,326
894.485291,308
894.601868,321
894.718384,323
894.8349,317
894.951355,310
895.067932,315
895.184448,295
895.300964,323
895.417419,314
895.533936,321
895.650452,318
895.766907,327
895.883423,333
895.999878,312
896.116333,315
896.232849,317
896.349304,316
896.465759,306
896.582214,309
896.698669,292
896.815125,314
896.931641,315
897.048035,317
897.164551,304
897.280884,331
897.397339,314
897.513794,312
897.630249,324
897.746582,304
897.863098,317
897.979431,306
898.095886,314
898.212341,329
898.328674,314
898.445129,323
898.561462,316
898.677795,313
898.794312,320
898.910645,325
899.026978,315
899.143433,317
899.259766,317
899.37616,322
899.492493,318
899.608765,332
899.725159,321
899.841553,312
899.957947,327
900.07428,324
900.190552,321
900.306946,316
900.423157,323
900.53949,336
900.655884,298
900.772156,323
900.888489,313
901.004822,324
901.121033,322
901.237366,320
901.353699,309
901.46991,309
901.586304,315
901.702515,317
901.818787,321
901.93512,316
902.051331,311
902.167603,317
902.283875,315
902.400085,318
902.516418,316
902.632629,312
902.74884,315
902.865112,314
902.981384,316
903.097595,314
903.213867,324
903.330017,319
903.446289,305
903.5625,312
903.67865,310
903.794922,303
903.911072,318
904.027344,326
904.143494,309
904.259705,326
904.375916,312
904.492065,312
904.608215,315
904.724426,304
904.840576,313
904.956726,320
905.072876,315
905.189087,311
905.305176,308
905.421387,325
905.537537,315
905.653687,309
905.769775,327
905.885925,306
906.002014,311
906.118164,322
906.234314,310
906.350403,321
906.466492,305
906.582642,316
906.69873,328
906.814758,333
906.930908,309
907.046936,307
907.163086,322
907.279175,328
907.395264,321
907.511353,330
907.62738,317
907.743408,307
907.859497,308
907.975525,316
908.091553,325
908.207703,305
908.32373,317
908.439758,311
908.555786,323
908.671814,306
908.787842,308
908.90387,333
909.019775,325
909.135864,311
909.251892,321
909.367859,312
909.483826,324
909.599854,305
909.715881,319
909.831848,329
909.947815,309
910.063782,308
910.179749,306
910.295776,316
910.411743,291
910.527649,318
910.643616,320
910.759583,321
910.875488,323
910.991455,324
911.107361,318
911.223267,311
911.339294,318
911.4552,321
911.571106,309
911.687073,315
911.802979,324
911.918823,313
912.034729,311
912.150635,318
912.266602,323
912.382446,327
912.498352,324
912.614197,314
912.730103,317
912.846008,313
792.44574,327
792.56488,351
792.68396,390
792.80304,383
792.92218,332
793.041199,330
793.160339,316
793.279419,346
793.398499,338
793.517578,324
793.636658,307
793.755737,342
793.874817,355
793.993896,354
794.112976,332
794.232056,329
794.351074,328
794.470215,326
794.589233,344
794.708313,320
794.827393,339
794.946411,325
795.065552,337
795.18457,342
795.303589,335
795.422668,334
795.541687,339
795.660767,320
795.779846,339
795.898865,326
796.017883,321
796.136963,324
796.255981,317
796.375061,337
796.49408,337
796.613037,340
796.732117,336
796.851135,342
796.970154,327
797.089233,332
797.208191,333
797.327271,311
797.446228,349
797.565186,327
797.684265,338
797.803223,338
797.922241,341
798.04126,340
798.160278,337
798.279297,333
798.398315,330
798.517273,320
798.636292,325
798.75531,327
798.874268,344
798.993286,326
799.112244,335
799.231323,328
799.350281,338
799.469238,327
799.588257,334
799.707153,324
799.826111,337
799.945129,334
800.064087,311
800.183044,338
800.302063,330
800.421021,325
800.539978,316
800.658936,331
800.777893,322
800.896912,330
801.015747,331
801.134705,332
801.253723,310
801.37262,317
801.491638,328
801.610535,310
801.729492,335
801.84845,319
801.967407,328
802.086243,323
802.205261,324
802.324158,330
802.443115,338
802.562073,336
802.680969,327
802.799927,340
802.918762,325
803.037659,335
803.156677,346
803.275574,339
803.39447,334
803.513428,335
803.632263,325
803.751221,318
803.870117,336
803.989014,338
804.107971,333
804.226746,336
804.345642,329
804.4646,324
804.583496,332
804.702393,320
804.821228,330
804.940125,326
805.059021,324
805.177917,337
805.296814,314
805.415649,332
805.534546,319
805.653442,347
805.772278,338
805.891113,340
806.01001,329
806.128906,326
806.247742,335
806.366577,332
806.485413,324
806.604309,314
806.723145,332
806.84198,329
806.960876,330
807.079712,335
807.198486,331
807.317383,334
807.436218,333
807.554993,345
807.673889,317
807.792725,328
807.91156,337
808.030396,344
808.14917,332
808.268005,349
808.386841,328
808.505676,334
808.624451,336
808.743286,340
808.862122,338
808.980896,340
809.099731,333
809.218506,337
809.337341,339
809.456116,344
809.57489,329
809.693726,322
809.8125,335
809.931274,343
810.050049,336
810.168884,334
810.287659,331
810.406372,321
810.525269,339
810.643982,328
810.762756,329
810.881531,334
811.000305,331
811.11908,331
811.237854,345
811.356567,332
811.475403,322
811.594116,340
811.71283,335
811.831604,346
811.950378,326
812.069153,333
812.187927,344
812.30658,323
812.425415,336
812.544128,341
812.662781,328
812.781616,342
812.900269,341
813.019043,333
813.137756,332
813.256531,338
813.375244,340
813.493896,326
813.612671,327
813.731384,319
813.850037,328
813.96875,336
814.087524,342
814.206238,336
814.324951,331
814.443604,343
814.562256,326
814.68103,335
814.799683,334
814.918335,323
815.037109,327
815.155762,345
815.274475,344
815.393188,341
815.511841,331
815.630554,333
815.749146,342
815.867859,323
815.986572,336
816.105164,344
816.223877,330
816.342529,343
816.461182,332
816.579895,337
816.698486,340
816.817139,340
816.935791,340
817.054504,338
817.173096,336
817.291748,337
817.4104,336
817.529053,330
817.647644,324
817.766235,325
817.884949,324
818.00354,337
818.122192,321
818.240845,322
818.359436,321
818.478088,323
818.59668,329
818.715271,323
818.833923,318
818.952515,335
819.071106,307
819.189758,318
819.30835,308
819.426941,323
819.545532,331
819.664124,328
819.782715,323
819.901306,310
820.019897,330
820.138489,326
820.25708,321
820.375671,317
820.494202,303
820.612732,314
820.731384,325
820.849915,313
820.968506,323
821.087097,316
821.205627,329
821.324158,314
821.442749,328
821.561279,325
821.679871,326
821.798401,317
821.916931,312
822.035461,317
822.154053,318
822.272583,321
822.391174,321
822.509583,319
822.628174,310
822.746704,325
822.865234,331
822.983765,323
823.102295,322
823.220825,311
823.339294,320
823.457825,318
823.576355,326
823.694824,332
823.813354,309
823.931885,329
824.050354,312
824.168884,322
824.287354,321
824.405823,304
824.524353,326
824.642822,310
824.761353,324
824.879822,312
824.998291,317
825.116699,322
825.235291,327
825.353699,325
825.472168,322
825.590637,321
825.709106,318
825.827576,320
825.946045,322
826.064453,309
826.182983,317
826.301392,320
826.4198,328
826.53833,321
826.656738,313
826.775208,314
826.893677,325
827.012024,313
827.130493,321
827.248962,320
827.36731,316
827.485779,317
827.604248,328
827.722595,322
827.841064,322
827.959412,329
828.077942,319
828.196289,312
828.314636,314
828.433105,319
828.551514,314
828.669861,321
828.78833,313
828.906677,329
829.025085,319
829.143433,317
829.261841,313
829.38031,316
829.498657,316
829.617004,317
829.735413,317
829.85376,310
829.972107,311
830.090515,325
830.208862,315
830.327209,319
830.445557,334
830.563904,321
830.682312,322
830.800659,309
830.919006,325
831.037354,320
831.155701,304
831.274048,314
831.392395,315
831.51062,311
831.629028,322
831.747314,307
831.865662,322
831.984009,315
832.102356,318
832.220642,315
832.338928,321
832.457275,318
832.575623,301
832.693909,312
832.812134,323
832.930481,319
833.048828,329
833.167114,314
833.2854,320
833.403687,318
833.521973,314
833.640259,310
833.758545,314
833.876831,314
833.995056,321
834.113281,315
834.231628,326
834.349915,323
834.468201,318
834.586426,313
834.704651,312
834.822998,319
834.941162,319
835.059448,323
835.177673,313
835.295959,324
835.414246,309
835.53241,318
835.650635,311
835.768921,311
835.887146,330
836.005371,325
836.123596,327
836.241821,307
836.360046,325
836.478271,313
836.596497,315
836.714722,314
836.832886,312
836.95105,314
837.069336,319
837.1875,308
837.305725,320
837.423889,305
837.542053,316
837.660339,326
837.778503,321
837.896667,313
838.014832,320
838.132996,324
838.25116,310
838.369385,325
838.487488,324
838.605713,305
838.723877,315
838.84198,323
838.960205,311
839.078308,316
839.196472,322
839.314636,320
839.4328,315
839.550964,323
839.669067,311
839.787231,316
839.905396,329
840.023499,322
840.141602,330
840.259766,316
840.377869,316
840.495972,322
840.614136,325
840.732239,329
840.850342,313
840.968445,317
841.086548,322
841.204651,321
841.322754,325
841.440918,317
841.55896,305
841.677002,324
841.795166,323
841.913208,316
842.031311,312
842.149353,324
842.267456,311
842.385498,316
842.503601,316
842.621643,319
842.739746,319
842.857788,317
842.97583,300
843.093933,304
843.211975,320
843.330017,310
843.44812,335
843.566101,323
843.684204,307
843.802246,317
843.920227,319
844.038269,324
844.156311,321
844.274292,331
844.392395,316
844.510376,298
844.628357,328
844.74646,310
844.864441,322
844.982422,321
845.100403,301
845.218384,323
845.336426,319
845.454468,315
845.572449,316
845.69043,312
845.808411,313
845.926453,320
846.044373,319
846.162354,318
846.280396,314
846.398315,324
846.516296,315
846.634216,313
846.752197,309
846.870178,321
846.988098,315
847.106079,312
847.22406,301
847.34198,322
847.4599,317
847.577881,311
847.695801,310
847.813782,315
847.931641,319
848.049561,313
848.167603,316
848.285461,303
848.403381,306
848.521362,324
848.639221,315
848.75708,329
848.875,306
848.99292,316
849.110901,307
849.22876,313
849.34668,316
849.464539,320
849.582458,314
849.700317,321
849.818176,318
849.936096,325
850.053955,321
850.171875,317
850.289673,308
850.407593,309
850.525452,303
850.643311,317
850.761169,314
850.878967,328
850.996887,307
851.114746,316
851.232544,302
851.350403,305
851.468262,321
851.58606,324
851.703979,309
851.821777,308
851.939636,308
852.057434,334
852.175232,323
852.293091,320
852.410889,322
852.528687,319
852.646545,314
852.764343,324
852.88208,326
852.999939,316
853.117676,320
853.235535,311
853.353271,305
853.471069,317
853.588928,312
853.706604,312
853.824402,320
853.9422,316
854.059998,317
854.177734,317
854.295532,312
854.413269,320
854.531006,312
854.648804,335
854.766541,309
854.884277,313
855.002014,311
855.119751,319
855.237549,314
855.355225,311
855.473022,311
855.590698,325
855.708435,307
855.826172,311
855.943848,312
856.061646,324
856.179321,322
856.296997,310
856.414795,318
856.53241,312
856.650085,317
856.767822,324
856.885559,308
857.003174,314
857.120911,323
857.238586,322
857.356201,312
857.473938,331
857.591614,324
857.709351,324
857.826965,323
857.944641,323
858.062317,319
858.179993,315
858.297668,309
858.415283,319
858.532959,329
858.650574,309
858.768188,314
858.885803,313
859.003479,325
859.121094,326
859.23877,308
859.356384,317
859.473999,322
859.591675,315
859.709229,318
859.826843,319
859.944458,316
860.062012,315
860.179626,299
860.297302,313
860.414856,308
860.532471,304
860.650024,309
860.767639,310
860.885193,311
861.002808,317
861.120361,316
861.237976,303
861.35553,301
861.473022,322
861.590698,321
861.708191,314
861.825745,319
861.943298,314
862.060852,310
862.178406,305
862.295959,313
862.413513,309
862.531006,323
862.64856,323
862.766113,325
862.883667,312
863.00116,310
863.118713,317
863.236206,320
863.353699,317
863.471252,322
863.588745,323
863.706177,325
863.82373,303
863.941162,308
864.058716,322
864.176208,315
864.29364,312
864.411194,322
864.528687,320
864.646118,311
864.763611,322
864.881042,313
864.998535,319
865.116028,321
865.233459,325
865.350891,310
865.468384,322
865.585754,314
865.703308,336
865.820679,321
865.938171,326
866.055542,315
866.173035,304
866.290466,316
866.407837,322
866.52533,302
866.6427,326
866.760071,308
866.877563,322
866.994934,312
867.112305,318
867.229736,316
867.347107,314
867.464539,313
867.58197,324
867.699341,311
867.81665,317
867.934082,308
868.051453,317
868.168823,316
868.286194,300
868.403564,318
868.520935,322
868.638306,312
868.755676,327
868.872986,323
868.990295,327
869.107727,319
869.225037,317
869.342346,314
869.459717,324
869.577026,323
869.694336,322
869.811707,313
869.929016,324
870.046326,306
870.163635,303
870.280945,317
870.398254,324
870.515564,313
870.632812,324
870.750183,319
870.867432,314
870.984741,309
871.102051,309
871.219299,312
871.336609,318
871.453918,318
871.571106,318
871.688416,319
871.805664,317
871.922852,327
872.040222,315
872.157471,306
872.274719,314
872.391968,314
872.509155,319
872.626465,317
872.743652,310
872.860962,323
872.978149,320
873.095337,329
873.212646,300
873.329834,315
873.44696,305
873.564209,299
873.681396,323
873.798645,328
873.915894,309
874.03302,308
874.150208,321
874.267456,313
874.384583,316
874.501831,307
874.618958,322
874.736145,314
874.853333,321
874.970459,314
875.087646,333
875.204834,317
875.32196,324
875.439148,320
875.556274,316
875.673401,329
875.790527,324
875.907715,322
876.024841,304
876.141968,307
876.259094,330
876.376282,305
876.493347,320
876.610474,315
876.7276,316
876.844727,307
876.961853,314
877.078918,322
877.195984,311
877.313171,315
877.430237,320
877.547302,308
877.664368,307
877.781433,292
877.898499,312
878.015625,310
878.13269,317
878.249695,308
878.366821,321
878.483887,316
878.600952,305
878.717957,321
878.834961,305
878.952087,313
879.069092,321
879.186157,318
879.303162,317
879.420227,313
879.537231,316
879.654236,307
879.77124,323
879.888306,312
880.005249,313
880.122314,328
880.239319,309
880.356323,318
880.473328,315
880.590271,322
880.707275,323
880.824341,316
880.941284,305
881.058228,317
881.175232,318
881.292236,322
881.40918,314
881.526123,321
881.643066,336
881.760071,310
881.877014,328
881.993958,311
882.11084,314
882.227783,310
882.344727,311
882.46167,321
882.578613,308
882.695618,312
882.812439,316
882.929382,318
883.046326,316
883.163208,313
883.280151,309
883.397034,321
883.513916,321
883.630798,318
883.747742,313
883.864563,319
883.981506,312
884.098389,308
884.21521,314
884.332153,329
884.448975,303
884.565796,311
884.682678,311
884.7995,303
884.916443,315
885.033264,320
885.150085,316
885.266968,317
885.383789,315
885.500671,322
885.617493,329
885.734314,312
885.851196,327
885.967896,315
886.084717,322
886.201599,324
886.318359,318
886.435181,310
886.552002,312
886.668762,310
886.785645,323
886.902344,318
887.019165,312
887.135925,314
887.252747,313
887.369446,320
887.486267,319
887.603027,295
887.719788,325
887.836548,327
887.953247,300
888.070068,319
888.186829,317
888.303528,313
888.420288,328
888.536987,298
888.653687,336
888.770447,317
888.887146,306
889.003967,315
889.120667,314
889.237305,328
889.354065,306
889.470703,317
889.587463,314
889.704163,311
889.820862,322
889.937561,296
890.054199,313
890.170837,309
890.287598,308
890.404236,317
890.520874,317
890.637634,308
890.754211,311
890.87085,321
890.987549,319
891.104187,311
891.220886,324
891.337463,315
891.454102,319
891.57074,313
891.687378,324
891.804077,320
891.920654,314
892.037231,321
892.15387,322
892.270447,313
892.387085,327
892.503723,312
892.6203,321
892.736877,329
892.853516,303
892.970032,316
893.08667,322
893.203186,312
893.319763,304
893.43634,298
893.552917,320
893.669556,314
893.786011,308
893.902588,313
894.019165,325
894.135681,323
894.252197,326
894.368835,310
894.485291,316
894.601868,314
894.718384,314
894.8349,310
894.951355,322
895.067932,320
895.184448,319
895.300964,316
895.417419,326
895.533936,314
895.650452,326
895.766907,313
895.883423,320
895.999878,317
896.116333,319
896.232849,316
896.349304,304
896.465759,319
896.582214,317
896.698669,311
896.815125,334
896.931641,314
897.048035,320
897.164551,315
897.280884,319
897.397339,315
897.513794,321
897.630249,320
897.746582,325
897.863098,321
897.979431,317
898.095886,310
898.212341,316
898.328674,316
898.445129,320
898.561462,316
898.677795,314
898.794312,322
898.910645,309
899.026978,313
899.143433,316
899.259766,296
899.37616,317
899.492493,315
899.608765,319
899.725159,318
899.841553,309
899.957947,310
900.07428,317
900.190552,314
900.306946,325
900.423157,320
900.53949,322
900.655884,321
900.772156,312
900.888489,308
901.004822,310
901.121033,317
901.237366,314
901.353699,316
901.46991,323
901.586304,323
901.702515,332
901.818787,314
901.93512,313
902.051331,316
902.167603,319
902.283875,314
902.400085,321
902.516418,306
902.632629,311
902.74884,316
902.865112,328
902.981384,306
903.097595,317
903.213867,311
903.330017,317
903.446289,324
903.5625,332
903.67865,312
903.794922,326
903.911072,312
904.027344,330
904.143494,316
904.259705,314
904.375916,320
904.492065,310
904.608215,316
904.724426,312
904.840576,316
904.956726,315
905.072876,316
905.189087,327
905.305176,318
905.421387,322
905.537537,319
905.653687,321
905.769775,325
905.885925,315
906.002014,309
906.118164,320
906.234314,314
906.350403,326
906.466492,315
906.582642,324
906.69873,318
906.814758,313
906.930908,324
907.046936,311
907.163086,333
907.279175,322
907.395264,311
907.511353,306
907.62738,320
907.743408,324
907.859497,318
907.975525,329
908.091553,320
908.207703,323
908.32373,318
908.439758,321
908.555786,304
908.671814,317
908.787842,310
908.90387,313
909.019775,319
909.135864,319
909.251892,318
909.367859,323
909.483826,313
909.599854,317
909.715881,315
909.831848,321
909.947815,314
910.063782,319
910.179749,318
910.295776,315
910.411743,317
910.527649,324
910.643616,321
910.759583,316
910.875488,302
910.991455,324
911.107361,316
911.223267,312
911.339294,318
911.4552,312
911.571106,325
911.687073,314
911.802979,307
911.918823,305
912.034729,321
912.150635,321
912.266602,314
912.382446,316
912.498352,310
912.614197,324
912.730103,320
912.846008,320
