792.44574,343
792.56488,376
792.68396,411
792.80304,414
792.92218,366
793.041199,353
793.160339,333
793.279419,367
793.398499,346
793.517578,331
793.636658,352
793.755737,345
793.874817,365
793.993896,349
794.112976,335
794.232056,352
794.351074,328
794.470215,348
794.589233,325
794.708313,356
794.827393,333
794.946411,365
795.065552,349
795.18457,352
795.303589,339
795.422668,355
795.541687,319
795.660767,345
795.779846,344
795.898865,330
796.017883,333
796.136963,339
796.255981,348
796.375061,324
796.49408,341
796.613037,332
796.732117,346
796.851135,340
796.970154,333
797.089233,341
797.208191,339
797.327271,342
797.446228,324
797.565186,342
797.684265,335
797.803223,346
797.922241,342
798.04126,347
798.160278,333
798.279297,326
798.398315,331
798.517273,331
798.636292,333
798.75531,327
798.874268,330
798.993286,324
799.112244,354
799.231323,328
799.350281,334
799.469238,331
799.588257,341
799.707153,336
799.826111,328
799.945129,333
800.064087,348
800.183044,328
800.302063,332
800.421021,347
800.539978,341
800.658936,322
800.777893,345
800.896912,339
801.015747,340
801.134705,326
801.253723,334
801.37262,334
801.491638,342
801.610535,338
801.729492,333
801.84845,351
801.967407,320
802.086243,331
802.205261,342
802.324158,329
802.443115,325
802.562073,336
802.680969,315
802.799927,328
802.918762,319
803.037659,334
803.156677,347
803.275574,327
803.39447,334
803.513428,338
803.632263,322
803.751221,334
803.870117,324
803.989014,317
804.107971,342
804.226746,328
804.345642,324
804.4646,335
804.583496,342
804.702393,323
804.821228,340
804.940125,319
805.059021,345
805.177917,347
805.296814,310
805.415649,336
805.534546,326
805.653442,323
805.772278,345
805.891113,326
806.01001,326
806.128906,339
806.247742,329
806.366577,318
806.485413,334
806.604309,338
806.723145,326
806.84198,340
806.960876,324
807.079712,322
807.198486,341
807.317383,328
807.436218,328
807.554993,339
807.673889,337
807.792725,326
807.91156,335
808.030396,333
808.14917,326
808.268005,335
808.386841,340
808.505676,334
808.624451,340
808.743286,324
808.862122,325
808.980896,331
809.099731,326
809.218506,334
809.337341,329
809.456116,326
809.57489,329
809.693726,323
809.8125,332
809.931274,337
810.050049,320
810.168884,327
810.287659,335
810.406372,328
810.525269,338
810.643982,310
810.762756,330
810.881531,312
811.000305,336
811.11908,327
811.237854,334
811.356567,343
811.475403,340
811.594116,321
811.71283,328
811.831604,309
811.950378,343
812.069153,326
812.187927,325
812.30658,330
812.425415,343
812.544128,330
812.662781,336
812.781616,325
812.900269,334
813.019043,328
813.137756,332
813.256531,329
813.375244,339
813.493896,335
813.612671,330
813.731384,334
813.850037,337
813.96875,328
814.087524,325
814.206238,323
814.324951,327
814.443604,332
814.562256,328
814.68103,341
814.799683,325
814.918335,329
815.037109,339
815.155762,316
815.274475,351
815.393188,346
815.511841,329
815.630554,320
815.749146,335
815.867859,327
815.986572,328
816.105164,315
816.223877,325
816.342529,328
816.461182,336
816.579895,320
816.698486,338
816.817139,329
816.935791,325
817.054504,339
817.173096,328
817.291748,338
817.4104,329
817.529053,334
817.647644,328
817.766235,332
817.884949,329
818.00354,342
818.122192,328
818.240845,318
818.359436,321
818.478088,334
818.59668,325
818.715271,311
818.833923,325
818.952515,328
819.071106,333
819.189758,325
819.30835,312
819.426941,318
819.545532,332
819.664124,315
819.782715,332
819.901306,331
820.019897,326
820.138489,303
820.25708,315
820.375671,322
820.494202,326
820.612732,331
820.731384,327
820.849915,317
820.968506,319
821.087097,341
821.205627,316
821.324158,330
821.442749,331
821.561279,326
821.679871,328
821.798401,330
821.916931,324
822.035461,333
822.154053,319
822.272583,326
822.391174,325
822.509583,322
822.628174,327
822.746704,327
822.865234,319
822.983765,311
823.102295,334
823.220825,318
823.339294,330
823.457825,323
823.576355,318
823.694824,319
823.813354,321
823.931885,317
824.050354,326
824.168884,329
824.287354,328
824.405823,323
824.524353,309
824.642822,326
824.761353,325
824.879822,312
824.998291,331
825.116699,331
825.235291,315
825.353699,323
825.472168,318
825.590637,319
825.709106,323
825.827576,326
825.946045,316
826.064453,318
826.182983,322
826.301392,318
826.4198,313
826.53833,319
826.656738,314
826.775208,312
826.893677,320
827.012024,329
827.130493,338
827.248962,323
827.36731,311
827.485779,320
827.604248,316
827.722595,328
827.841064,313
827.959412,326
828.077942,327
828.196289,335
828.314636,327
828.433105,313
828.551514,313
828.669861,324
828.78833,308
828.906677,325
829.025085,300
829.143433,331
829.261841,325
829.38031,323
829.498657,321
829.617004,325
829.735413,332
829.85376,312
829.972107,324
830.090515,322
830.208862,322
830.327209,328
830.445557,315
830.563904,315
830.682312,319
830.800659,305
830.919006,326
831.037354,305
831.155701,317
831.274048,317
831.392395,313
831.51062,323
831.629028,324
831.747314,322
831.865662,328
831.984009,317
832.102356,324
832.220642,322
832.338928,328
832.457275,319
832.575623,321
832.693909,333
832.812134,317
832.930481,321
833.048828,302
833.167114,330
833.2854,319
833.403687,325
833.521973,321
833.640259,315
833.758545,303
833.876831,317
833.995056,325
834.113281,312
834.231628,324
834.349915,318
834.468201,332
834.586426,313
834.704651,323
834.822998,317
834.941162,315
835.059448,317
835.177673,313
835.295959,320
835.414246,319
835.53241,320
835.650635,321
835.768921,312
835.887146,316
836.005371,312
836.123596,330
836.241821,319
836.360046,317
836.478271,311
836.596497,324
836.714722,309
836.832886,309
836.95105,324
837.069336,313
837.1875,325
837.305725,332
837.423889,326
837.542053,320
837.660339,313
837.778503,323
837.896667,320
838.014832,326
838.132996,334
838.25116,313
838.369385,321
838.487488,324
838.605713,314
838.723877,324
838.84198,329
838.960205,326
839.078308,328
839.196472,319
839.314636,308
839.4328,320
839.550964,314
839.669067,320
839.787231,336
839.905396,323
840.023499,306
840.141602,315
840.259766,317
840.377869,326
840.495972,313
840.614136,301
840.732239,314
840.850342,312
840.968445,319
841.086548,323
841.204651,327
841.322754,320
841.440918,318
841.55896,327
841.677002,318
841.795166,320
841.913208,316
842.031311,333
842.149353,314
842.267456,315
842.385498,329
842.503601,306
842.621643,312
842.739746,323
842.857788,308
842.97583,321
843.093933,327
843.211975,313
843.330017,323
843.44812,317
843.566101,323
843.684204,315
843.802246,324
843.920227,321
844.038269,326
844.156311,326
844.274292,337
844.392395,329
844.510376,320
844.628357,317
844.74646,324
844.864441,329
844.982422,321
845.100403,330
845.218384,328
845.336426,321
845.454468,322
845.572449,327
845.69043,313
845.808411,319
845.926453,326
846.044373,327
846.162354,332
846.280396,318
846.398315,312
846.516296,320
846.634216,335
846.752197,321
846.870178,319
846.988098,328
847.106079,320
847.22406,314
847.34198,323
847.4599,333
847.577881,311
847.695801,334
847.813782,323
847.931641,329
848.049561,320
848.167603,312
848.285461,318
848.403381,321
848.521362,319
848.639221,327
848.75708,328
848.875,323
848.99292,339
849.110901,321
849.22876,324
849.34668,320
849.464539,315
849.582458,318
849.700317,328
849.818176,323
849.936096,338
850.053955,309
850.171875,314
850.289673,316
850.407593,321
850.525452,320
850.643311,324
850.761169,313
850.878967,327
850.996887,323
851.114746,320
851.232544,317
851.350403,329
851.468262,321
851.58606,331
851.703979,327
851.821777,321
851.939636,334
852.057434,318
852.175232,329
852.293091,319
852.410889,313
852.528687,327
852.646545,327
852.764343,322
852.88208,312
852.999939,316
853.117676,330
853.235535,301
853.353271,318
853.471069,337
853.588928,327
853.706604,322
853.824402,316
853.9422,320
854.059998,315
854.177734,309
854.295532,324
854.413269,332
854.531006,325
854.648804,307
854.766541,327
854.884277,323
855.002014,317
855.119751,332
855.237549,320
855.355225,327
855.473022,318
855.590698,326
855.708435,313
855.826172,324
855.943848,307
856.061646,322
856.179321,305
856.296997,325
856.414795,323
856.53241,327
856.650085,320
856.767822,321
856.885559,326
857.003174,323
857.120911,310
857.238586,314
857.356201,314
857.473938,327
857.591614,322
857.709351,321
857.826965,320
857.944641,318
858.062317,318
858.179993,320
858.297668,323
858.415283,319
858.532959,312
858.650574,333
858.768188,324
858.885803,313
859.003479,335
859.121094,325
859.23877,322
859.356384,317
859.473999,326
859.591675,329
859.709229,316
859.826843,319
859.944458,324
860.062012,335
860.179626,310
860.297302,324
860.414856,319
860.532471,318
860.650024,326
860.767639,319
860.885193,319
861.002808,335
861.120361,312
861.237976,336
861.35553,318
861.473022,319
861.590698,328
861.708191,322
861.825745,313
861.943298,317
862.060852,303
862.178406,326
862.295959,315
862.413513,323
862.531006,317
862.64856,322
862.766113,321
862.883667,301
863.00116,318
863.118713,318
863.236206,313
863.353699,321
863.471252,318
863.588745,324
863.706177,315
863.82373,312
863.941162,318
864.058716,320
864.176208,312
864.29364,319
864.411194,320
864.528687,320
864.646118,323
864.763611,312
864.881042,327
864.998535,323
865.116028,318
865.233459,325
865.350891,310
865.468384,316
865.585754,327
865.703308,323
865.820679,319
865.938171,332
866.055542,308
866.173035,320
866.290466,325
866.407837,316
866.52533,317
866.6427,320
866.760071,314
866.877563,321
866.994934,333
867.112305,321
867.229736,320
867.347107,325
867.464539,318
867.58197,314
867.699341,321
867.81665,327
867.934082,322
868.051453,320
868.168823,315
868.286194,325
868.403564,314
868.520935,322
868.638306,329
868.755676,332
868.872986,319
868.990295,323
869.107727,317
869.225037,322
869.342346,332
869.459717,336
869.577026,304
869.694336,331
869.811707,331
869.929016,326
870.046326,326
870.163635,316
870.280945,325
870.398254,316
870.515564,326
870.632812,328
870.750183,323
870.867432,308
870.984741,314
871.102051,316
871.219299,307
871.336609,324
871.453918,308
871.571106,323
871.688416,320
871.805664,320
871.922852,320
872.040222,324
872.157471,314
872.274719,317
872.391968,325
872.509155,329
872.626465,308
872.743652,315
872.860962,319
872.978149,313
873.095337,323
873.212646,313
873.329834,326
873.44696,312
873.564209,319
873.681396,318
873.798645,314
873.915894,328
874.03302,314
874.150208,317
874.267456,326
874.384583,329
874.501831,324
874.618958,332
874.736145,321
874.853333,319
874.970459,327
875.087646,319
875.204834,330
875.32196,325
875.439148,334
875.556274,327
875.673401,329
875.790527,320
875.907715,313
876.024841,308
876.141968,322
876.259094,320
876.376282,317
876.493347,305
876.610474,324
876.7276,315
876.844727,325
876.961853,327
877.078918,323
877.195984,316
877.313171,324
877.430237,311
877.547302,306
877.664368,321
877.781433,335
877.898499,324
878.015625,331
878.13269,322
878.249695,309
878.366821,321
878.483887,322
878.600952,326
878.717957,320
878.834961,320
878.952087,312
879.069092,313
879.186157,315
879.303162,308
879.420227,311
879.537231,326
879.654236,319
879.77124,319
879.888306,315
880.005249,320
880.122314,323
880.239319,324
880.356323,311
880.473328,317
880.590271,317
880.707275,327
880.824341,306
880.941284,321
881.058228,309
881.175232,310
881.292236,321
881.40918,321
881.526123,322
881.643066,321
881.760071,308
881.877014,314
881.993958,311
882.11084,311
882.227783,319
882.344727,308
882.46167,326
882.578613,310
882.695618,308
882.812439,335
882.929382,327
883.046326,328
883.163208,312
883.280151,312
883.397034,307
883.513916,310
883.630798,321
883.747742,313
883.864563,330
883.981506,332
884.098389,320
884.21521,304
884.332153,306
884.448975,310
884.565796,317
884.682678,306
884.7995,316
884.916443,327
885.033264,329
885.150085,324
885.266968,314
885.383789,332
885.500671,326
885.617493,320
885.734314,322
885.851196,332
885.967896,320
886.084717,321
886.201599,334
886.318359,330
886.435181,323
886.552002,325
886.668762,313
886.785645,336
886.902344,322
887.019165,322
887.135925,332
887.252747,321
887.369446,331
887.486267,314
887.603027,320
887.719788,327
887.836548,318
887.953247,303
888.070068,324
888.186829,317
888.303528,311
888.420288,314
888.536987,311
888.653687,321
888.770447,318
888.887146,321
889.003967,327
889.120667,326
889.237305,321
889.354065,319
889.470703,318
889.587463,319
889.704163,318
889.820862,326
889.937561,310
890.054199,303
890.170837,315
890.287598,320
890.404236,313
890.520874,318
890.637634,311
890.754211,312
890.87085,320
890.987549,313
891.104187,307
891.220886,314
891.337463,302
891.454102,328
891.57074,318
891.687378,311
891.804077,308
891.920654,322
892.037231,314
892.15387,308
892.270447,308
892.387085,331
892.503723,311
892.6203,320
892.736877,313
892.853516,317
892.970032,329
893.08667,315
893.203186,320
893.319763,328
893.43634,313
893.552917,322
893.669556,328
893.786011,322
893.902588,325
894.019165,314
894.135681,313
894.252197,315
894.368835,323
894.485291,324
894.601868,316
894.718384,315
894.8349,317
894.951355,310
895.067932,318
895.184448,302
895.300964,312
895.417419,321
895.533936,312
895.650452,329
895.766907,304
895.883423,321
895.999878,314
896.116333,327
896.232849,309
896.349304,314
896.465759,312
896.582214,307
896.698669,317
896.815125,328
896.931641,318
897.048035,329
897.164551,319
897.280884,332
897.397339,323
897.513794,316
897.630249,311
897.746582,314
897.863098,318
897.979431,323
898.095886,312
898.212341,323
898.328674,316
898.445129,314
898.561462,312
898.677795,315
898.794312,322
898.910645,326
899.026978,316
899.143433,320
899.259766,317
899.37616,317
899.492493,311
899.608765,324
899.725159,326
899.841553,324
899.957947,318
900.07428,318
900.190552,317
900.306946,321
900.423157,319
900.53949,320
900.655884,303
900.772156,318
900.888489,328
901.004822,311
901.121033,320
901.237366,322
901.353699,316
901.46991,317
901.586304,319
901.702515,324
901.818787,305
901.93512,326
902.051331,306
902.167603,323
902.283875,328
902.400085,312
902.516418,334
902.632629,319
902.74884,313
902.865112,322
902.981384,319
903.097595,330
903.213867,315
903.330017,312
903.446289,328
903.5625,327
903.67865,333
903.794922,330
903.911072,299
904.027344,311
904.143494,340
904.259705,327
904.375916,316
904.492065,325
904.608215,307
904.724426,314
904.840576,310
904.956726,324
905.072876,321
905.189087,321
905.305176,317
905.421387,319
905.537537,319
905.653687,313
905.769775,315
905.885925,308
906.002014,324
906.118164,327
906.234314,315
906.350403,319
906.466492,311
906.582642,329
906.69873,320
906.814758,327
906.930908,316
907.046936,322
907.163086,299
907.279175,334
907.395264,313
907.511353,319
907.62738,307
907.743408,326
907.859497,320
907.975525,328
908.091553,315
908.207703,313
908.32373,311
908.439758,317
908.555786,294
908.671814,306
908.787842,310
908.90387,329
909.019775,324
909.135864,323
909.251892,322
909.367859,325
909.483826,313
909.599854,314
909.715881,313
909.831848,321
909.947815,319
910.063782,317
910.179749,324
910.295776,326
910.411743,321
910.527649,315
910.643616,317
910.759583,312
910.875488,317
910.991455,326
911.107361,300
911.223267,322
911.339294,315
911.4552,314
911.571106,312
911.687073,319
911.802979,326
911.918823,319
912.034729,315
912.150635,326
912.266602,301
912.382446,332
912.498352,293
912.614197,299
912.730103,303
912.846008,313
792.44574,328
792.56488,377
792.68396,416
792.80304,402
792.92218,363
793.041199,332
793.160339,354
793.279419,358
793.398499,369
793.517578,337
793.636658,353
793.755737,359
793.874817,347
793.993896,373
794.112976,357
794.232056,340
794.351074,344
794.470215,338
794.589233,354
794.708313,328
794.827393,345
794.946411,337
795.065552,348
795.18457,340
795.303589,345
795.422668,344
795.541687,329
795.660767,354
795.779846,347
795.898865,331
796.017883,336
796.136963,337
796.255981,334
796.375061,344
796.49408,354
796.613037,328
796.732117,342
796.851135,327
796.970154,333
797.089233,341
797.208191,331
797.327271,337
797.446228,338
797.565186,323
797.684265,322
797.803223,349
797.922241,345
798.04126,326
798.160278,341
798.279297,336
798.398315,332
798.517273,333
798.636292,345
798.75531,336
798.874268,335
798.993286,323
799.112244,334
799.231323,343
799.350281,327
799.469238,337
799.588257,338
799.707153,333
799.826111,330
799.945129,324
800.064087,346
800.183044,339
800.302063,328
800.421021,318
800.539978,335
800.658936,340
800.777893,326
800.896912,339
801.015747,335
801.134705,337
801.253723,328
801.37262,325
801.491638,337
801.610535,324
801.729492,333
801.84845,341
801.967407,324
802.086243,337
802.205261,335
802.324158,326
802.443115,332
802.562073,324
802.680969,323
802.799927,341
802.918762,330
803.037659,351
803.156677,333
803.275574,334
803.39447,326
803.513428,336
803.632263,331
803.751221,327
803.870117,322
803.989014,324
804.107971,324
804.226746,326
804.345642,344
804.4646,351
804.583496,335
804.702393,326
804.821228,320
804.940125,339
805.059021,331
805.177917,316
805.296814,337
805.415649,339
805.534546,326
805.653442,327
805.772278,327
805.891113,327
806.01001,337
806.128906,332
806.247742,320
806.366577,332
806.485413,328
806.604309,327
806.723145,328
806.84198,337
806.960876,322
807.079712,335
807.198486,332
807.317383,341
807.436218,341
807.554993,332
807.673889,328
807.792725,325
807.91156,322
808.030396,320
808.14917,335
808.268005,331
808.386841,337
808.505676,330
808.624451,340
808.743286,335
808.862122,329
808.980896,334
809.099731,332
809.218506,329
809.337341,323
809.456116,326
809.57489,333
809.693726,316
809.8125,320
809.931274,328
810.050049,319
810.168884,325
810.287659,344
810.406372,330
810.525269,326
810.643982,334
810.762756,325
810.881531,331
811.000305,337
811.11908,321
811.237854,314
811.356567,352
811.475403,343
811.594116,339
811.71283,328
811.831604,339
811.950378,333
812.069153,343
812.187927,327
812.30658,350
812.425415,331
812.544128,330
812.662781,322
812.781616,345
812.900269,326
813.019043,338
813.137756,323
813.256531,329
813.375244,326
813.493896,340
813.612671,331
813.731384,337
813.850037,328
813.96875,335
814.087524,338
814.206238,332
814.324951,338
814.443604,331
814.562256,337
814.68103,328
814.799683,321
814.918335,326
815.037109,331
815.155762,319
815.274475,345
815.393188,311
815.511841,320
815.630554,317
815.749146,326
815.867859,331
815.986572,344
816.105164,328
816.223877,339
816.342529,321
816.461182,324
816.579895,329
816.698486,338
816.817139,338
816.935791,328
817.054504,316
817.173096,324
817.291748,325
817.4104,343
817.529053,326
817.647644,338
817.766235,328
817.884949,317
818.00354,336
818.122192,331
818.240845,311
818.359436,325
818.478088,328
818.59668,317
818.715271,318
818.833923,331
818.952515,325
819.071106,329
819.189758,324
819.30835,316
819.426941,326
819.545532,321
819.664124,325
819.782715,319
819.901306,329
820.019897,322
820.138489,326
820.25708,317
820.375671,313
820.494202,334
820.612732,319
820.731384,325
820.849915,313
820.968506,328
821.087097,321
821.205627,333
821.324158,315
821.442749,309
821.561279,339
821.679871,319
821.798401,325
821.916931,313
822.035461,330
822.154053,311
822.272583,313
822.391174,328
822.509583,317
822.628174,311
822.746704,311
822.865234,327
822.983765,306
823.102295,313
823.220825,321
823.339294,314
823.457825,326
823.576355,318
823.694824,323
823.813354,314
823.931885,331
824.050354,324
824.168884,326
824.287354,329
824.405823,329
824.524353,316
824.642822,337
824.761353,330
824.879822,329
824.998291,326
825.116699,323
825.235291,337
825.353699,309
825.472168,316
825.590637,313
825.709106,308
825.827576,322
825.946045,327
826.064453,334
826.182983,338
826.301392,312
826.4198,318
826.53833,311
826.656738,321
826.775208,327
826.893677,319
827.012024,332
827.130493,322
827.248962,324
827.36731,325
827.485779,325
827.604248,332
827.722595,310
827.841064,317
827.959412,323
828.077942,308
828.196289,340
828.314636,324
828.433105,322
828.551514,316
828.669861,314
828.78833,320
828.906677,310
829.025085,321
829.143433,318
829.261841,315
829.38031,321
829.498657,309
829.617004,322
829.735413,328
829.85376,319
829.972107,305
830.090515,332
830.208862,320
830.327209,326
830.445557,323
830.563904,333
830.682312,315
830.800659,320
830.919006,329
831.037354,316
831.155701,324
831.274048,316
831.392395,322
831.51062,312
831.629028,336
831.747314,334
831.865662,321
831.984009,321
832.102356,324
832.220642,317
832.338928,317
832.457275,315
832.575623,332
832.693909,321
832.812134,305
832.930481,328
833.048828,320
833.167114,321
833.2854,321
833.403687,325
833.521973,317
833.640259,329
833.758545,322
833.876831,326
833.995056,308
834.113281,322
834.231628,330
834.349915,320
834.468201,313
834.586426,316
834.704651,327
834.822998,324
834.941162,309
835.059448,323
835.177673,318
835.295959,316
835.414246,322
835.53241,312
835.650635,330
835.768921,319
835.887146,325
836.005371,329
836.123596,326
836.241821,327
836.360046,323
836.478271,319
836.596497,321
836.714722,331
836.832886,330
836.95105,315
837.069336,319
837.1875,325
837.305725,316
837.423889,308
837.542053,327
837.660339,315
837.778503,318
837.896667,320
838.014832,315
838.132996,338
838.25116,323
838.369385,315
838.487488,316
838.605713,337
838.723877,317
838.84198,320
838.960205,315
839.078308,310
839.196472,324
839.314636,321
839.4328,328
839.550964,331
839.669067,311
839.787231,313
839.905396,307
840.023499,330
840.141602,329
840.259766,312
840.377869,323
840.495972,314
840.614136,325
840.732239,315
840.850342,329
840.968445,324
841.086548,326
841.204651,327
841.322754,308
841.440918,327
841.55896,321
841.677002,325
841.795166,331
841.913208,311
842.031311,320
842.149353,323
842.267456,311
842.385498,336
842.503601,318
842.621643,332
842.739746,324
842.857788,319
842.97583,316
843.093933,321
843.211975,304
843.330017,313
843.44812,319
843.566101,322
843.684204,314
843.802246,312
843.920227,321
844.038269,317
844.156311,322
844.274292,319
844.392395,328
844.510376,325
844.628357,324
844.74646,318
844.864441,326
844.982422,312
845.100403,324
845.218384,318
845.336426,324
845.454468,325
845.572449,334
845.69043,325
845.808411,327
845.926453,322
846.044373,337
846.162354,332
846.280396,326
846.398315,313
846.516296,321
846.634216,320
846.752197,322
846.870178,319
846.988098,322
847.106079,321
847.22406,315
847.34198,321
847.4599,318
847.577881,324
847.695801,326
847.813782,323
847.931641,307
848.049561,314
848.167603,332
848.285461,336
848.403381,319
848.521362,316
848.639221,317
848.75708,318
848.875,307
848.99292,318
849.110901,325
849.22876,324
849.34668,321
849.464539,328
849.582458,318
849.700317,316
849.818176,317
849.936096,315
850.053955,319
850.171875,317
850.289673,306
850.407593,322
850.525452,319
850.643311,323
850.761169,330
850.878967,324
850.996887,315
851.114746,321
851.232544,322
851.350403,324
851.468262,312
851.58606,317
851.703979,311
851.821777,326
851.939636,321
852.057434,324
852.175232,317
852.293091,318
852.410889,332
852.528687,317
852.646545,321
852.764343,307
852.88208,299
852.999939,329
853.117676,320
853.235535,315
853.353271,303
853.471069,312
853.588928,330
853.706604,323
853.824402,326
853.9422,314
854.059998,308
854.177734,326
854.295532,330
854.413269,331
854.531006,330
854.648804,313
854.766541,328
854.884277,323
855.002014,324
855.119751,321
855.237549,329
855.355225,333
855.473022,318
855.590698,307
855.708435,335
855.826172,305
855.943848,325
856.061646,309
856.179321,321
856.296997,309
856.414795,322
856.53241,324
856.650085,313
856.767822,315
856.885559,318
857.003174,329
857.120911,331
857.238586,318
857.356201,316
857.473938,327
857.591614,326
857.709351,325
857.826965,320
857.944641,319
858.062317,322
858.179993,335
858.297668,322
858.415283,326
858.532959,325
858.650574,328
858.768188,316
858.885803,315
859.003479,331
859.121094,326
859.23877,334
859.356384,313
859.473999,325
859.591675,335
859.709229,308
859.826843,315
859.944458,321
860.062012,319
860.179626,321
860.297302,326
860.414856,313
860.532471,324
860.650024,333
860.767639,331
860.885193,311
861.002808,318
861.120361,325
861.237976,322
861.35553,329
861.473022,325
861.590698,317
861.708191,315
861.825745,322
861.943298,331
862.060852,319
862.178406,314
862.295959,313
862.413513,320
862.531006,320
862.64856,321
862.766113,311
862.883667,314
863.00116,324
863.118713,326
863.236206,316
863.353699,317
863.471252,322
863.588745,322
863.706177,319
863.82373,320
863.941162,314
864.058716,323
864.176208,330
864.29364,312
864.411194,320
864.528687,334
864.646118,319
864.763611,322
864.881042,326
864.998535,328
865.116028,335
865.233459,325
865.350891,330
865.468384,319
865.585754,318
865.703308,312
865.820679,319
865.938171,320
866.055542,313
866.173035,307
866.290466,321
866.407837,306
866.52533,327
866.6427,322
866.760071,332
866.877563,321
866.994934,311
867.112305,325
867.229736,332
867.347107,332
867.464539,314
867.58197,320
867.699341,317
867.81665,327
867.934082,315
868.051453,321
868.168823,307
868.286194,332
868.403564,322
868.520935,313
868.638306,327
868.755676,330
868.872986,329
868.990295,329
869.107727,307
869.225037,324
869.342346,312
869.459717,331
869.577026,312
869.694336,335
869.811707,308
869.929016,320
870.046326,337
870.163635,329
870.280945,318
870.398254,328
870.515564,312
870.632812,314
870.750183,323
870.867432,322
870.984741,330
871.102051,317
871.219299,325
871.336609,315
871.453918,320
871.571106,324
871.688416,304
871.805664,323
871.922852,335
872.040222,326
872.157471,332
872.274719,327
872.391968,322
872.509155,320
872.626465,334
872.743652,327
872.860962,338
872.978149,328
873.095337,330
873.212646,319
873.329834,318
873.44696,317
873.564209,321
873.681396,332
873.798645,315
873.915894,330
874.03302,315
874.150208,333
874.267456,328
874.384583,305
874.501831,317
874.618958,322
874.736145,331
874.853333,319
874.970459,325
875.087646,323
875.204834,312
875.32196,320
875.439148,338
875.556274,323
875.673401,327
875.790527,320
875.907715,310
876.024841,319
876.141968,329
876.259094,318
876.376282,324
876.493347,324
876.610474,322
876.7276,333
876.844727,332
876.961853,317
877.078918,311
877.195984,302
877.313171,311
877.430237,330
877.547302,320
877.664368,315
877.781433,307
877.898499,319
878.015625,326
878.13269,320
878.249695,314
878.366821,318
878.483887,301
878.600952,332
878.717957,315
878.834961,332
878.952087,307
879.069092,296
879.186157,316
879.303162,312
879.420227,316
879.537231,323
879.654236,297
879.77124,323
879.888306,315
880.005249,316
880.122314,322
880.239319,330
880.356323,325
880.473328,321
880.590271,316
880.707275,333
880.824341,319
880.941284,322
881.058228,305
881.175232,340
881.292236,320
881.40918,317
881.526123,315
881.643066,318
881.760071,325
881.877014,323
881.993958,307
882.11084,318
882.227783,314
882.344727,333
882.46167,313
882.578613,327
882.695618,324
882.812439,319
882.929382,315
883.046326,327
883.163208,328
883.280151,319
883.397034,323
883.513916,315
883.630798,322
883.747742,319
883.864563,308
883.981506,317
884.098389,316
884.21521,329
884.332153,312
884.448975,330
884.565796,320
884.682678,335
884.7995,317
884.916443,316
885.033264,333
885.150085,333
885.266968,340
885.383789,336
885.500671,325
885.617493,341
885.734314,316
885.851196,327
885.967896,319
886.084717,324
886.201599,329
886.318359,327
886.435181,328
886.552002,330
886.668762,325
886.785645,319
886.902344,314
887.019165,325
887.135925,338
887.252747,326
887.369446,320
887.486267,328
887.603027,317
887.719788,304
887.836548,322
887.953247,323
888.070068,319
888.186829,319
888.303528,325
888.420288,312
888.536987,326
888.653687,320
888.770447,316
888.887146,321
889.003967,310
889.120667,318
889.237305,318
889.354065,321
889.470703,323
889.587463,312
889.704163,314
889.820862,311
889.937561,308
890.054199,332
890.170837,300
890.287598,327
890.404236,317
890.520874,322
890.637634,303
890.754211,311
890.87085,321
890.987549,306
891.104187,329
891.220886,309
891.337463,311
891.454102,309
891.57074,320
891.687378,321
891.804077,324
891.920654,319
892.037231,311
892.15387,316
892.270447,314
892.387085,320
892.503723,327
892.6203,322
892.736877,311
892.853516,321
892.970032,314
893.08667,316
893.203186,321
893.319763,321
893.43634,311
893.552917,310
893.669556,317
893.786011,313
893.902588,310
894.019165,328
894.135681,316
894.252197,318
894.368835,327
894.485291,319
894.601868,312
894.718384,322
894.8349,303
894.951355,317
895.067932,319
895.184448,322
895.300964,313
895.417419,307
895.533936,315
895.650452,308
895.766907,320
895.883423,323
895.999878,300
896.116333,322
896.232849,306
896.349304,326
896.465759,312
896.582214,315
896.698669,317
896.815125,319
896.931641,318
897.048035,322
897.164551,317
897.280884,317
897.397339,312
897.513794,340
897.630249,327
897.746582,323
897.863098,328
897.979431,323
898.095886,314
898.212341,308
898.328674,324
898.445129,314
898.561462,317
898.677795,324
898.794312,320
898.910645,314
899.026978,329
899.143433,327
899.259766,317
899.37616,319
899.492493,322
899.608765,307
899.725159,312
899.841553,319
899.957947,305
900.07428,315
900.190552,324
900.306946,309
900.423157,317
900.53949,320
900.655884,315
900.772156,318
900.888489,318
901.004822,331
901.121033,319
901.237366,312
901.353699,313
901.46991,319
901.586304,324
901.702515,316
901.818787,318
901.93512,325
902.051331,327
902.167603,325
902.283875,329
902.400085,321
902.516418,332
902.632629,323
902.74884,319
902.865112,318
902.981384,315
903.097595,337
903.213867,300
903.330017,340
903.446289,323
903.5625,309
903.67865,314
903.794922,316
903.911072,320
904.027344,326
904.143494,314
904.259705,314
904.375916,316
904.492065,318
904.608215,313
904.724426,325
904.840576,307
904.956726,332
905.072876,322
905.189087,317
905.305176,315
905.421387,318
905.537537,319
905.653687,324
905.769775,311
905.885925,325
906.002014,339
906.118164,319
906.234314,319
906.350403,310
906.466492,304
906.582642,323
906.69873,311
906.814758,324
906.930908,318
907.046936,326
907.163086,312
907.279175,314
907.395264,311
907.511353,312
907.62738,312
907.743408,322
907.859497,312
907.975525,328
908.091553,310
908.207703,323
908.32373,314
908.439758,316
908.555786,304
908.671814,336
908.787842,314
908.90387,324
909.019775,316
909.135864,333
909.251892,315
909.367859,325
909.483826,314
909.599854,318
909.715881,314
909.831848,318
909.947815,304
910.063782,320
910.179749,321
910.295776,319
910.411743,334
910.527649,323
910.643616,322
910.759583,309
910.875488,324
910.991455,325
911.107361,319
911.223267,323
911.339294,326
911.4552,316
911.571106,306
911.687073,329
911.802979,299
911.918823,315
912.034729,326
912.150635,323
912.266602,306
912.382446,312
912.498352,312
912.614197,315
912.730103,309
912.846008,328
792.44574,331
792.56488,363
792.68396,417
792.80304,414
792.92218,364
793.041199,345
793.160339,344
793.279419,369
793.398499,353
793.517578,332
793.636658,364
793.755737,352
793.874817,366
793.993896,356
794.112976,353
794.232056,350
794.351074,357
794.470215,364
794.589233,339
794.708313,342
794.827393,341
794.946411,347
795.065552,354
795.18457,345
795.303589,350
795.422668,335
795.541687,338
795.660767,341
795.779846,341
795.898865,347
796.017883,327
796.136963,328
796.255981,345
796.375061,326
796.49408,345
796.613037,330
796.732117,336
796.851135,349
796.970154,340
797.089233,331
797.208191,329
797.327271,337
797.446228,338
797.565186,331
797.684265,341
797.803223,341
797.922241,334
798.04126,340
798.160278,344
798.279297,328
798.398315,343
798.517273,334
798.636292,333
798.75531,345
798.874268,344
798.993286,341
799.112244,338
799.231323,322
799.350281,334
799.469238,337
799.588257,335
799.707153,333
799.826111,339
799.945129,330
800.064087,324
800.183044,339
800.302063,318
800.421021,333
800.539978,334
800.658936,328
800.777893,337
800.896912,339
801.015747,332
801.134705,326
801.253723,343
801.37262,325
801.491638,314
801.610535,344
801.729492,337
801.84845,320
801.967407,343
802.086243,339
802.205261,334
802.324158,338
802.443115,319
802.562073,340
802.680969,336
802.799927,335
802.918762,323
803.037659,326
803.156677,336
803.275574,339
803.39447,334
803.513428,320
803.632263,325
803.751221,334
803.870117,339
803.989014,340
804.107971,328
804.226746,346
804.345642,329
804.4646,328
804.583496,334
804.702393,336
804.821228,339
804.940125,316
805.059021,333
805.177917,322
805.296814,335
805.415649,322
805.534546,326
805.653442,323
805.772278,340
805.891113,325
806.01001,331
806.128906,320
806.247742,332
806.366577,322
806.485413,315
806.604309,337
806.723145,325
806.84198,328
806.960876,326
807.079712,315
807.198486,339
807.317383,327
807.436218,340
807.554993,336
807.673889,342
807.792725,321
807.91156,346
808.030396,330
808.14917,326
808.268005,330
808.386841,328
808.505676,334
808.624451,333
808.743286,320
808.862122,334
808.980896,325
809.099731,322
809.218506,337
809.337341,326
809.456116,324
809.57489,338
809.693726,333
809.8125,321
809.931274,329
810.050049,332
810.168884,334
810.287659,333
810.406372,326
810.525269,328
810.643982,308
810.762756,331
810.881531,326
811.000305,329
811.11908,327
811.237854,335
811.356567,322
811.475403,326
811.594116,319
811.71283,349
811.831604,312
811.950378,348
812.069153,332
812.187927,338
812.30658,328
812.425415,333
812.544128,328
812.662781,320
812.781616,333
812.900269,311
813.019043,324
813.137756,329
813.256531,329
813.375244,333
813.493896,334
813.612671,332
813.731384,323
813.850037,321
813.96875,327
814.087524,329
814.206238,330
814.324951,329
814.443604,331
814.562256,318
814.68103,336
814.799683,338
814.918335,329
815.037109,329
815.155762,322
815.274475,314
815.393188,336
815.511841,336
815.630554,336
815.749146,315
815.867859,342
815.986572,324
816.105164,343
816.223877,331
816.342529,329
816.461182,326
816.579895,324
816.698486,345
816.817139,332
816.935791,336
817.054504,330
817.173096,325
817.291748,342
817.4104,332
817.529053,333
817.647644,316
817.766235,320
817.884949,322
818.00354,324
818.122192,322
818.240845,326
818.359436,323
818.478088,323
818.59668,320
818.715271,338
818.833923,320
818.952515,323
819.071106,322
819.189758,313
819.30835,321
819.426941,298
819.545532,329
819.664124,319
819.782715,325
819.901306,332
820.019897,336
820.138489,327
820.25708,329
820.375671,320
820.494202,314
820.612732,318
820.731384,313
820.849915,315
820.968506,326
821.087097,338
821.205627,324
821.324158,322
821.442749,321
821.561279,333
821.679871,316
821.798401,323
821.916931,316
822.035461,323
822.154053,325
822.272583,324
822.391174,334
822.509583,324
822.628174,307
822.746704,314
822.865234,320
822.983765,316
823.102295,325
823.220825,323
823.339294,316
823.457825,325
823.576355,323
823.694824,313
823.813354,303
823.931885,319
824.050354,315
824.168884,334
824.287354,314
824.405823,332
824.524353,316
824.642822,323
824.761353,320
824.879822,309
824.998291,317
825.116699,306
825.235291,315
825.353699,328
825.472168,320
825.590637,339
825.709106,331
825.827576,309
825.946045,318
826.064453,334
826.182983,312
826.301392,321
826.4198,315
826.53833,325
826.656738,320
826.775208,321
826.893677,304
827.012024,319
827.130493,310
827.248962,317
827.36731,310
827.485779,326
827.604248,325
827.722595,326
827.841064,322
827.959412,319
828.077942,316
828.196289,323
828.314636,322
828.433105,307
828.551514,311
828.669861,329
828.78833,315
828.906677,315
829.025085,308
829.143433,320
829.261841,318
829.38031,331
829.498657,320
829.617004,308
829.735413,324
829.85376,322
829.972107,310
830.090515,319
830.208862,318
830.327209,332
830.445557,308
830.563904,312
830.682312,323
830.800659,311
830.919006,324
831.037354,338
831.155701,323
831.274048,320
831.392395,316
831.51062,314
831.629028,318
831.747314,309
831.865662,327
831.984009,324
832.102356,311
832.220642,324
832.338928,328
832.457275,333
832.575623,318
832.693909,322
832.812134,319
832.930481,317
833.048828,324
833.167114,313
833.2854,333
833.403687,312
833.521973,330
833.640259,327
833.758545,317
833.876831,304
833.995056,321
834.113281,326
834.231628,331
834.349915,299
834.468201,319
834.586426,320
834.704651,325
834.822998,319
834.941162,321
835.059448,320
835.177673,322
835.295959,311
835.414246,329
835.53241,318
835.650635,321
835.768921,315
835.887146,316
836.005371,318
836.123596,315
836.241821,321
836.360046,311
836.478271,325
836.596497,315
836.714722,314
836.832886,325
836.95105,319
837.069336,337
837.1875,316
837.305725,339
837.423889,321
837.542053,308
837.660339,317
837.778503,328
837.896667,309
838.014832,322
838.132996,323
838.25116,315
838.369385,320
838.487488,318
838.605713,324
838.723877,313
838.84198,320
838.960205,316
839.078308,316
839.196472,320
839.314636,316
839.4328,322
839.550964,327
839.669067,316
839.787231,324
839.905396,311
840.023499,324
840.141602,312
840.259766,327
840.377869,334
840.495972,313
840.614136,322
840.732239,309
840.850342,324
840.968445,318
841.086548,328
841.204651,325
841.322754,315
841.440918,335
841.55896,320
841.677002,313
841.795166,320
841.913208,313
842.031311,323
842.149353,312
842.267456,323
842.385498,327
842.503601,324
842.621643,323
842.739746,306
842.857788,319
842.97583,334
843.093933,326
843.211975,321
843.330017,324
843.44812,303
843.566101,313
843.684204,323
843.802246,322
843.920227,320
844.038269,311
844.156311,325
844.274292,325
844.392395,317
844.510376,337
844.628357,307
844.74646,326
844.864441,324
844.982422,325
845.100403,323
845.218384,314
845.336426,326
845.454468,316
845.572449,326
845.69043,321
845.808411,317
845.926453,320
846.044373,312
846.162354,325
846.280396,314
846.398315,316
846.516296,322
846.634216,317
846.752197,311
846.870178,324
846.988098,323
847.106079,326
847.22406,323
847.34198,310
847.4599,313
847.577881,316
847.695801,340
847.813782,334
847.931641,304
848.049561,317
848.167603,309
848.285461,322
848.403381,322
848.521362,323
848.639221,329
848.75708,316
848.875,310
848.99292,326
849.110901,319
849.22876,319
849.34668,316
849.464539,330
849.582458,324
849.700317,322
849.818176,322
849.936096,326
850.053955,325
850.171875,314
850.289673,319
850.407593,331
850.525452,322
850.643311,310
850.761169,322
850.878967,324
850.996887,313
851.114746,330
851.232544,319
851.350403,311
851.468262,320
851.58606,322
851.703979,312
851.821777,320
851.939636,310
852.057434,316
852.175232,313
852.293091,318
852.410889,327
852.528687,324
852.646545,307
852.764343,317
852.88208,319
852.999939,323
853.117676,318
853.235535,322
853.353271,327
853.471069,326
853.588928,331
853.706604,326
853.824402,321
853.9422,315
854.059998,303
854.177734,325
854.295532,317
854.413269,334
854.531006,314
854.648804,323
854.766541,315
854.884277,326
855.002014,310
855.119751,339
855.237549,317
855.355225,329
855.473022,325
855.590698,317
855.708435,335
855.826172,313
855.943848,317
856.061646,323
856.179321,313
856.296997,323
856.414795,320
856.53241,326
856.650085,319
856.767822,325
856.885559,330
857.003174,320
857.120911,308
857.238586,312
857.356201,325
857.473938,328
857.591614,319
857.709351,324
857.826965,322
857.944641,322
858.062317,317
858.179993,316
858.297668,325
858.415283,307
858.532959,333
858.650574,313
858.768188,317
858.885803,310
859.003479,316
859.121094,330
859.23877,322
859.356384,329
859.473999,319
859.591675,314
859.709229,320
859.826843,319
859.944458,330
860.062012,326
860.179626,313
860.297302,307
860.414856,327
860.532471,325
860.650024,309
860.767639,332
860.885193,309
861.002808,320
861.120361,322
861.237976,339
861.35553,330
861.473022,323
861.590698,314
861.708191,326
861.825745,317
861.943298,320
862.060852,304
862.178406,328
862.295959,322
862.413513,304
862.531006,320
862.64856,312
862.766113,327
862.883667,313
863.00116,312
863.118713,315
863.236206,306
863.353699,307
863.471252,322
863.588745,322
863.706177,303
863.82373,314
863.941162,308
864.058716,324
864.176208,334
864.29364,308
864.411194,305
864.528687,325
864.646118,315
864.763611,317
864.881042,325
864.998535,322
865.116028,325
865.233459,315
865.350891,323
865.468384,321
865.585754,301
865.703308,311
865.820679,326
865.938171,324
866.055542,333
866.173035,296
866.290466,321
866.407837,317
866.52533,315
866.6427,312
866.760071,311
866.877563,313
866.994934,311
867.112305,336
867.229736,330
867.347107,318
867.464539,324
867.58197,321
867.699341,313
867.81665,337
867.934082,308
868.051453,325
868.168823,317
868.286194,326
868.403564,321
868.520935,314
868.638306,322
868.755676,330
868.872986,325
868.990295,332
869.107727,318
869.225037,326
869.342346,316
869.459717,330
869.577026,317
869.694336,320
869.811707,328
869.929016,332
870.046326,323
870.163635,323
870.280945,323
870.398254,325
870.515564,326
870.632812,331
870.750183,317
870.867432,321
870.984741,327
871.102051,311
871.219299,321
871.336609,326
871.453918,317
871.571106,333
871.688416,318
871.805664,331
871.922852,315
872.040222,328
872.157471,317
872.274719,324
872.391968,316
872.509155,322
872.626465,316
872.743652,328
872.860962,309
872.978149,332
873.095337,323
873.212646,327
873.329834,312
873.44696,325
873.564209,316
873.681396,327
873.798645,326
873.915894,323
874.03302,318
874.150208,320
874.267456,310
874.384583,320
874.501831,337
874.618958,311
874.736145,323
874.853333,338
874.970459,320
875.087646,338
875.204834,327
875.32196,334
875.439148,306
875.556274,315
875.673401,319
875.790527,325
875.907715,320
876.024841,320
876.141968,323
876.259094,316
876.376282,307
876.493347,331
876.610474,309
876.7276,309
876.844727,322
876.961853,313
877.078918,312
877.195984,307
877.313171,325
877.430237,312
877.547302,313
877.664368,333
877.781433,300
877.898499,339
878.015625,311
878.13269,314
878.249695,315
878.366821,317
878.483887,316
878.600952,331
878.717957,310
878.834961,309
878.952087,307
879.069092,310
879.186157,314
879.303162,325
879.420227,323
879.537231,307
879.654236,317
879.77124,300
879.888306,319
880.005249,328
880.122314,320
880.239319,304
880.356323,320
880.473328,319
880.590271,320
880.707275,314
880.824341,316
880.941284,321
881.058228,307
881.175232,325
881.292236,330
881.40918,304
881.526123,314
881.643066,320
881.760071,314
881.877014,323
881.993958,304
882.11084,330
882.227783,309
882.344727,312
882.46167,308
882.578613,325
882.695618,328
882.812439,313
882.929382,324
883.046326,314
883.163208,325
883.280151,315
883.397034,317
883.513916,320
883.630798,318
883.747742,321
883.864563,318
883.981506,323
884.098389,331
884.21521,323
884.332153,312
884.448975,317
884.565796,317
884.682678,328
884.7995,317
884.916443,304
885.033264,330
885.150085,331
885.266968,328
885.383789,314
885.500671,323
885.617493,336
885.734314,321
885.851196,324
885.967896,310
886.084717,317
886.201599,315
886.318359,331
886.435181,315
886.552002,327
886.668762,319
886.785645,322
886.902344,324
887.019165,325
887.135925,329
887.252747,306
887.369446,339
887.486267,322
887.603027,336
887.719788,332
887.836548,315
887.953247,331
888.070068,313
888.186829,312
888.303528,311
888.420288,335
888.536987,318
888.653687,323
888.770447,310
888.887146,314
889.003967,307
889.120667,325
889.237305,313
889.354065,326
889.470703,322
889.587463,327
889.704163,305
889.820862,306
889.937561,312
890.054199,331
890.170837,313
890.287598,313
890.404236,317
890.520874,324
890.637634,318
890.754211,317
890.87085,310
890.987549,328
891.104187,311
891.220886,317
891.337463,310
891.454102,320
891.57074,316
891.687378,323
891.804077,328
891.920654,307
892.037231,302
892.15387,311
892.270447,321
892.387085,329
892.503723,321
892.6203,311
892.736877,324
892.853516,328
892.970032,320
893.08667,308
893.203186,301
893.319763,319
893.43634,307
893.552917,311
893.669556,317
893.786011,322
893.902588,311
894.019165,329
894.135681,323
894.252197,328
894.368835,320
894.485291,331
894.601868,334
894.718384,316
894.8349,331
894.951355,327
895.067932,325
895.184448,318
895.300964,306
895.417419,337
895.533936,313
895.650452,313
895.766907,325
895.883423,326
895.999878,308
896.116333,321
896.232849,315
896.349304,319
896.465759,308
896.582214,326
896.698669,307
896.815125,327
896.931641,320
897.048035,314
897.164551,316
897.280884,324
897.397339,323
897.513794,321
897.630249,314
897.746582,303
897.863098,322
897.979431,318
898.095886,319
898.212341,318
898.328674,300
898.445129,321
898.561462,310
898.677795,328
898.794312,321
898.910645,324
899.026978,326
899.143433,309
899.259766,318
899.37616,325
899.492493,324
899.608765,312
899.725159,315
899.841553,310
899.957947,335
900.07428,331
900.190552,320
900.306946,330
900.423157,316
900.53949,311
900.655884,323
900.772156,323
900.888489,317
901.004822,333
901.121033,310
901.237366,317
901.353699,321
901.46991,319
901.586304,328
901.702515,310
901.818787,313
901.93512,311
902.051331,315
902.167603,333
902.283875,302
902.400085,329
902.516418,327
902.632629,311
902.74884,326
902.865112,323
902.981384,315
903.097595,324
903.213867,304
903.330017,323
903.446289,313
903.5625,326
903.67865,324
903.794922,326
903.911072,319
904.027344,317
904.143494,315
904.259705,313
904.375916,313
904.492065,331
904.608215,309
904.724426,319
904.840576,305
904.956726,328
905.072876,320
905.189087,325
905.305176,318
905.421387,327
905.537537,314
905.653687,315
905.769775,313
905.885925,316
906.002014,319
906.118164,311
906.234314,315
906.350403,319
906.466492,326
906.582642,330
906.69873,320
906.814758,333
906.930908,325
907.046936,318
907.163086,317
907.279175,314
907.395264,314
907.511353,320
907.62738,320
907.743408,337
907.859497,315
907.975525,331
908.091553,312
908.207703,307
908.32373,308
908.439758,324
908.555786,322
908.671814,321
908.787842,305
908.90387,317
909.019775,312
909.135864,329
909.251892,305
909.367859,321
909.483826,311
909.599854,317
909.715881,315
909.831848,316
909.947815,304
910.063782,318
910.179749,317
910.295776,324
910.411743,322
910.527649,335
910.643616,313
910.759583,317
910.875488,317
910.991455,327
911.107361,317
911.223267,314
911.339294,321
911.4552,315
911.571106,314
911.687073,328
911.802979,330
911.918823,315
912.034729,317
912.150635,324
912.266602,322
912.382446,323
912.498352,314
912.614197,324
912.730103,322
912.846008,323
