792.44574,321
792.56488,354
792.68396,400
792.80304,373
792.92218,336
793.041199,327
793.160339,325
793.279419,344
793.398499,332
793.517578,316
793.636658,341
793.755737,334
793.874817,349
793.993896,360
794.112976,333
794.232056,318
794.351074,330
794.470215,337
794.589233,330
794.708313,337
794.827393,339
794.946411,332
795.065552,325
795.18457,320
795.303589,350
795.422668,331
795.541687,334
795.660767,325
795.779846,339
795.898865,328
796.017883,338
796.136963,321
796.255981,336
796.375061,343
796.49408,354
796.613037,328
796.732117,340
796.851135,328
796.970154,336
797.089233,327
797.208191,336
797.327271,334
797.446228,320
797.565186,328
797.684265,335
797.803223,334
797.922241,321
798.04126,327
798.160278,339
798.279297,342
798.398315,326
798.517273,321
798.636292,328
798.75531,316
798.874268,332
798.993286,322
799.112244,340
799.231323,317
799.350281,343
799.469238,329
799.588257,339
799.707153,324
799.826111,322
799.945129,320
800.064087,341
800.183044,334
800.302063,345
800.421021,331
800.539978,328
800.658936,324
800.777893,333
800.896912,324
801.015747,337
801.134705,328
801.253723,328
801.37262,334
801.491638,339
801.610535,332
801.729492,336
801.84845,325
801.967407,339
802.086243,325
802.205261,333
802.324158,315
802.443115,334
802.562073,345
802.680969,323
802.799927,344
802.918762,328
803.037659,320
803.156677,337
803.275574,332
803.39447,334
803.513428,325
803.632263,335
803.751221,321
803.870117,339
803.989014,321
804.107971,337
804.226746,325
804.345642,333
804.4646,336
804.583496,336
804.702393,336
804.821228,335
804.940125,337
805.059021,335
805.177917,331
805.296814,343
805.415649,319
805.534546,332
805.653442,330
805.772278,335
805.891113,327
806.01001,333
806.128906,334
806.247742,316
806.366577,341
806.485413,332
806.604309,320
806.723145,345
806.84198,338
806.960876,344
807.079712,324
807.198486,331
807.317383,341
807.436218,340
807.554993,321
807.673889,318
807.792725,312
807.91156,334
808.030396,330
808.14917,349
808.268005,343
808.386841,345
808.505676,328
808.624451,337
808.743286,327
808.862122,342
808.980896,337
809.099731,324
809.218506,328
809.337341,337
809.456116,322
809.57489,326
809.693726,337
809.8125,336
809.931274,340
810.050049,347
810.168884,334
810.287659,327
810.406372,353
810.525269,326
810.643982,327
810.762756,331
810.881531,332
811.000305,328
811.11908,323
811.237854,345
811.356567,316
811.475403,323
811.594116,328
811.71283,330
811.831604,331
811.950378,328
812.069153,326
812.187927,340
812.30658,332
812.425415,335
812.544128,340
812.662781,343
812.781616,332
812.900269,335
813.019043,336
813.137756,343
813.256531,324
813.375244,319
813.493896,333
813.612671,340
813.731384,322
813.850037,345
813.96875,330
814.087524,327
814.206238,337
814.324951,325
814.443604,349
814.562256,335
814.68103,324
814.799683,338
814.918335,325
815.037109,324
815.155762,329
815.274475,331
815.393188,329
815.511841,330
815.630554,330
815.749146,333
815.867859,326
815.986572,333
816.105164,334
816.223877,330
816.342529,334
816.461182,330
816.579895,334
816.698486,334
816.817139,326
816.935791,345
817.054504,331
817.173096,345
817.291748,334
817.4104,336
817.529053,319
817.647644,339
817.766235,334
817.884949,335
818.00354,327
818.122192,328
818.240845,329
818.359436,330
818.478088,327
818.59668,325
818.715271,308
818.833923,325
818.952515,337
819.071106,330
819.189758,319
819.30835,325
819.426941,321
819.545532,322
819.664124,319
819.782715,324
819.901306,317
820.019897,325
820.138489,323
820.25708,314
820.375671,322
820.494202,336
820.612732,315
820.731384,328
820.849915,306
820.968506,315
821.087097,318
821.205627,335
821.324158,312
821.442749,312
821.561279,320
821.679871,314
821.798401,317
821.916931,314
822.035461,317
822.154053,322
822.272583,310
822.391174,317
822.509583,308
822.628174,307
822.746704,326
822.865234,310
822.983765,309
823.102295,305
823.220825,313
823.339294,326
823.457825,319
823.576355,330
823.694824,316
823.813354,328
823.931885,323
824.050354,319
824.168884,308
824.287354,308
824.405823,315
824.524353,333
824.642822,313
824.761353,325
824.879822,333
824.998291,320
825.116699,313
825.235291,326
825.353699,319
825.472168,328
825.590637,313
825.709106,327
825.827576,321
825.946045,324
826.064453,322
826.182983,323
826.301392,309
826.4198,321
826.53833,322
826.656738,326
826.775208,326
826.893677,325
827.012024,306
827.130493,321
827.248962,324
827.36731,319
827.485779,302
827.604248,333
827.722595,321
827.841064,314
827.959412,318
828.077942,316
828.196289,322
828.314636,317
828.433105,308
828.551514,320
828.669861,321
828.78833,322
828.906677,310
829.025085,329
829.143433,319
829.261841,309
829.38031,331
829.498657,327
829.617004,308
829.735413,328
829.85376,310
829.972107,315
830.090515,331
830.208862,323
830.327209,325
830.445557,317
830.563904,314
830.682312,315
830.800659,324
830.919006,322
831.037354,318
831.155701,310
831.274048,311
831.392395,316
831.51062,305
831.629028,312
831.747314,312
831.865662,321
831.984009,314
832.102356,322
832.220642,310
832.338928,323
832.457275,315
832.575623,319
832.693909,307
832.812134,332
832.930481,321
833.048828,314
833.167114,325
833.2854,322
833.403687,325
833.521973,313
833.640259,304
833.758545,326
833.876831,308
833.995056,331
834.113281,315
834.231628,326
834.349915,303
834.468201,333
834.586426,328
834.704651,331
834.822998,324
834.941162,334
835.059448,301
835.177673,317
835.295959,321
835.414246,316
835.53241,321
835.650635,315
835.768921,321
835.887146,323
836.005371,319
836.123596,319
836.241821,309
836.360046,321
836.478271,327
836.596497,309
836.714722,327
836.832886,319
836.95105,314
837.069336,327
837.1875,321
837.305725,317
837.423889,318
837.542053,318
837.660339,316
837.778503,310
837.896667,310
838.014832,324
838.132996,306
838.25116,316
838.369385,294
838.487488,312
838.605713,313
838.723877,318
838.84198,312
838.960205,324
839.078308,319
839.196472,325
839.314636,310
839.4328,317
839.550964,316
839.669067,314
839.787231,311
839.905396,331
840.023499,314
840.141602,304
840.259766,326
840.377869,316
840.495972,316
840.614136,318
840.732239,319
840.850342,321
840.968445,306
841.086548,323
841.204651,318
841.322754,311
841.440918,320
841.55896,313
841.677002,322
841.795166,321
841.913208,313
842.031311,327
842.149353,317
842.267456,330
842.385498,311
842.503601,312
842.621643,328
842.739746,313
842.857788,320
842.97583,316
843.093933,316
843.211975,328
843.330017,317
843.44812,334
843.566101,313
843.684204,319
843.802246,315
843.920227,319
844.038269,328
844.156311,324
844.274292,301
844.392395,307
844.510376,314
844.628357,319
844.74646,308
844.864441,312
844.982422,306
845.100403,315
845.218384,322
845.336426,315
845.454468,321
845.572449,318
845.69043,315
845.808411,320
845.926453,313
846.044373,300
846.162354,315
846.280396,300
846.398315,321
846.516296,313
846.634216,314
846.752197,314
846.870178,314
846.988098,315
847.106079,321
847.22406,321
847.34198,316
847.4599,327
847.577881,320
847.695801,322
847.813782,300
847.931641,317
848.049561,305
848.167603,314
848.285461,315
848.403381,316
848.521362,313
848.639221,322
848.75708,305
848.875,317
848.99292,313
849.110901,321
849.22876,311
849.34668,322
849.464539,325
849.582458,314
849.700317,318
849.818176,314
849.936096,314
850.053955,311
850.171875,306
850.289673,309
850.407593,305
850.525452,313
850.643311,309
850.761169,322
850.878967,318
850.996887,314
851.114746,313
851.232544,327
851.350403,310
851.468262,315
851.58606,318
851.703979,316
851.821777,317
851.939636,317
852.057434,325
852.175232,322
852.293091,315
852.410889,310
852.528687,303
852.646545,324
852.764343,306
852.88208,316
852.999939,317
853.117676,324
853.235535,310
853.353271,327
853.471069,322
853.588928,325
853.706604,310
853.824402,309
853.9422,323
854.059998,308
854.177734,305
854.295532,314
854.413269,313
854.531006,323
854.648804,309
854.766541,306
854.884277,303
855.002014,317
855.119751,313
855.237549,318
855.355225,317
855.473022,310
855.590698,310
855.708435,323
855.826172,303
855.943848,326
856.061646,311
856.179321,312
856.296997,315
856.414795,320
856.53241,313
856.650085,309
856.767822,318
856.885559,327
857.003174,304
857.120911,315
857.238586,313
857.356201,316
857.473938,316
857.591614,318
857.709351,326
857.826965,322
857.944641,317
858.062317,314
858.179993,314
858.297668,330
858.415283,308
858.532959,320
858.650574,318
858.768188,312
858.885803,311
859.003479,330
859.121094,325
859.23877,314
859.356384,311
859.473999,326
859.591675,313
859.709229,331
859.826843,307
859.944458,312
860.062012,316
860.179626,320
860.297302,320
860.414856,316
860.532471,312
860.650024,318
860.767639,313
860.885193,323
861.002808,320
861.120361,316
861.237976,306
861.35553,311
861.473022,314
861.590698,322
861.708191,315
861.825745,318
861.943298,315
862.060852,319
862.178406,300
862.295959,323
862.413513,315
862.531006,319
862.64856,315
862.766113,312
862.883667,313
863.00116,319
863.118713,314
863.236206,329
863.353699,318
863.471252,323
863.588745,310
863.706177,304
863.82373,311
863.941162,298
864.058716,314
864.176208,310
864.29364,306
864.411194,327
864.528687,307
864.646118,322
864.763611,317
864.881042,313
864.998535,307
865.116028,330
865.233459,304
865.350891,324
865.468384,313
865.585754,306
865.703308,316
865.820679,312
865.938171,327
866.055542,312
866.173035,314
866.290466,329
866.407837,317
866.52533,315
866.6427,319
866.760071,306
866.877563,307
866.994934,320
867.112305,325
867.229736,325
867.347107,320
867.464539,325
867.58197,319
867.699341,328
867.81665,303
867.934082,323
868.051453,316
868.168823,328
868.286194,316
868.403564,328
868.520935,320
868.638306,319
868.755676,309
868.872986,317
868.990295,325
869.107727,323
869.225037,311
869.342346,318
869.459717,322
869.577026,316
869.694336,306
869.811707,304
869.929016,311
870.046326,323
870.163635,315
870.280945,301
870.398254,332
870.515564,309
870.632812,319
870.750183,320
870.867432,307
870.984741,314
871.102051,314
871.219299,316
871.336609,320
871.453918,323
871.571106,310
871.688416,312
871.805664,309
871.922852,312
872.040222,306
872.157471,320
872.274719,309
872.391968,315
872.509155,300
872.626465,329
872.743652,304
872.860962,325
872.978149,311
873.095337,324
873.212646,318
873.329834,318
873.44696,322
873.564209,322
873.681396,308
873.798645,323
873.915894,326
874.03302,314
874.150208,298
874.267456,316
874.384583,322
874.501831,317
874.618958,303
874.736145,317
874.853333,306
874.970459,322
875.087646,302
875.204834,333
875.32196,314
875.439148,316
875.556274,306
875.673401,320
875.790527,324
875.907715,324
876.024841,313
876.141968,319
876.259094,320
876.376282,311
876.493347,312
876.610474,312
876.7276,296
876.844727,306
876.961853,316
877.078918,319
877.195984,329
877.313171,320
877.430237,306
877.547302,313
877.664368,308
877.781433,319
877.898499,307
878.015625,325
878.13269,325
878.249695,318
878.366821,304
878.483887,325
878.600952,314
878.717957,322
878.834961,323
878.952087,318
879.069092,311
879.186157,314
879.303162,321
879.420227,326
879.537231,297
879.654236,326
879.77124,317
879.888306,317
880.005249,304
880.122314,315
880.239319,306
880.356323,332
880.473328,317
880.590271,321
880.707275,320
880.824341,318
880.941284,305
881.058228,319
881.175232,307
881.292236,308
881.40918,310
881.526123,317
881.643066,318
881.760071,331
881.877014,311
881.993958,316
882.11084,312
882.227783,319
882.344727,300
882.46167,298
882.578613,308
882.695618,317
882.812439,309
882.929382,319
883.046326,318
883.163208,327
883.280151,307
883.397034,306
883.513916,311
883.630798,321
883.747742,318
883.864563,305
883.981506,303
884.098389,320
884.21521,308
884.332153,325
884.448975,304
884.565796,326
884.682678,315
884.7995,314
884.916443,303
885.033264,327
885.150085,325
885.266968,323
885.383789,311
885.500671,326
885.617493,315
885.734314,316
885.851196,317
885.967896,312
886.084717,326
886.201599,318
886.318359,318
886.435181,306
886.552002,304
886.668762,313
886.785645,315
886.902344,323
887.019165,327
887.135925,312
887.252747,314
887.369446,325
887.486267,327
887.603027,322
887.719788,316
887.836548,325
887.953247,306
888.070068,327
888.186829,310
888.303528,330
888.420288,308
888.536987,310
888.653687,316
888.770447,318
888.887146,314
889.003967,318
889.120667,298
889.237305,334
889.354065,309
889.470703,314
889.587463,318
889.704163,314
889.820862,322
889.937561,321
890.054199,316
890.170837,323
890.287598,306
890.404236,315
890.520874,304
890.637634,326
890.754211,311
890.87085,321
890.987549,321
891.104187,322
891.220886,303
891.337463,318
891.454102,313
891.57074,315
891.687378,308
891.804077,312
891.920654,309
892.037231,318
892.15387,306
892.270447,313
892.387085,336
892.503723,309
892.6203,321
892.736877,317
892.853516,308
892.970032,328
893.08667,323
893.203186,315
893.319763,328
893.43634,316
893.552917,312
893.669556,312
893.786011,303
893.902588,315
894.019165,322
894.135681,314
894.252197,308
894.368835,330
894.485291,315
894.601868,308
894.718384,316
894.8349,313
894.951355,316
895.067932,316
895.184448,307
895.300964,315
895.417419,313
895.533936,324
895.650452,315
895.766907,315
895.883423,299
895.999878,319
896.116333,319
896.232849,322
896.349304,308
896.465759,312
896.582214,317
896.698669,322
896.815125,309
896.931641,319
897.048035,321
897.164551,322
897.280884,316
897.397339,322
897.513794,309
897.630249,312
897.746582,318
897.863098,324
897.979431,310
898.095886,323
898.212341,300
898.328674,322
898.445129,313
898.561462,327
898.677795,314
898.794312,313
898.910645,323
899.026978,322
899.143433,314
899.259766,303
899.37616,312
899.492493,305
899.608765,314
899.725159,323
899.841553,300
899.957947,325
900.07428,321
900.190552,324
900.306946,311
900.423157,330
900.53949,312
900.655884,306
900.772156,308
900.888489,318
901.004822,315
901.121033,320
901.237366,322
901.353699,320
901.46991,314
901.586304,326
901.702515,328
901.818787,335
901.93512,302
902.051331,325
902.167603,310
902.283875,318
902.400085,316
902.516418,324
902.632629,315
902.74884,327
902.865112,334
902.981384,315
903.097595,315
903.213867,332
903.330017,316
903.446289,316
903.5625,301
903.67865,320
903.794922,317
903.911072,333
904.027344,316
904.143494,323
904.259705,307
904.375916,327
904.492065,304
904.608215,311
904.724426,315
904.840576,310
904.956726,317
905.072876,309
905.189087,310
905.305176,319
905.421387,327
905.537537,327
905.653687,295
905.769775,320
905.885925,319
906.002014,320
906.118164,312
906.234314,323
906.350403,324
906.466492,311
906.582642,320
906.69873,337
906.814758,302
906.930908,314
907.046936,301
907.163086,305
907.279175,308
907.395264,318
907.511353,310
907.62738,325
907.743408,313
907.859497,330
907.975525,328
908.091553,310
908.207703,313
908.32373,307
908.439758,326
908.555786,316
908.671814,310
908.787842,321
908.90387,314
909.019775,317
909.135864,306
909.251892,330
909.367859,309
909.483826,315
909.599854,315
909.715881,309
909.831848,305
909.947815,326
910.063782,306
910.179749,318
910.295776,334
910.411743,318
910.527649,333
910.643616,319
910.759583,310
910.875488,325
910.991455,305
911.107361,328
911.223267,306
911.339294,319
911.4552,328
911.571106,317
911.687073,325
911.802979,319
911.918823,301
912.034729,328
912.150635,299
912.266602,322
912.382446,296
912.498352,328
912.614197,318
912.730103,316
912.846008,314
792.44574,310
792.56488,353
792.68396,411
792.80304,377
792.92218,339
793.041199,322
793.160339,323
793.279419,335
793.398499,345
793.517578,311
793.636658,321
793.755737,337
793.874817,350
793.993896,347
794.112976,340
794.232056,332
794.351074,334
794.470215,335
794.589233,333
794.708313,338
794.827393,335
794.946411,333
795.065552,336
795.18457,338
795.303589,350
795.422668,337
795.541687,340
795.660767,336
795.779846,334
795.898865,331
796.017883,330
796.136963,333
796.255981,335
796.375061,337
796.49408,340
796.613037,340
796.732117,333
796.851135,333
796.970154,330
797.089233,330
797.208191,331
797.327271,331
797.446228,333
797.565186,320
797.684265,333
797.803223,329
797.922241,337
798.04126,335
798.160278,323
798.279297,323
798.398315,347
798.517273,332
798.636292,327
798.75531,322
798.874268,330
798.993286,340
799.112244,331
799.231323,334
799.350281,321
799.469238,316
799.588257,333
799.707153,328
799.826111,340
799.945129,326
800.064087,344
800.183044,329
800.302063,329
800.421021,336
800.539978,330
800.658936,337
800.777893,325
800.896912,326
801.015747,333
801.134705,337
801.253723,328
801.37262,328
801.491638,333
801.610535,327
801.729492,329
801.84845,318
801.967407,339
802.086243,320
802.205261,338
802.324158,321
802.443115,325
802.562073,314
802.680969,336
802.799927,331
802.918762,343
803.037659,325
803.156677,347
803.275574,335
803.39447,327
803.513428,338
803.632263,318
803.751221,333
803.870117,334
803.989014,338
804.107971,326
804.226746,330
804.345642,323
804.4646,328
804.583496,330
804.702393,349
804.821228,333
804.940125,326
805.059021,334
805.177917,334
805.296814,336
805.415649,329
805.534546,336
805.653442,324
805.772278,343
805.891113,326
806.01001,331
806.128906,347
806.247742,328
806.366577,340
806.485413,331
806.604309,331
806.723145,326
806.84198,328
806.960876,352
807.079712,332
807.198486,336
807.317383,333
807.436218,327
807.554993,326
807.673889,320
807.792725,327
807.91156,343
808.030396,329
808.14917,343
808.268005,333
808.386841,325
808.505676,339
808.624451,352
808.743286,323
808.862122,337
808.980896,326
809.099731,331
809.218506,348
809.337341,332
809.456116,326
809.57489,348
809.693726,329
809.8125,326
809.931274,337
810.050049,342
810.168884,346
810.287659,334
810.406372,321
810.525269,332
810.643982,338
810.762756,332
810.881531,336
811.000305,333
811.11908,326
811.237854,338
811.356567,349
811.475403,333
811.594116,339
811.71283,333
811.831604,335
811.950378,345
812.069153,324
812.187927,336
812.30658,327
812.425415,339
812.544128,331
812.662781,342
812.781616,341
812.900269,338
813.019043,331
813.137756,342
813.256531,329
813.375244,331
813.493896,336
813.612671,334
813.731384,331
813.850037,329
813.96875,325
814.087524,334
814.206238,335
814.324951,332
814.443604,353
814.562256,330
814.68103,326
814.799683,337
814.918335,326
815.037109,327
815.155762,334
815.274475,346
815.393188,328
815.511841,337
815.630554,334
815.749146,327
815.867859,329
815.986572,324
816.105164,327
816.223877,324
816.342529,331
816.461182,330
816.579895,322
816.698486,336
816.817139,331
816.935791,328
817.054504,324
817.173096,330
817.291748,323
817.4104,350
817.529053,327
817.647644,335
817.766235,311
817.884949,337
818.00354,334
818.122192,334
818.240845,334
818.359436,341
818.478088,321
818.59668,334
818.715271,307
818.833923,328
818.952515,317
819.071106,332
819.189758,331
819.30835,325
819.426941,328
819.545532,318
819.664124,323
819.782715,336
819.901306,317
820.019897,324
820.138489,313
820.25708,322
820.375671,319
820.494202,324
820.612732,306
820.731384,340
820.849915,314
820.968506,332
821.087097,310
821.205627,328
821.324158,317
821.442749,318
821.561279,317
821.679871,323
821.798401,324
821.916931,328
822.035461,317
822.154053,320
822.272583,315
822.391174,326
822.509583,306
822.628174,328
822.746704,302
822.865234,327
822.983765,327
823.102295,320
823.220825,325
823.339294,322
823.457825,310
823.576355,321
823.694824,311
823.813354,321
823.931885,315
824.050354,315
824.168884,313
824.287354,333
824.405823,323
824.524353,315
824.642822,319
824.761353,323
824.879822,314
824.998291,313
825.116699,315
825.235291,312
825.353699,307
825.472168,325
825.590637,311
825.709106,316
825.827576,308
825.946045,325
826.064453,312
826.182983,316
826.301392,309
826.4198,327
826.53833,331
826.656738,308
826.775208,316
826.893677,322
827.012024,307
827.130493,322
827.248962,315
827.36731,323
827.485779,320
827.604248,313
827.722595,322
827.841064,316
827.959412,324
828.077942,320
828.196289,318
828.314636,328
828.433105,316
828.551514,320
828.669861,308
828.78833,324
828.906677,317
829.025085,326
829.143433,318
829.261841,312
829.38031,320
829.498657,324
829.617004,313
829.735413,331
829.85376,317
829.972107,327
830.090515,317
830.208862,326
830.327209,316
830.445557,323
830.563904,319
830.682312,320
830.800659,304
830.919006,307
831.037354,313
831.155701,313
831.274048,306
831.392395,315
831.51062,301
831.629028,334
831.747314,329
831.865662,319
831.984009,308
832.102356,321
832.220642,303
832.338928,327
832.457275,322
832.575623,307
832.693909,334
832.812134,307
832.930481,328
833.048828,320
833.167114,304
833.2854,325
833.403687,312
833.521973,322
833.640259,315
833.758545,316
833.876831,315
833.995056,323
834.113281,307
834.231628,320
834.349915,319
834.468201,316
834.586426,313
834.704651,334
834.822998,315
834.941162,321
835.059448,312
835.177673,326
835.295959,316
835.414246,326
835.53241,325
835.650635,330
835.768921,308
835.887146,329
836.005371,310
836.123596,319
836.241821,304
836.360046,317
836.478271,298
836.596497,312
836.714722,302
836.832886,328
836.95105,322
837.069336,312
837.1875,321
837.305725,312
837.423889,319
837.542053,322
837.660339,320
837.778503,343
837.896667,313
838.014832,324
838.132996,315
838.25116,330
838.369385,320
838.487488,307
838.605713,324
838.723877,320
838.84198,328
838.960205,320
839.078308,320
839.196472,329
839.314636,306
839.4328,316
839.550964,324
839.669067,314
839.787231,326
839.905396,318
840.023499,320
840.141602,327
840.259766,321
840.377869,315
840.495972,325
840.614136,316
840.732239,307
840.850342,322
840.968445,305
841.086548,327
841.204651,315
841.322754,315
841.440918,302
841.55896,323
841.677002,317
841.795166,310
841.913208,303
842.031311,328
842.149353,323
842.267456,320
842.385498,317
842.503601,323
842.621643,302
842.739746,318
842.857788,309
842.97583,319
843.093933,314
843.211975,321
843.330017,313
843.44812,314
843.566101,311
843.684204,325
843.802246,309
843.920227,329
844.038269,302
844.156311,330
844.274292,317
844.392395,312
844.510376,324
844.628357,304
844.74646,325
844.864441,325
844.982422,325
845.100403,315
845.218384,306
845.336426,318
845.454468,320
845.572449,327
845.69043,320
845.808411,315
845.926453,318
846.044373,319
846.162354,313
846.280396,313
846.398315,334
846.516296,316
846.634216,319
846.752197,314
846.870178,306
846.988098,317
847.106079,315
847.22406,334
847.34198,311
847.4599,330
847.577881,314
847.695801,334
847.813782,323
847.931641,319
848.049561,298
848.167603,323
848.285461,306
848.403381,329
848.521362,316
848.639221,331
848.75708,300
848.875,310
848.99292,312
849.110901,313
849.22876,314
849.34668,309
849.464539,304
849.582458,319
849.700317,326
849.818176,317
849.936096,311
850.053955,324
850.171875,309
850.289673,315
850.407593,304
850.525452,317
850.643311,316
850.761169,313
850.878967,305
850.996887,319
851.114746,317
851.232544,318
851.350403,312
851.468262,316
851.58606,308
851.703979,319
851.821777,310
851.939636,327
852.057434,317
852.175232,323
852.293091,314
852.410889,325
852.528687,310
852.646545,325
852.764343,302
852.88208,316
852.999939,314
853.117676,313
853.235535,312
853.353271,328
853.471069,322
853.588928,307
853.706604,318
853.824402,319
853.9422,321
854.059998,316
854.177734,324
854.295532,315
854.413269,314
854.531006,305
854.648804,323
854.766541,312
854.884277,326
855.002014,317
855.119751,333
855.237549,323
855.355225,305
855.473022,322
855.590698,309
855.708435,311
855.826172,323
855.943848,326
856.061646,323
856.179321,316
856.296997,325
856.414795,329
856.53241,311
856.650085,326
856.767822,317
856.885559,319
857.003174,313
857.120911,302
857.238586,323
857.356201,318
857.473938,305
857.591614,316
857.709351,331
857.826965,328
857.944641,316
858.062317,334
858.179993,320
858.297668,315
858.415283,316
858.532959,317
858.650574,319
858.768188,322
858.885803,303
859.003479,318
859.121094,301
859.23877,315
859.356384,313
859.473999,308
859.591675,313
859.709229,314
859.826843,316
859.944458,316
860.062012,311
860.179626,336
860.297302,308
860.414856,325
860.532471,313
860.650024,311
860.767639,321
860.885193,316
861.002808,309
861.120361,310
861.237976,323
861.35553,324
861.473022,305
861.590698,333
861.708191,301
861.825745,321
861.943298,314
862.060852,333
862.178406,314
862.295959,324
862.413513,316
862.531006,322
862.64856,321
862.766113,330
862.883667,305
863.00116,323
863.118713,325
863.236206,309
863.353699,311
863.471252,310
863.588745,319
863.706177,323
863.82373,312
863.941162,324
864.058716,309
864.176208,318
864.29364,309
864.411194,316
864.528687,327
864.646118,316
864.763611,307
864.881042,314
864.998535,303
865.116028,323
865.233459,309
865.350891,310
865.468384,312
865.585754,313
865.703308,321
865.820679,322
865.938171,318
866.055542,319
866.173035,314
866.290466,313
866.407837,310
866.52533,319
866.6427,317
866.760071,316
866.877563,320
866.994934,324
867.112305,308
867.229736,321
867.347107,308
867.464539,316
867.58197,314
867.699341,318
867.81665,312
867.934082,318
868.051453,322
868.168823,315
868.286194,306
868.403564,328
868.520935,302
868.638306,307
868.755676,325
868.872986,319
868.990295,306
869.107727,296
869.225037,306
869.342346,308
869.459717,315
869.577026,330
869.694336,310
869.811707,321
869.929016,311
870.046326,327
870.163635,325
870.280945,326
870.398254,327
870.515564,324
870.632812,305
870.750183,309
870.867432,315
870.984741,324
871.102051,327
871.219299,312
871.336609,310
871.453918,327
871.571106,326
871.688416,318
871.805664,317
871.922852,324
872.040222,312
872.157471,316
872.274719,312
872.391968,316
872.509155,313
872.626465,306
872.743652,320
872.860962,317
872.978149,319
873.095337,309
873.212646,314
873.329834,320
873.44696,317
873.564209,306
873.681396,318
873.798645,317
873.915894,322
874.03302,324
874.150208,323
874.267456,314
874.384583,316
874.501831,333
874.618958,314
874.736145,323
874.853333,316
874.970459,330
875.087646,310
875.204834,321
875.32196,313
875.439148,321
875.556274,326
875.673401,331
875.790527,317
875.907715,316
876.024841,309
876.141968,331
876.259094,309
876.376282,324
876.493347,316
876.610474,330
876.7276,312
876.844727,325
876.961853,310
877.078918,313
877.195984,323
877.313171,310
877.430237,315
877.547302,315
877.664368,300
877.781433,325
877.898499,314
878.015625,330
878.13269,309
878.249695,309
878.366821,327
878.483887,310
878.600952,309
878.717957,327
878.834961,311
878.952087,323
879.069092,312
879.186157,307
879.303162,304
879.420227,317
879.537231,312
879.654236,332
879.77124,313
879.888306,323
880.005249,322
880.122314,311
880.239319,314
880.356323,332
880.473328,314
880.590271,321
880.707275,317
880.824341,325
880.941284,322
881.058228,325
881.175232,316
881.292236,323
881.40918,309
881.526123,334
881.643066,320
881.760071,304
881.877014,301
881.993958,296
882.11084,315
882.227783,312
882.344727,323
882.46167,313
882.578613,299
882.695618,317
882.812439,314
882.929382,319
883.046326,321
883.163208,320
883.280151,314
883.397034,304
883.513916,316
883.630798,327
883.747742,316
883.864563,320
883.981506,313
884.098389,321
884.21521,319
884.332153,320
884.448975,308
884.565796,332
884.682678,307
884.7995,319
884.916443,312
885.033264,320
885.150085,327
885.266968,310
885.383789,319
885.500671,331
885.617493,314
885.734314,321
885.851196,318
885.967896,334
886.084717,297
886.201599,318
886.318359,304
886.435181,322
886.552002,319
886.668762,321
886.785645,312
886.902344,320
887.019165,327
887.135925,315
887.252747,305
887.369446,319
887.486267,321
887.603027,327
887.719788,313
887.836548,330
887.953247,316
888.070068,314
888.186829,299
888.303528,311
888.420288,313
888.536987,322
888.653687,311
888.770447,313
888.887146,306
889.003967,311
889.120667,329
889.237305,320
889.354065,307
889.470703,324
889.587463,297
889.704163,326
889.820862,329
889.937561,334
890.054199,318
890.170837,309
890.287598,309
890.404236,329
890.520874,307
890.637634,324
890.754211,318
890.87085,315
890.987549,314
891.104187,318
891.220886,321
891.337463,325
891.454102,317
891.57074,307
891.687378,311
891.804077,313
891.920654,312
892.037231,323
892.15387,308
892.270447,324
892.387085,318
892.503723,321
892.6203,319
892.736877,327
892.853516,322
892.970032,329
893.08667,322
893.203186,326
893.319763,315
893.43634,322
893.552917,321
893.669556,313
893.786011,314
893.902588,317
894.019165,312
894.135681,320
894.252197,308
894.368835,322
894.485291,319
894.601868,314
894.718384,320
894.8349,309
894.951355,312
895.067932,317
895.184448,301
895.300964,306
895.417419,299
895.533936,319
895.650452,336
895.766907,310
895.883423,309
895.999878,315
896.116333,321
896.232849,315
896.349304,315
896.465759,319
896.582214,313
896.698669,317
896.815125,318
896.931641,320
897.048035,318
897.164551,323
897.280884,314
897.397339,317
897.513794,302
897.630249,325
897.746582,323
897.863098,320
897.979431,315
898.095886,315
898.212341,305
898.328674,322
898.445129,314
898.561462,310
898.677795,318
898.794312,323
898.910645,311
899.026978,325
899.143433,326
899.259766,319
899.37616,304
899.492493,331
899.608765,313
899.725159,312
899.841553,318
899.957947,314
900.07428,306
900.190552,320
900.306946,310
900.423157,323
900.53949,315
900.655884,314
900.772156,319
900.888489,314
901.004822,307
901.121033,323
901.237366,317
901.353699,330
901.46991,317
901.586304,317
901.702515,324
901.818787,315
901.93512,306
902.051331,320
902.167603,323
902.283875,292
902.400085,311
902.516418,325
902.632629,326
902.74884,329
902.865112,320
902.981384,316
903.097595,320
903.213867,323
903.330017,312
903.446289,312
903.5625,313
903.67865,330
903.794922,319
903.911072,321
904.027344,325
904.143494,310
904.259705,317
904.375916,323
904.492065,320
904.608215,323
904.724426,318
904.840576,321
904.956726,314
905.072876,324
905.189087,316
905.305176,331
905.421387,321
905.537537,332
905.653687,306
905.769775,318
905.885925,317
906.002014,320
906.118164,316
906.234314,322
906.350403,317
906.466492,329
906.582642,311
906.69873,323
906.814758,315
906.930908,331
907.046936,319
907.163086,317
907.279175,312
907.395264,317
907.511353,336
907.62738,325
907.743408,311
907.859497,326
907.975525,317
908.091553,337
908.207703,306
908.32373,303
908.439758,318
908.555786,317
908.671814,313
908.787842,326
908.90387,308
909.019775,317
909.135864,321
909.251892,307
909.367859,304
909.483826,318
909.599854,309
909.715881,318
909.831848,309
909.947815,328
910.063782,312
910.179749,321
910.295776,308
910.411743,315
910.527649,322
910.643616,329
910.759583,324
910.875488,310
910.991455,300
911.107361,325
911.223267,315
911.339294,328
911.4552,300
911.571106,316
911.687073,320
911.802979,323
911.918823,307
912.034729,316
912.150635,308
912.266602,319
912.382446,312
912.498352,305
912.614197,326
912.730103,318
912.846008,300
792.44574,320
792.56488,360
792.68396,408
792.80304,393
792.92218,339
793.041199,320
793.160339,327
793.279419,347
793.398499,331
793.517578,315
793.636658,323
793.755737,332
793.874817,359
793.993896,347
794.112976,339
794.232056,318
794.351074,332
794.470215,332
794.589233,337
794.708313,319
794.827393,318
794.946411,349
795.065552,348
795.18457,328
795.303589,346
795.422668,304
795.541687,338
795.660767,321
795.779846,328
795.898865,341
796.017883,331
796.136963,332
796.255981,337
796.375061,326
796.49408,343
796.613037,316
796.732117,339
796.851135,316
796.970154,333
797.089233,325
797.208191,339
797.327271,318
797.446228,333
797.565186,327
797.684265,335
797.803223,323
797.922241,351
798.04126,338
798.160278,325
798.279297,343
798.398315,322
798.517273,330
798.636292,329
798.75531,347
798.874268,332
798.993286,311
799.112244,329
799.231323,319
799.350281,332
799.469238,330
799.588257,334
799.707153,327
799.826111,330
799.945129,320
800.064087,335
800.183044,331
800.302063,326
800.421021,323
800.539978,338
800.658936,349
800.777893,324
800.896912,325
801.015747,332
801.134705,338
801.253723,332
801.37262,317
801.491638,339
801.610535,330
801.729492,338
801.84845,340
801.967407,336
802.086243,328
802.205261,330
802.324158,340
802.443115,324
802.562073,331
802.680969,352
802.799927,316
802.918762,331
803.037659,327
803.156677,330
803.275574,313
803.39447,333
803.513428,323
803.632263,341
803.751221,315
803.870117,349
803.989014,325
804.107971,336
804.226746,334
804.345642,338
804.4646,330
804.583496,326
804.702393,325
804.821228,326
804.940125,322
805.059021,342
805.177917,312
805.296814,333
805.415649,331
805.534546,324
805.653442,326
805.772278,335
805.891113,337
806.01001,333
806.128906,324
806.247742,337
806.366577,328
806.485413,328
806.604309,330
806.723145,320
806.84198,322
806.960876,336
807.079712,330
807.198486,327
807.317383,327
807.436218,330
807.554993,332
807.673889,345
807.792725,328
807.91156,335
808.030396,334
808.14917,348
808.268005,338
808.386841,323
808.505676,327
808.624451,332
808.743286,326
808.862122,332
808.980896,333
809.099731,331
809.218506,318
809.337341,344
809.456116,328
809.57489,329
809.693726,327
809.8125,334
809.931274,324
810.050049,322
810.168884,329
810.287659,325
810.406372,337
810.525269,337
810.643982,341
810.762756,322
810.881531,330
811.000305,342
811.11908,334
811.237854,340
811.356567,341
811.475403,320
811.594116,335
811.71283,325
811.831604,333
811.950378,326
812.069153,340
812.187927,337
812.30658,344
812.425415,334
812.544128,331
812.662781,337
812.781616,328
812.900269,329
813.019043,341
813.137756,330
813.256531,341
813.375244,330
813.493896,336
813.612671,335
813.731384,322
813.850037,342
813.96875,341
814.087524,342
814.206238,323
814.324951,343
814.443604,308
814.562256,314
814.68103,336
814.799683,332
814.918335,342
815.037109,328
815.155762,327
815.274475,330
815.393188,338
815.511841,330
815.630554,331
815.749146,332
815.867859,329
815.986572,331
816.105164,337
816.223877,328
816.342529,323
816.461182,332
816.579895,337
816.698486,339
816.817139,329
816.935791,337
817.054504,335
817.173096,336
817.291748,334
817.4104,333
817.529053,322
817.647644,332
817.766235,325
817.884949,330
818.00354,324
818.122192,340
818.240845,322
818.359436,328
818.478088,318
818.59668,325
818.715271,315
818.833923,328
818.952515,314
819.071106,330
819.189758,309
819.30835,324
819.426941,326
819.545532,317
819.664124,319
819.782715,328
819.901306,311
820.019897,332
820.138489,310
820.25708,320
820.375671,314
820.494202,322
820.612732,309
820.731384,306
820.849915,315
820.968506,309
821.087097,328
821.205627,332
821.324158,329
821.442749,331
821.561279,310
821.679871,318
821.798401,324
821.916931,323
822.035461,311
822.154053,318
822.272583,322
822.391174,332
822.509583,304
822.628174,325
822.746704,314
822.865234,310
822.983765,318
823.102295,329
823.220825,311
823.339294,316
823.457825,326
823.576355,325
823.694824,308
823.813354,311
823.931885,317
824.050354,312
824.168884,317
824.287354,308
824.405823,325
824.524353,325
824.642822,313
824.761353,320
824.879822,319
824.998291,332
825.116699,314
825.235291,325
825.353699,317
825.472168,327
825.590637,326
825.709106,319
825.827576,313
825.946045,327
826.064453,310
826.182983,320
826.301392,308
826.4198,309
826.53833,317
826.656738,322
826.775208,323
826.893677,309
827.012024,320
827.130493,322
827.248962,323
827.36731,310
827.485779,328
827.604248,327
827.722595,316
827.841064,320
827.959412,318
828.077942,317
828.196289,320
828.314636,320
828.433105,316
828.551514,335
828.669861,304
828.78833,311
828.906677,310
829.025085,318
829.143433,312
829.261841,327
829.38031,309
829.498657,327
829.617004,316
829.735413,334
829.85376,309
829.972107,316
830.090515,314
830.208862,326
830.327209,321
830.445557,322
830.563904,310
830.682312,309
830.800659,309
830.919006,321
831.037354,326
831.155701,308
831.274048,325
831.392395,325
831.51062,324
831.629028,312
831.747314,316
831.865662,316
831.984009,313
832.102356,310
832.220642,310
832.338928,312
832.457275,308
832.575623,311
832.693909,297
832.812134,310
832.930481,329
833.048828,307
833.167114,328
833.2854,317
833.403687,308
833.521973,320
833.640259,308
833.758545,319
833.876831,316
833.995056,311
834.113281,315
834.231628,316
834.349915,309
834.468201,315
834.586426,297
834.704651,313
834.822998,314
834.941162,313
835.059448,322
835.177673,322
835.295959,319
835.414246,310
835.53241,314
835.650635,332
835.768921,324
835.887146,304
836.005371,314
836.123596,309
836.241821,313
836.360046,304
836.478271,322
836.596497,337
836.714722,314
836.832886,321
836.95105,324
837.069336,326
837.1875,318
837.305725,307
837.423889,312
837.542053,321
837.660339,313
837.778503,326
837.896667,311
838.014832,300
838.132996,303
838.25116,309
838.369385,323
838.487488,327
838.605713,305
838.723877,335
838.84198,310
838.960205,309
839.078308,324
839.196472,328
839.314636,307
839.4328,317
839.550964,316
839.669067,321
839.787231,306
839.905396,310
840.023499,326
840.141602,324
840.259766,319
840.377869,331
840.495972,308
840.614136,318
840.732239,308
840.850342,328
840.968445,325
841.086548,303
841.204651,319
841.322754,304
841.440918,317
841.55896,315
841.677002,307
841.795166,338
841.913208,317
842.031311,310
842.149353,323
842.267456,315
842.385498,312
842.503601,326
842.621643,303
842.739746,319
842.857788,306
842.97583,311
843.093933,319
843.211975,321
843.330017,311
843.44812,311
843.566101,322
843.684204,309
843.802246,317
843.920227,317
844.038269,322
844.156311,309
844.274292,310
844.392395,319
844.510376,320
844.628357,326
844.74646,321
844.864441,319
844.982422,318
845.100403,329
845.218384,316
845.336426,313
845.454468,317
845.572449,306
845.69043,317
845.808411,319
845.926453,315
846.044373,312
846.162354,312
846.280396,313
846.398315,315
846.516296,315
846.634216,301
846.752197,315
846.870178,316
846.988098,319
847.106079,308
847.22406,305
847.34198,323
847.4599,310
847.577881,312
847.695801,323
847.813782,314
847.931641,328
848.049561,307
848.167603,317
848.285461,313
848.403381,322
848.521362,334
848.639221,315
848.75708,305
848.875,333
848.99292,301
849.110901,310
849.22876,302
849.34668,323
849.464539,317
849.582458,313
849.700317,315
849.818176,303
849.936096,310
850.053955,310
850.171875,308
850.289673,337
850.407593,325
850.525452,308
850.643311,321
850.761169,310
850.878967,314
850.996887,307
851.114746,315
851.232544,317
851.350403,309
851.468262,314
851.58606,314
851.703979,312
851.821777,325
851.939636,314
852.057434,308
852.175232,308
852.293091,310
852.410889,321
852.528687,307
852.646545,319
852.764343,318
852.88208,321
852.999939,320
853.117676,309
853.235535,313
853.353271,317
853.471069,311
853.588928,323
853.706604,324
853.824402,317
853.9422,326
854.059998,325
854.177734,320
854.295532,317
854.413269,311
854.531006,325
854.648804,308
854.766541,316
854.884277,305
855.002014,319
855.119751,304
855.237549,315
855.355225,313
855.473022,316
855.590698,317
855.708435,329
855.826172,306
855.943848,338
856.061646,300
856.179321,326
856.296997,312
856.414795,319
856.53241,306
856.650085,320
856.767822,310
856.885559,320
857.003174,319
857.120911,323
857.238586,318
857.356201,328
857.473938,312
857.591614,304
857.709351,316
857.826965,318
857.944641,327
858.062317,325
858.179993,318
858.297668,328
858.415283,317
858.532959,326
858.650574,326
858.768188,319
858.885803,313
859.003479,307
859.121094,328
859.23877,325
859.356384,307
859.473999,323
859.591675,314
859.709229,321
859.826843,310
859.944458,326
860.062012,309
860.179626,323
860.297302,324
860.414856,316
860.532471,313
860.650024,313
860.767639,314
860.885193,315
861.002808,320
861.120361,329
861.237976,313
861.35553,319
861.473022,314
861.590698,311
861.708191,292
861.825745,325
861.943298,306
862.060852,317
862.178406,308
862.295959,316
862.413513,327
862.531006,318
862.64856,324
862.766113,332
862.883667,313
863.00116,310
863.118713,314
863.236206,328
863.353699,318
863.471252,309
863.588745,301
863.706177,319
863.82373,321
863.941162,320
864.058716,316
864.176208,309
864.29364,316
864.411194,316
864.528687,313
864.646118,307
864.763611,323
864.881042,334
864.998535,322
865.116028,324
865.233459,307
865.350891,335
865.468384,320
865.585754,329
865.703308,316
865.820679,311
865.938171,304
866.055542,312
866.173035,317
866.290466,325
866.407837,305
866.52533,321
866.6427,313
866.760071,319
866.877563,312
866.994934,315
867.112305,321
867.229736,331
867.347107,319
867.464539,326
867.58197,307
867.699341,317
867.81665,312
867.934082,324
868.051453,306
868.168823,322
868.286194,293
868.403564,313
868.520935,312
868.638306,324
868.755676,312
868.872986,318
868.990295,305
869.107727,314
869.225037,321
869.342346,330
869.459717,312
869.577026,310
869.694336,323
869.811707,321
869.929016,317
870.046326,327
870.163635,306
870.280945,327
870.398254,307
870.515564,317
870.632812,313
870.750183,321
870.867432,324
870.984741,315
871.102051,315
871.219299,312
871.336609,309
871.453918,340
871.571106,303
871.688416,322
871.805664,323
871.922852,305
872.040222,308
872.157471,319
872.274719,319
872.391968,319
872.509155,315
872.626465,311
872.743652,325
872.860962,311
872.978149,309
873.095337,312
873.212646,314
873.329834,319
873.44696,304
873.564209,319
873.681396,324
873.798645,313
873.915894,302
874.03302,315
874.150208,317
874.267456,308
874.384583,326
874.501831,319
874.618958,305
874.736145,312
874.853333,320
874.970459,312
875.087646,308
875.204834,316
875.32196,319
875.439148,317
875.556274,305
875.673401,314
875.790527,308
875.907715,310
876.024841,311
876.141968,311
876.259094,321
876.376282,317
876.493347,306
876.610474,329
876.7276,306
876.844727,333
876.961853,315
877.078918,328
877.195984,315
877.313171,324
877.430237,319
877.547302,316
877.664368,308
877.781433,313
877.898499,307
878.015625,314
878.13269,314
878.249695,308
878.366821,308
878.483887,322
878.600952,314
878.717957,305
878.834961,324
878.952087,313
879.069092,319
879.186157,328
879.303162,321
879.420227,316
879.537231,309
879.654236,333
879.77124,310
879.888306,326
880.005249,307
880.122314,323
880.239319,311
880.356323,321
880.473328,307
880.590271,332
880.707275,301
880.824341,316
880.941284,324
881.058228,314
881.175232,301
881.292236,291
881.40918,331
881.526123,313
881.643066,317
881.760071,317
881.877014,312
881.993958,316
882.11084,297
882.227783,313
882.344727,318
882.46167,328
882.578613,305
882.695618,307
882.812439,309
882.929382,308
883.046326,322
883.163208,318
883.280151,306
883.397034,309
883.513916,334
883.630798,312
883.747742,303
883.864563,324
883.981506,303
884.098389,314
884.21521,324
884.332153,325
884.448975,320
884.565796,306
884.682678,321
884.7995,309
884.916443,323
885.033264,317
885.150085,316
885.266968,331
885.383789,309
885.500671,313
885.617493,312
885.734314,314
885.851196,308
885.967896,309
886.084717,319
886.201599,340
886.318359,304
886.435181,317
886.552002,320
886.668762,315
886.785645,313
886.902344,321
887.019165,327
887.135925,335
887.252747,312
887.369446,322
887.486267,316
887.603027,315
887.719788,315
887.836548,319
887.953247,319
888.070068,303
888.186829,331
888.303528,316
888.420288,311
888.536987,318
888.653687,314
888.770447,319
888.887146,321
889.003967,329
889.120667,310
889.237305,328
889.354065,309
889.470703,316
889.587463,314
889.704163,319
889.820862,313
889.937561,318
890.054199,294
890.170837,314
890.287598,316
890.404236,304
890.520874,326
890.637634,317
890.754211,314
890.87085,330
890.987549,314
891.104187,307
891.220886,324
891.337463,317
891.454102,318
891.57074,318
891.687378,318
891.804077,335
891.920654,313
892.037231,326
892.15387,312
892.270447,328
892.387085,312
892.503723,317
892.6203,321
892.736877,324
892.853516,321
892.970032,329
893.08667,320
893.203186,328
893.319763,308
893.43634,334
893.552917,312
893.669556,312
893.786011,309
893.902588,312
894.019165,322
894.135681,317
894.252197,307
894.368835,318
894.485291,306
894.601868,315
894.718384,301
894.8349,326
894.951355,326
895.067932,303
895.184448,320
895.300964,312
895.417419,316
895.533936,319
895.650452,313
895.766907,331
895.883423,310
895.999878,334
896.116333,316
896.232849,316
896.349304,314
896.465759,314
896.582214,313
896.698669,331
896.815125,308
896.931641,321
897.048035,306
897.164551,317
897.280884,306
897.397339,317
897.513794,320
897.630249,308
897.746582,317
897.863098,317
897.979431,308
898.095886,319
898.212341,328
898.328674,321
898.445129,327
898.561462,327
898.677795,312
898.794312,322
898.910645,318
899.026978,321
899.143433,316
899.259766,314
899.37616,307
899.492493,318
899.608765,317
899.725159,320
899.841553,325
899.957947,320
900.07428,300
900.190552,315
900.306946,312
900.423157,323
900.53949,305
900.655884,324
900.772156,313
900.888489,319
901.004822,313
901.121033,320
901.237366,311
901.353699,313
901.46991,302
901.586304,334
901.702515,309
901.818787,324
901.93512,300
902.051331,319
902.167603,308
902.283875,318
902.400085,316
902.516418,312
902.632629,323
902.74884,338
902.865112,311
902.981384,316
903.097595,324
903.213867,322
903.330017,319
903.446289,315
903.5625,324
903.67865,326
903.794922,304
903.911072,323
904.027344,304
904.143494,341
904.259705,309
904.375916,321
904.492065,318
904.608215,319
904.724426,314
904.840576,319
904.956726,326
905.072876,334
905.189087,309
905.305176,317
905.421387,312
905.537537,319
905.653687,311
905.769775,308
905.885925,318
906.002014,313
906.118164,313
906.234314,319
906.350403,307
906.466492,343
906.582642,314
906.69873,327
906.814758,315
906.930908,325
907.046936,323
907.163086,315
907.279175,304
907.395264,313
907.511353,309
907.62738,319
907.743408,322
907.859497,324
907.975525,305
908.091553,326
908.207703,319
908.32373,315
908.439758,305
908.555786,326
908.671814,317
908.787842,326
908.90387,317
909.019775,322
909.135864,322
909.251892,313
909.367859,316
909.483826,318
909.599854,313
909.715881,320
909.831848,317
909.947815,333
910.063782,311
910.179749,316
910.295776,311
910.411743,318
910.527649,311
910.643616,317
910.759583,299
910.875488,326
910.991455,314
911.107361,330
911.223267,331
911.339294,300
911.4552,315
911.571106,316
911.687073,317
911.802979,315
911.918823,314
912.034729,322
912.150635,312
912.266602,319
912.382446,316
912.498352,309
912.614197,323
912.730103,326
912.846008,315
