792.44574,373
792.56488,409
792.68396,474
792.80304,433
792.92218,380
793.041199,363
793.160339,362
793.279419,383
793.398499,381
793.517578,357
793.636658,365
793.755737,378
793.874817,394
793.993896,374
794.112976,353
794.232056,357
794.351074,360
794.470215,355
794.589233,362
794.708313,346
794.827393,369
794.946411,358
795.065552,366
795.18457,361
795.303589,347
795.422668,351
795.541687,355
795.660767,365
795.779846,343
795.898865,331
796.017883,333
796.136963,339
796.255981,345
796.375061,334
796.49408,346
796.613037,354
796.732117,353
796.851135,356
796.970154,345
797.089233,337
797.208191,343
797.327271,327
797.446228,347
797.565186,349
797.684265,346
797.803223,354
797.922241,357
798.04126,331
798.160278,355
798.279297,328
798.398315,350
798.517273,341
798.636292,336
798.75531,343
798.874268,343
798.993286,353
799.112244,348
799.231323,338
799.350281,347
799.469238,345
799.588257,343
799.707153,347
799.826111,339
799.945129,337
800.064087,336
800.183044,336
800.302063,334
800.421021,341
800.539978,338
800.658936,330
800.777893,331
800.896912,335
801.015747,337
801.134705,322
801.253723,329
801.37262,343
801.491638,344
801.610535,338
801.729492,336
801.84845,329
801.967407,331
802.086243,321
802.205261,332
802.324158,333
802.443115,330
802.562073,326
802.680969,352
802.799927,315
802.918762,339
803.037659,341
803.156677,331
803.275574,336
803.39447,342
803.513428,334
803.632263,331
803.751221,331
803.870117,335
803.989014,331
804.107971,330
804.226746,327
804.345642,344
804.4646,334
804.583496,331
804.702393,321
804.821228,333
804.940125,322
805.059021,332
805.177917,334
805.296814,351
805.415649,333
805.534546,333
805.653442,328
805.772278,332
805.891113,333
806.01001,330
806.128906,334
806.247742,337
806.366577,340
806.485413,329
806.604309,334
806.723145,314
806.84198,336
806.960876,333
807.079712,327
807.198486,322
807.317383,333
807.436218,327
807.554993,342
807.673889,340
807.792725,313
807.91156,331
808.030396,333
808.14917,321
808.268005,322
808.386841,315
808.505676,332
808.624451,339
808.743286,340
808.862122,332
808.980896,329
809.099731,329
809.218506,328
809.337341,325
809.456116,330
809.57489,327
809.693726,317
809.8125,334
809.931274,334
810.050049,337
810.168884,316
810.287659,324
810.406372,337
810.525269,341
810.643982,318
810.762756,325
810.881531,329
811.000305,330
811.11908,326
811.237854,339
811.356567,329
811.475403,333
811.594116,335
811.71283,330
811.831604,327
811.950378,338
812.069153,327
812.187927,322
812.30658,330
812.425415,336
812.544128,336
812.662781,332
812.781616,338
812.900269,327
813.019043,328
813.137756,332
813.256531,336
813.375244,316
813.493896,336
813.612671,326
813.731384,333
813.850037,330
813.96875,318
814.087524,335
814.206238,326
814.324951,347
814.443604,320
814.562256,334
814.68103,327
814.799683,325
814.918335,316
815.037109,337
815.155762,337
815.274475,325
815.393188,338
815.511841,317
815.630554,326
815.749146,331
815.867859,318
815.986572,327
816.105164,322
816.223877,341
816.342529,313
816.461182,332
816.579895,331
816.698486,335
816.817139,320
816.935791,321
817.054504,330
817.173096,342
817.291748,337
817.4104,334
817.529053,330
817.647644,327
817.766235,327
817.884949,340
818.00354,321
818.122192,330
818.240845,336
818.359436,329
818.478088,314
818.59668,325
818.715271,327
818.833923,335
818.952515,319
819.071106,325
819.189758,325
819.30835,336
819.426941,322
819.545532,334
819.664124,321
819.782715,319
819.901306,305
820.019897,335
820.138489,319
820.25708,331
820.375671,333
820.494202,329
820.612732,317
820.731384,335
820.849915,320
820.968506,313
821.087097,326
821.205627,326
821.324158,341
821.442749,308
821.561279,317
821.679871,312
821.798401,323
821.916931,318
822.035461,322
822.154053,329
822.272583,342
822.391174,323
822.509583,323
822.628174,334
822.746704,323
822.865234,326
822.983765,324
823.102295,333
823.220825,314
823.339294,334
823.457825,309
823.576355,320
823.694824,322
823.813354,325
823.931885,314
824.050354,317
824.168884,326
824.287354,331
824.405823,322
824.524353,320
824.642822,322
824.761353,331
824.879822,327
824.998291,326
825.116699,325
825.235291,324
825.353699,322
825.472168,316
825.590637,303
825.709106,320
825.827576,326
825.946045,323
826.064453,329
826.182983,331
826.301392,328
826.4198,331
826.53833,318
826.656738,316
826.775208,316
826.893677,320
827.012024,314
827.130493,338
827.248962,315
827.36731,325
827.485779,328
827.604248,325
827.722595,316
827.841064,332
827.959412,311
828.077942,324
828.196289,316
828.314636,319
828.433105,320
828.551514,327
828.669861,313
828.78833,312
828.906677,326
829.025085,317
829.143433,327
829.261841,315
829.38031,301
829.498657,328
829.617004,318
829.735413,309
829.85376,320
829.972107,321
830.090515,325
830.208862,317
830.327209,328
830.445557,325
830.563904,318
830.682312,321
830.800659,311
830.919006,311
831.037354,322
831.155701,336
831.274048,328
831.392395,329
831.51062,312
831.629028,328
831.747314,307
831.865662,321
831.984009,322
832.102356,327
832.220642,312
832.338928,330
832.457275,332
832.575623,314
832.693909,334
832.812134,314
832.930481,313
833.048828,322
833.167114,314
833.2854,321
833.403687,315
833.521973,339
833.640259,325
833.758545,323
833.876831,324
833.995056,322
834.113281,328
834.231628,316
834.349915,329
834.468201,319
834.586426,321
834.704651,319
834.822998,316
834.941162,316
835.059448,319
835.177673,322
835.295959,327
835.414246,335
835.53241,336
835.650635,330
835.768921,308
835.887146,326
836.005371,311
836.123596,332
836.241821,304
836.360046,325
836.478271,323
836.596497,334
836.714722,314
836.832886,322
836.95105,318
837.069336,327
837.1875,312
837.305725,323
837.423889,314
837.542053,326
837.660339,316
837.778503,321
837.896667,327
838.014832,329
838.132996,310
838.25116,339
838.369385,325
838.487488,324
838.605713,318
838.723877,324
838.84198,321
838.960205,343
839.078308,318
839.196472,323
839.314636,323
839.4328,336
839.550964,314
839.669067,332
839.787231,319
839.905396,341
840.023499,315
840.141602,332
840.259766,333
840.377869,323
840.495972,329
840.614136,328
840.732239,345
840.850342,322
840.968445,326
841.086548,336
841.204651,324
841.322754,328
841.440918,321
841.55896,329
841.677002,314
841.795166,325
841.913208,311
842.031311,319
842.149353,320
842.267456,339
842.385498,325
842.503601,315
842.621643,305
842.739746,328
842.857788,330
842.97583,331
843.093933,326
843.211975,332
843.330017,327
843.44812,326
843.566101,312
843.684204,328
843.802246,325
843.920227,320
844.038269,321
844.156311,322
844.274292,319
844.392395,337
844.510376,307
844.628357,331
844.74646,312
844.864441,324
844.982422,320
845.100403,317
845.218384,325
845.336426,331
845.454468,321
845.572449,326
845.69043,330
845.808411,329
845.926453,328
846.044373,323
846.162354,328
846.280396,317
846.398315,316
846.516296,334
846.634216,330
846.752197,321
846.870178,313
846.988098,322
847.106079,316
847.22406,327
847.34198,334
847.4599,329
847.577881,325
847.695801,324
847.813782,315
847.931641,336
848.049561,311
848.167603,332
848.285461,327
848.403381,327
848.521362,326
848.639221,316
848.75708,320
848.875,330
848.99292,321
849.110901,315
849.22876,336
849.34668,326
849.464539,317
849.582458,321
849.700317,320
849.818176,325
849.936096,312
850.053955,323
850.171875,322
850.289673,338
850.407593,321
850.525452,334
850.643311,321
850.761169,320
850.878967,315
850.996887,326
851.114746,316
851.232544,316
851.350403,313
851.468262,327
851.58606,334
851.703979,335
851.821777,317
851.939636,336
852.057434,314
852.175232,324
852.293091,318
852.410889,316
852.528687,326
852.646545,326
852.764343,319
852.88208,322
852.999939,328
853.117676,323
853.235535,328
853.353271,328
853.471069,321
853.588928,322
853.706604,322
853.824402,335
853.9422,318
854.059998,331
854.177734,317
854.295532,329
854.413269,323
854.531006,319
854.648804,323
854.766541,324
854.884277,316
855.002014,335
855.119751,308
855.237549,329
855.355225,330
855.473022,332
855.590698,320
855.708435,321
855.826172,323
855.943848,321
856.061646,324
856.179321,325
856.296997,318
856.414795,353
856.53241,316
856.650085,346
856.767822,333
856.885559,315
857.003174,340
857.120911,328
857.238586,325
857.356201,326
857.473938,328
857.591614,347
857.709351,320
857.826965,338
857.944641,328
858.062317,321
858.179993,317
858.297668,324
858.415283,329
858.532959,318
858.650574,335
858.768188,347
858.885803,313
859.003479,336
859.121094,328
859.23877,327
859.356384,318
859.473999,334
859.591675,331
859.709229,307
859.826843,338
859.944458,336
860.062012,334
860.179626,338
860.297302,323
860.414856,319
860.532471,313
860.650024,328
860.767639,328
860.885193,316
861.002808,322
861.120361,329
861.237976,313
861.35553,332
861.473022,320
861.590698,322
861.708191,316
861.825745,324
861.943298,318
862.060852,327
862.178406,316
862.295959,320
862.413513,314
862.531006,331
862.64856,308
862.766113,317
862.883667,320
863.00116,329
863.118713,326
863.236206,322
863.353699,334
863.471252,326
863.588745,316
863.706177,330
863.82373,320
863.941162,326
864.058716,323
864.176208,333
864.29364,322
864.411194,331
864.528687,328
864.646118,333
864.763611,321
864.881042,333
864.998535,319
865.116028,323
865.233459,322
865.350891,325
865.468384,320
865.585754,319
865.703308,320
865.820679,326
865.938171,322
866.055542,332
866.173035,320
866.290466,338
866.407837,337
866.52533,317
866.6427,317
866.760071,316
866.877563,327
866.994934,312
867.112305,321
867.229736,328
867.347107,317
867.464539,291
867.58197,328
867.699341,328
867.81665,322
867.934082,316
868.051453,328
868.168823,341
868.286194,312
868.403564,325
868.520935,325
868.638306,323
868.755676,321
868.872986,318
868.990295,333
869.107727,316
869.225037,323
869.342346,333
869.459717,319
869.577026,341
869.694336,319
869.811707,321
869.929016,323
870.046326,326
870.163635,325
870.280945,335
870.398254,313
870.515564,327
870.632812,328
870.750183,326
870.867432,316
870.984741,328
871.102051,325
871.219299,323
871.336609,331
871.453918,332
871.571106,321
871.688416,339
871.805664,330
871.922852,324
872.040222,311
872.157471,321
872.274719,331
872.391968,337
872.509155,323
872.626465,332
872.743652,304
872.860962,334
872.978149,328
873.095337,326
873.212646,328
873.329834,329
873.44696,328
873.564209,338
873.681396,314
873.798645,337
873.915894,318
874.03302,325
874.150208,327
874.267456,327
874.384583,323
874.501831,322
874.618958,319
874.736145,325
874.853333,315
874.970459,337
875.087646,330
875.204834,337
875.32196,333
875.439148,340
875.556274,310
875.673401,311
875.790527,324
875.907715,330
876.024841,333
876.141968,334
876.259094,305
876.376282,326
876.493347,334
876.610474,325
876.7276,315
876.844727,314
876.961853,328
877.078918,322
877.195984,325
877.313171,321
877.430237,318
877.547302,318
877.664368,320
877.781433,332
877.898499,324
878.015625,320
878.13269,326
878.249695,317
878.366821,300
878.483887,316
878.600952,324
878.717957,313
878.834961,335
878.952087,317
879.069092,329
879.186157,320
879.303162,314
879.420227,337
879.537231,311
879.654236,320
879.77124,308
879.888306,336
880.005249,329
880.122314,337
880.239319,310
880.356323,313
880.473328,319
880.590271,326
880.707275,327
880.824341,327
880.941284,315
881.058228,317
881.175232,318
881.292236,321
881.40918,326
881.526123,346
881.643066,325
881.760071,327
881.877014,320
881.993958,325
882.11084,319
882.227783,334
882.344727,329
882.46167,323
882.578613,318
882.695618,326
882.812439,320
882.929382,324
883.046326,311
883.163208,331
883.280151,310
883.397034,313
883.513916,321
883.630798,325
883.747742,321
883.864563,331
883.981506,314
884.098389,334
884.21521,327
884.332153,319
884.448975,322
884.565796,333
884.682678,313
884.7995,324
884.916443,311
885.033264,320
885.150085,320
885.266968,336
885.383789,338
885.500671,337
885.617493,335
885.734314,328
885.851196,320
885.967896,343
886.084717,327
886.201599,342
886.318359,330
886.435181,323
886.552002,323
886.668762,329
886.785645,318
886.902344,335
887.019165,327
887.135925,333
887.252747,340
887.369446,323
887.486267,324
887.603027,336
887.719788,334
887.836548,333
887.953247,307
888.070068,327
888.186829,325
888.303528,336
888.420288,330
888.536987,331
888.653687,327
888.770447,328
888.887146,328
889.003967,322
889.120667,316
889.237305,328
889.354065,314
889.470703,319
889.587463,324
889.704163,327
889.820862,314
889.937561,319
890.054199,311
890.170837,316
890.287598,314
890.404236,311
890.520874,310
890.637634,325
890.754211,314
890.87085,308
890.987549,323
891.104187,328
891.220886,320
891.337463,320
891.454102,310
891.57074,325
891.687378,318
891.804077,326
891.920654,308
892.037231,317
892.15387,324
892.270447,327
892.387085,316
892.503723,325
892.6203,318
892.736877,335
892.853516,312
892.970032,326
893.08667,319
893.203186,320
893.319763,323
893.43634,333
893.552917,311
893.669556,323
893.786011,323
893.902588,321
894.019165,329
894.135681,333
894.252197,316
894.368835,331
894.485291,306
894.601868,332
894.718384,317
894.8349,320
894.951355,322
895.067932,319
895.184448,308
895.300964,323
895.417419,321
895.533936,321
895.650452,311
895.766907,318
895.883423,317
895.999878,321
896.116333,325
896.232849,318
896.349304,317
896.465759,313
896.582214,325
896.698669,316
896.815125,318
896.931641,323
897.048035,326
897.164551,331
897.280884,318
897.397339,309
897.513794,323
897.630249,313
897.746582,313
897.863098,328
897.979431,316
898.095886,317
898.212341,312
898.328674,310
898.445129,316
898.561462,329
898.677795,315
898.794312,311
898.910645,325
899.026978,325
899.143433,327
899.259766,318
899.37616,315
899.492493,325
899.608765,319
899.725159,337
899.841553,325
899.957947,323
900.07428,330
900.190552,323
900.306946,317
900.423157,327
900.53949,323
900.655884,329
900.772156,307
900.888489,331
901.004822,320
901.121033,310
901.237366,322
901.353699,327
901.46991,327
901.586304,313
901.702515,315
901.818787,316
901.93512,320
902.051331,324
902.167603,325
902.283875,329
902.400085,325
902.516418,316
902.632629,317
902.74884,341
902.865112,317
902.981384,334
903.097595,318
903.213867,338
903.330017,316
903.446289,335
903.5625,324
903.67865,320
903.794922,333
903.911072,329
904.027344,336
904.143494,324
904.259705,318
904.375916,326
904.492065,319
904.608215,325
904.724426,327
904.840576,320
904.956726,313
905.072876,315
905.189087,310
905.305176,316
905.421387,310
905.537537,332
905.653687,314
905.769775,322
905.885925,307
906.002014,313
906.118164,319
906.234314,326
906.350403,328
906.466492,325
906.582642,307
906.69873,336
906.814758,320
906.930908,319
907.046936,313
907.163086,313
907.279175,307
907.395264,330
907.511353,302
907.62738,325
907.743408,310
907.859497,321
907.975525,316
908.091553,327
908.207703,316
908.32373,311
908.439758,315
908.555786,326
908.671814,322
908.787842,324
908.90387,308
909.019775,327
909.135864,306
909.251892,334
909.367859,322
909.483826,311
909.599854,326
909.715881,310
909.831848,321
909.947815,325
910.063782,303
910.179749,324
910.295776,306
910.411743,329
910.527649,316
910.643616,320
910.759583,318
910.875488,309
910.991455,324
911.107361,324
911.223267,308
911.339294,325
911.4552,315
911.571106,329
911.687073,308
911.802979,329
911.918823,305
912.034729,316
912.150635,323
912.266602,315
912.382446,314
912.498352,313
912.614197,316
912.730103,327
912.846008,313
792.44574,374
792.56488,394
792.68396,452
792.80304,432
792.92218,392
793.041199,358
793.160339,358
793.279419,373
793.398499,371
793.517578,347
793.636658,367
793.755737,378
793.874817,383
793.993896,380
794.112976,364
794.232056,362
794.351074,357
794.470215,342
794.589233,352
794.708313,364
794.827393,359
794.946411,349
795.065552,363
795.18457,365
795.303589,356
795.422668,337
795.541687,354
795.660767,353
795.779846,347
795.898865,358
796.017883,341
796.136963,342
796.255981,342
796.375061,358
796.49408,346
796.613037,335
796.732117,348
796.851135,343
796.970154,351
797.089233,363
797.208191,347
797.327271,351
797.446228,343
797.565186,351
797.684265,333
797.803223,342
797.922241,331
798.04126,332
798.160278,338
798.279297,338
798.398315,351
798.517273,345
798.636292,362
798.75531,339
798.874268,336
798.993286,334
799.112244,352
799.231323,326
799.350281,336
799.469238,339
799.588257,332
799.707153,332
799.826111,341
799.945129,336
800.064087,340
800.183044,323
800.302063,334
800.421021,334
800.539978,342
800.658936,334
800.777893,344
800.896912,324
801.015747,341
801.134705,337
801.253723,343
801.37262,346
801.491638,338
801.610535,338
801.729492,329
801.84845,333
801.967407,322
802.086243,332
802.205261,322
802.324158,337
802.443115,343
802.562073,330
802.680969,335
802.799927,340
802.918762,348
803.037659,323
803.156677,338
803.275574,323
803.39447,323
803.513428,336
803.632263,340
803.751221,331
803.870117,336
803.989014,333
804.107971,333
804.226746,340
804.345642,327
804.4646,330
804.583496,342
804.702393,335
804.821228,350
804.940125,301
805.059021,335
805.177917,338
805.296814,315
805.415649,311
805.534546,327
805.653442,312
805.772278,334
805.891113,320
806.01001,321
806.128906,340
806.247742,320
806.366577,330
806.485413,331
806.604309,329
806.723145,316
806.84198,339
806.960876,324
807.079712,334
807.198486,338
807.317383,322
807.436218,320
807.554993,331
807.673889,322
807.792725,340
807.91156,334
808.030396,336
808.14917,322
808.268005,318
808.386841,320
808.505676,334
808.624451,330
808.743286,340
808.862122,316
808.980896,341
809.099731,319
809.218506,324
809.337341,303
809.456116,330
809.57489,336
809.693726,329
809.8125,335
809.931274,326
810.050049,332
810.168884,324
810.287659,331
810.406372,321
810.525269,332
810.643982,330
810.762756,341
810.881531,329
811.000305,320
811.11908,318
811.237854,339
811.356567,323
811.475403,326
811.594116,311
811.71283,338
811.831604,336
811.950378,330
812.069153,320
812.187927,343
812.30658,333
812.425415,335
812.544128,327
812.662781,323
812.781616,322
812.900269,327
813.019043,323
813.137756,332
813.256531,326
813.375244,325
813.493896,326
813.612671,315
813.731384,338
813.850037,329
813.96875,334
814.087524,314
814.206238,322
814.324951,339
814.443604,324
814.562256,327
814.68103,324
814.799683,330
814.918335,320
815.037109,325
815.155762,332
815.274475,309
815.393188,335
815.511841,331
815.630554,327
815.749146,337
815.867859,324
815.986572,332
816.105164,342
816.223877,325
816.342529,334
816.461182,323
816.579895,341
816.698486,331
816.817139,333
816.935791,321
817.054504,319
817.173096,333
817.291748,323
817.4104,328
817.529053,348
817.647644,317
817.766235,333
817.884949,324
818.00354,333
818.122192,325
818.240845,326
818.359436,328
818.478088,321
818.59668,316
818.715271,323
818.833923,324
818.952515,332
819.071106,316
819.189758,325
819.30835,325
819.426941,328
819.545532,322
819.664124,317
819.782715,321
819.901306,325
820.019897,320
820.138489,337
820.25708,320
820.375671,328
820.494202,318
820.612732,323
820.731384,334
820.849915,316
820.968506,321
821.087097,316
821.205627,326
821.324158,319
821.442749,321
821.561279,328
821.679871,320
821.798401,314
821.916931,321
822.035461,325
822.154053,312
822.272583,312
822.391174,317
822.509583,310
822.628174,326
822.746704,318
822.865234,317
822.983765,321
823.102295,322
823.220825,314
823.339294,329
823.457825,317
823.576355,323
823.694824,324
823.813354,328
823.931885,331
824.050354,324
824.168884,332
824.287354,326
824.405823,308
824.524353,313
824.642822,308
824.761353,318
824.879822,331
824.998291,321
825.116699,317
825.235291,319
825.353699,327
825.472168,321
825.590637,326
825.709106,325
825.827576,320
825.946045,329
826.064453,322
826.182983,322
826.301392,305
826.4198,329
826.53833,326
826.656738,319
826.775208,326
826.893677,324
827.012024,321
827.130493,338
827.248962,322
827.36731,315
827.485779,321
827.604248,307
827.722595,320
827.841064,318
827.959412,323
828.077942,323
828.196289,317
828.314636,327
828.433105,330
828.551514,316
828.669861,311
828.78833,313
828.906677,306
829.025085,326
829.143433,315
829.261841,332
829.38031,316
829.498657,328
829.617004,314
829.735413,323
829.85376,315
829.972107,316
830.090515,322
830.208862,325
830.327209,330
830.445557,317
830.563904,324
830.682312,316
830.800659,320
830.919006,327
831.037354,329
831.155701,334
831.274048,326
831.392395,330
831.51062,319
831.629028,314
831.747314,330
831.865662,319
831.984009,332
832.102356,321
832.220642,322
832.338928,315
832.457275,325
832.575623,337
832.693909,319
832.812134,320
832.930481,323
833.048828,317
833.167114,320
833.2854,330
833.403687,329
833.521973,321
833.640259,326
833.758545,321
833.876831,318
833.995056,315
834.113281,328
834.231628,316
834.349915,319
834.468201,321
834.586426,317
834.704651,312
834.822998,314
834.941162,339
835.059448,318
835.177673,317
835.295959,332
835.414246,321
835.53241,327
835.650635,331
835.768921,322
835.887146,315
836.005371,317
836.123596,321
836.241821,333
836.360046,309
836.478271,331
836.596497,315
836.714722,317
836.832886,326
836.95105,320
837.069336,309
837.1875,320
837.305725,336
837.423889,317
837.542053,321
837.660339,316
837.778503,308
837.896667,330
838.014832,314
838.132996,312
838.25116,315
838.369385,311
838.487488,318
838.605713,329
838.723877,333
838.84198,319
838.960205,325
839.078308,326
839.196472,328
839.314636,310
839.4328,337
839.550964,332
839.669067,328
839.787231,319
839.905396,329
840.023499,330
840.141602,317
840.259766,321
840.377869,320
840.495972,339
840.614136,329
840.732239,322
840.850342,326
840.968445,329
841.086548,329
841.204651,322
841.322754,327
841.440918,324
841.55896,321
841.677002,314
841.795166,326
841.913208,315
842.031311,327
842.149353,317
842.267456,335
842.385498,333
842.503601,313
842.621643,323
842.739746,329
842.857788,321
842.97583,325
843.093933,324
843.211975,332
843.330017,324
843.44812,327
843.566101,311
843.684204,320
843.802246,328
843.920227,315
844.038269,331
844.156311,329
844.274292,317
844.392395,338
844.510376,332
844.628357,334
844.74646,327
844.864441,331
844.982422,326
845.100403,331
845.218384,330
845.336426,326
845.454468,317
845.572449,328
845.69043,319
845.808411,334
845.926453,325
846.044373,329
846.162354,337
846.280396,324
846.398315,313
846.516296,324
846.634216,320
846.752197,340
846.870178,315
846.988098,332
847.106079,332
847.22406,322
847.34198,330
847.4599,336
847.577881,308
847.695801,338
847.813782,319
847.931641,334
848.049561,316
848.167603,312
848.285461,320
848.403381,328
848.521362,310
848.639221,330
848.75708,329
848.875,328
848.99292,319
849.110901,326
849.22876,309
849.34668,320
849.464539,320
849.582458,328
849.700317,329
849.818176,327
849.936096,327
850.053955,318
850.171875,335
850.289673,334
850.407593,324
850.525452,330
850.643311,326
850.761169,332
850.878967,316
850.996887,326
851.114746,324
851.232544,328
851.350403,328
851.468262,307
851.58606,341
851.703979,329
851.821777,316
851.939636,317
852.057434,338
852.175232,327
852.293091,328
852.410889,330
852.528687,322
852.646545,352
852.764343,329
852.88208,317
852.999939,323
853.117676,333
853.235535,319
853.353271,321
853.471069,318
853.588928,322
853.706604,309
853.824402,311
853.9422,304
854.059998,320
854.177734,328
854.295532,317
854.413269,328
854.531006,328
854.648804,324
854.766541,317
854.884277,313
855.002014,326
855.119751,325
855.237549,316
855.355225,333
855.473022,318
855.590698,323
855.708435,331
855.826172,321
855.943848,318
856.061646,319
856.179321,328
856.296997,318
856.414795,321
856.53241,333
856.650085,318
856.767822,331
856.885559,332
857.003174,317
857.120911,330
857.238586,328
857.356201,334
857.473938,333
857.591614,325
857.709351,324
857.826965,328
857.944641,321
858.062317,311
858.179993,316
858.297668,332
858.415283,321
858.532959,325
858.650574,328
858.768188,329
858.885803,318
859.003479,339
859.121094,325
859.23877,325
859.356384,330
859.473999,322
859.591675,307
859.709229,328
859.826843,325
859.944458,327
860.062012,311
860.179626,327
860.297302,322
860.414856,328
860.532471,317
860.650024,344
860.767639,329
860.885193,337
861.002808,338
861.120361,325
861.237976,321
861.35553,324
861.473022,321
861.590698,331
861.708191,325
861.825745,323
861.943298,320
862.060852,323
862.178406,334
862.295959,331
862.413513,319
862.531006,331
862.64856,318
862.766113,317
862.883667,312
863.00116,318
863.118713,326
863.236206,319
863.353699,314
863.471252,320
863.588745,314
863.706177,319
863.82373,323
863.941162,313
864.058716,318
864.176208,332
864.29364,331
864.411194,325
864.528687,308
864.646118,317
864.763611,332
864.881042,317
864.998535,315
865.116028,314
865.233459,335
865.350891,333
865.468384,313
865.585754,322
865.703308,320
865.820679,320
865.938171,304
866.055542,321
866.173035,326
866.290466,317
866.407837,320
866.52533,327
866.6427,320
866.760071,327
866.877563,322
866.994934,331
867.112305,317
867.229736,314
867.347107,316
867.464539,329
867.58197,335
867.699341,321
867.81665,325
867.934082,336
868.051453,311
868.168823,326
868.286194,317
868.403564,317
868.520935,327
868.638306,330
868.755676,316
868.872986,313
868.990295,326
869.107727,335
869.225037,316
869.342346,320
869.459717,333
869.577026,321
869.694336,326
869.811707,320
869.929016,320
870.046326,335
870.163635,314
870.280945,332
870.398254,324
870.515564,326
870.632812,327
870.750183,321
870.867432,322
870.984741,326
871.102051,318
871.219299,331
871.336609,324
871.453918,327
871.571106,319
871.688416,322
871.805664,345
871.922852,334
872.040222,312
872.157471,332
872.274719,313
872.391968,332
872.509155,320
872.626465,326
872.743652,323
872.860962,324
872.978149,313
873.095337,317
873.212646,329
873.329834,335
873.44696,323
873.564209,330
873.681396,320
873.798645,332
873.915894,320
874.03302,329
874.150208,331
874.267456,321
874.384583,329
874.501831,314
874.618958,308
874.736145,329
874.853333,320
874.970459,328
875.087646,317
875.204834,316
875.32196,317
875.439148,328
875.556274,329
875.673401,328
875.790527,310
875.907715,317
876.024841,325
876.141968,324
876.259094,324
876.376282,332
876.493347,321
876.610474,324
876.7276,317
876.844727,322
876.961853,319
877.078918,328
877.195984,316
877.313171,341
877.430237,311
877.547302,321
877.664368,317
877.781433,324
877.898499,325
878.015625,328
878.13269,317
878.249695,340
878.366821,316
878.483887,319
878.600952,319
878.717957,324
878.834961,317
878.952087,312
879.069092,319
879.186157,319
879.303162,322
879.420227,338
879.537231,315
879.654236,321
879.77124,324
879.888306,321
880.005249,326
880.122314,321
880.239319,320
880.356323,335
880.473328,320
880.590271,324
880.707275,321
880.824341,320
880.941284,326
881.058228,325
881.175232,315
881.292236,326
881.40918,306
881.526123,321
881.643066,315
881.760071,328
881.877014,311
881.993958,309
882.11084,323
882.227783,321
882.344727,326
882.46167,334
882.578613,321
882.695618,326
882.812439,306
882.929382,332
883.046326,309
883.163208,325
883.280151,309
883.397034,326
883.513916,325
883.630798,327
883.747742,318
883.864563,324
883.981506,313
884.098389,321
884.21521,326
884.332153,331
884.448975,318
884.565796,328
884.682678,330
884.7995,333
884.916443,332
885.033264,313
885.150085,321
885.266968,333
885.383789,327
885.500671,333
885.617493,322
885.734314,356
885.851196,320
885.967896,335
886.084717,337
886.201599,330
886.318359,328
886.435181,344
886.552002,326
886.668762,322
886.785645,327
886.902344,325
887.019165,331
887.135925,323
887.252747,322
887.369446,333
887.486267,313
887.603027,327
887.719788,324
887.836548,321
887.953247,320
888.070068,328
888.186829,324
888.303528,319
888.420288,318
888.536987,328
888.653687,332
888.770447,319
888.887146,321
889.003967,313
889.120667,319
889.237305,322
889.354065,317
889.470703,312
889.587463,315
889.704163,324
889.820862,305
889.937561,322
890.054199,317
890.170837,319
890.287598,323
890.404236,313
890.520874,311
890.637634,321
890.754211,332
890.87085,308
890.987549,310
891.104187,315
891.220886,316
891.337463,332
891.454102,326
891.57074,307
891.687378,335
891.804077,319
891.920654,336
892.037231,323
892.15387,307
892.270447,325
892.387085,307
892.503723,332
892.6203,310
892.736877,313
892.853516,332
892.970032,302
893.08667,311
893.203186,334
893.319763,324
893.43634,321
893.552917,311
893.669556,320
893.786011,318
893.902588,322
894.019165,317
894.135681,302
894.252197,305
894.368835,328
894.485291,311
894.601868,322
894.718384,323
894.8349,327
894.951355,316
895.067932,304
895.184448,316
895.300964,312
895.417419,319
895.533936,315
895.650452,309
895.766907,325
895.883423,313
895.999878,305
896.116333,313
896.232849,323
896.349304,315
896.465759,311
896.582214,336
896.698669,336
896.815125,315
896.931641,318
897.048035,305
897.164551,327
897.280884,311
897.397339,333
897.513794,328
897.630249,327
897.746582,316
897.863098,323
897.979431,315
898.095886,327
898.212341,307
898.328674,313
898.445129,323
898.561462,322
898.677795,311
898.794312,315
898.910645,319
899.026978,323
899.143433,297
899.259766,315
899.37616,324
899.492493,323
899.608765,310
899.725159,322
899.841553,335
899.957947,328
900.07428,323
900.190552,318
900.306946,317
900.423157,327
900.53949,325
900.655884,324
900.772156,316
900.888489,319
901.004822,315
901.121033,318
901.237366,322
901.353699,322
901.46991,314
901.586304,316
901.702515,307
901.818787,327
901.93512,329
902.051331,331
902.167603,333
902.283875,334
902.400085,335
902.516418,332
902.632629,316
902.74884,322
902.865112,316
902.981384,318
903.097595,325
903.213867,332
903.330017,327
903.446289,330
903.5625,320
903.67865,333
903.794922,323
903.911072,312
904.027344,332
904.143494,322
904.259705,317
904.375916,312
904.492065,324
904.608215,328
904.724426,319
904.840576,310
904.956726,306
905.072876,310
905.189087,314
905.305176,315
905.421387,314
905.537537,331
905.653687,316
905.769775,316
905.885925,314
906.002014,315
906.118164,319
906.234314,324
906.350403,315
906.466492,315
906.582642,325
906.69873,312
906.814758,313
906.930908,332
907.046936,323
907.163086,318
907.279175,319
907.395264,320
907.511353,313
907.62738,319
907.743408,303
907.859497,317
907.975525,315
908.091553,323
908.207703,311
908.32373,323
908.439758,311
908.555786,324
908.671814,314
908.787842,332
908.90387,313
909.019775,316
909.135864,320
909.251892,316
909.367859,319
909.483826,319
909.599854,317
909.715881,319
909.831848,321
909.947815,319
910.063782,327
910.179749,320
910.295776,298
910.411743,317
910.527649,323
910.643616,314
910.759583,325
910.875488,317
910.991455,314
911.107361,327
911.223267,325
911.339294,327
911.4552,310
911.571106,322
911.687073,324
911.802979,317
911.918823,305
912.034729,331
912.150635,317
912.266602,312
912.382446,319
912.498352,324
912.614197,304
912.730103,313
912.846008,329
792.44574,365
792.56488,418
792.68396,463
792.80304,435
792.92218,386
793.041199,371
793.160339,381
793.279419,382
793.398499,378
793.517578,356
793.636658,362
793.755737,357
793.874817,388
793.993896,375
794.112976,373
794.232056,357
794.351074,359
794.470215,352
794.589233,363
794.708313,363
794.827393,358
794.946411,369
795.065552,366
795.18457,357
795.303589,342
795.422668,363
795.541687,350
795.660767,341
795.779846,353
795.898865,328
796.017883,355
796.136963,341
796.255981,353
796.375061,358
796.49408,352
796.613037,342
796.732117,358
796.851135,338
796.970154,338
797.089233,337
797.208191,345
797.327271,340
797.446228,353
797.565186,347
797.684265,351
797.803223,335
797.922241,361
798.04126,346
798.160278,347
798.279297,335
798.398315,352
798.517273,344
798.636292,339
798.75531,329
798.874268,327
798.993286,334
799.112244,344
799.231323,328
799.350281,351
799.469238,326
799.588257,333
799.707153,343
799.826111,354
799.945129,335
800.064087,328
800.183044,332
800.302063,331
800.421021,336
800.539978,325
800.658936,328
800.777893,348
800.896912,332
801.015747,335
801.134705,341
801.253723,325
801.37262,325
801.491638,333
801.610535,332
801.729492,335
801.84845,341
801.967407,331
802.086243,329
802.205261,346
802.324158,330
802.443115,329
802.562073,317
802.680969,335
802.799927,325
802.918762,328
803.037659,340
803.156677,330
803.275574,330
803.39447,335
803.513428,336
803.632263,331
803.751221,326
803.870117,315
803.989014,324
804.107971,325
804.226746,336
804.345642,332
804.4646,333
804.583496,348
804.702393,336
804.821228,328
804.940125,326
805.059021,337
805.177917,333
805.296814,347
805.415649,318
805.534546,323
805.653442,339
805.772278,333
805.891113,341
806.01001,330
806.128906,319
806.247742,327
806.366577,342
806.485413,330
806.604309,323
806.723145,323
806.84198,324
806.960876,326
807.079712,341
807.198486,320
807.317383,336
807.436218,326
807.554993,333
807.673889,331
807.792725,332
807.91156,334
808.030396,325
808.14917,317
808.268005,330
808.386841,316
808.505676,326
808.624451,333
808.743286,325
808.862122,327
808.980896,331
809.099731,330
809.218506,318
809.337341,322
809.456116,331
809.57489,319
809.693726,324
809.8125,326
809.931274,329
810.050049,330
810.168884,319
810.287659,329
810.406372,327
810.525269,325
810.643982,341
810.762756,327
810.881531,341
811.000305,335
811.11908,339
811.237854,338
811.356567,326
811.475403,330
811.594116,323
811.71283,334
811.831604,322
811.950378,308
812.069153,323
812.187927,324
812.30658,335
812.425415,328
812.544128,337
812.662781,354
812.781616,318
812.900269,334
813.019043,334
813.137756,328
813.256531,328
813.375244,330
813.493896,321
813.612671,319
813.731384,311
813.850037,332
813.96875,328
814.087524,324
814.206238,333
814.324951,333
814.443604,329
814.562256,319
814.68103,343
814.799683,322
814.918335,315
815.037109,338
815.155762,328
815.274475,315
815.393188,330
815.511841,324
815.630554,320
815.749146,327
815.867859,328
815.986572,327
816.105164,333
816.223877,339
816.342529,323
816.461182,339
816.579895,327
816.698486,324
816.817139,330
816.935791,327
817.054504,318
817.173096,339
817.291748,328
817.4104,330
817.529053,317
817.647644,333
817.766235,323
817.884949,322
818.00354,337
818.122192,335
818.240845,325
818.359436,332
818.478088,326
818.59668,319
818.715271,327
818.833923,327
818.952515,323
819.071106,316
819.189758,324
819.30835,311
819.426941,319
819.545532,326
819.664124,325
819.782715,322
819.901306,324
820.019897,328
820.138489,317
820.25708,332
820.375671,330
820.494202,326
820.612732,323
820.731384,327
820.849915,321
820.968506,323
821.087097,305
821.205627,335
821.324158,323
821.442749,324
821.561279,335
821.679871,331
821.798401,314
821.916931,327
822.035461,319
822.154053,311
822.272583,312
822.391174,343
822.509583,331
822.628174,312
822.746704,312
822.865234,331
822.983765,318
823.102295,332
823.220825,316
823.339294,315
823.457825,311
823.576355,312
823.694824,318
823.813354,322
823.931885,314
824.050354,316
824.168884,331
824.287354,315
824.405823,336
824.524353,319
824.642822,327
824.761353,326
824.879822,328
824.998291,328
825.116699,333
825.235291,340
825.353699,320
825.472168,315
825.590637,320
825.709106,326
825.827576,316
825.946045,318
826.064453,317
826.182983,333
826.301392,320
826.4198,322
826.53833,315
826.656738,332
826.775208,303
826.893677,319
827.012024,325
827.130493,327
827.248962,321
827.36731,320
827.485779,328
827.604248,311
827.722595,332
827.841064,321
827.959412,328
828.077942,326
828.196289,323
828.314636,326
828.433105,310
828.551514,324
828.669861,328
828.78833,318
828.906677,325
829.025085,326
829.143433,311
829.261841,319
829.38031,327
829.498657,325
829.617004,321
829.735413,314
829.85376,329
829.972107,311
830.090515,319
830.208862,336
830.327209,321
830.445557,327
830.563904,318
830.682312,324
830.800659,336
830.919006,310
831.037354,328
831.155701,318
831.274048,310
831.392395,316
831.51062,306
831.629028,323
831.747314,322
831.865662,316
831.984009,318
832.102356,324
832.220642,326
832.338928,315
832.457275,319
832.575623,337
832.693909,315
832.812134,330
832.930481,319
833.048828,330
833.167114,310
833.2854,322
833.403687,328
833.521973,329
833.640259,317
833.758545,320
833.876831,317
833.995056,319
834.113281,314
834.231628,321
834.349915,315
834.468201,319
834.586426,321
834.704651,325
834.822998,307
834.941162,328
835.059448,320
835.177673,314
835.295959,301
835.414246,333
835.53241,316
835.650635,323
835.768921,333
835.887146,324
836.005371,308
836.123596,319
836.241821,339
836.360046,315
836.478271,315
836.596497,315
836.714722,331
836.832886,313
836.95105,321
837.069336,319
837.1875,330
837.305725,332
837.423889,329
837.542053,319
837.660339,317
837.778503,330
837.896667,310
838.014832,314
838.132996,313
838.25116,319
838.369385,332
838.487488,326
838.605713,315
838.723877,319
838.84198,333
838.960205,320
839.078308,318
839.196472,311
839.314636,325
839.4328,316
839.550964,322
839.669067,338
839.787231,322
839.905396,344
840.023499,325
840.141602,320
840.259766,328
840.377869,328
840.495972,334
840.614136,315
840.732239,323
840.850342,329
840.968445,335
841.086548,320
841.204651,335
841.322754,346
841.440918,329
841.55896,334
841.677002,321
841.795166,325
841.913208,332
842.031311,332
842.149353,318
842.267456,336
842.385498,326
842.503601,325
842.621643,327
842.739746,349
842.857788,322
842.97583,320
843.093933,317
843.211975,330
843.330017,314
843.44812,338
843.566101,321
843.684204,321
843.802246,323
843.920227,321
844.038269,325
844.156311,314
844.274292,322
844.392395,325
844.510376,313
844.628357,333
844.74646,322
844.864441,316
844.982422,324
845.100403,316
845.218384,338
845.336426,314
845.454468,317
845.572449,325
845.69043,326
845.808411,337
845.926453,321
846.044373,326
846.162354,322
846.280396,330
846.398315,328
846.516296,335
846.634216,325
846.752197,338
846.870178,318
846.988098,336
847.106079,334
847.22406,320
847.34198,323
847.4599,321
847.577881,326
847.695801,328
847.813782,319
847.931641,330
848.049561,336
848.167603,326
848.285461,320
848.403381,326
848.521362,320
848.639221,333
848.75708,329
848.875,330
848.99292,315
849.110901,319
849.22876,321
849.34668,330
849.464539,320
849.582458,341
849.700317,321
849.818176,322
849.936096,329
850.053955,309
850.171875,327
850.289673,328
850.407593,308
850.525452,319
850.643311,310
850.761169,320
850.878967,312
850.996887,320
851.114746,327
851.232544,327
851.350403,311
851.468262,318
851.58606,320
851.703979,333
851.821777,324
851.939636,334
852.057434,318
852.175232,330
852.293091,320
852.410889,321
852.528687,323
852.646545,326
852.764343,330
852.88208,324
852.999939,317
853.117676,324
853.235535,321
853.353271,328
853.471069,314
853.588928,322
853.706604,316
853.824402,338
853.9422,307
854.059998,338
854.177734,311
854.295532,313
854.413269,325
854.531006,319
854.648804,324
854.766541,327
854.884277,329
855.002014,322
855.119751,311
855.237549,341
855.355225,321
855.473022,323
855.590698,329
855.708435,325
855.826172,328
855.943848,332
856.061646,327
856.179321,323
856.296997,332
856.414795,336
856.53241,339
856.650085,326
856.767822,324
856.885559,329
857.003174,335
857.120911,331
857.238586,333
857.356201,333
857.473938,329
857.591614,304
857.709351,325
857.826965,340
857.944641,325
858.062317,323
858.179993,317
858.297668,323
858.415283,325
858.532959,333
858.650574,316
858.768188,326
858.885803,324
859.003479,327
859.121094,319
859.23877,329
859.356384,318
859.473999,327
859.591675,326
859.709229,330
859.826843,313
859.944458,329
860.062012,324
860.179626,322
860.297302,317
860.414856,315
860.532471,321
860.650024,327
860.767639,324
860.885193,310
861.002808,331
861.120361,322
861.237976,333
861.35553,323
861.473022,313
861.590698,329
861.708191,324
861.825745,316
861.943298,328
862.060852,320
862.178406,328
862.295959,334
862.413513,317
862.531006,324
862.64856,308
862.766113,320
862.883667,325
863.00116,315
863.118713,325
863.236206,316
863.353699,333
863.471252,324
863.588745,312
863.706177,326
863.82373,325
863.941162,316
864.058716,318
864.176208,333
864.29364,322
864.411194,320
864.528687,328
864.646118,313
864.763611,312
864.881042,325
864.998535,311
865.116028,343
865.233459,331
865.350891,319
865.468384,313
865.585754,340
865.703308,321
865.820679,315
865.938171,311
866.055542,320
866.173035,328
866.290466,310
866.407837,317
866.52533,316
866.6427,321
866.760071,329
866.877563,306
866.994934,333
867.112305,314
867.229736,333
867.347107,323
867.464539,320
867.58197,317
867.699341,326
867.81665,325
867.934082,336
868.051453,311
868.168823,330
868.286194,310
868.403564,317
868.520935,326
868.638306,324
868.755676,323
868.872986,315
868.990295,333
869.107727,323
869.225037,305
869.342346,335
869.459717,309
869.577026,335
869.694336,329
869.811707,316
869.929016,317
870.046326,331
870.163635,321
870.280945,324
870.398254,323
870.515564,323
870.632812,312
870.750183,333
870.867432,331
870.984741,323
871.102051,328
871.219299,331
871.336609,325
871.453918,332
871.571106,315
871.688416,330
871.805664,322
871.922852,326
872.040222,315
872.157471,318
872.274719,324
872.391968,339
872.509155,324
872.626465,326
872.743652,322
872.860962,325
872.978149,331
873.095337,322
873.212646,329
873.329834,318
873.44696,321
873.564209,326
873.681396,318
873.798645,316
873.915894,314
874.03302,328
874.150208,317
874.267456,332
874.384583,326
874.501831,323
874.618958,329
874.736145,326
874.853333,333
874.970459,332
875.087646,328
875.204834,325
875.32196,329
875.439148,334
875.556274,319
875.673401,329
875.790527,308
875.907715,321
876.024841,327
876.141968,326
876.259094,322
876.376282,322
876.493347,323
876.610474,334
876.7276,322
876.844727,322
876.961853,317
877.078918,322
877.195984,319
877.313171,327
877.430237,323
877.547302,328
877.664368,316
877.781433,320
877.898499,317
878.015625,323
878.13269,310
878.249695,326
878.366821,332
878.483887,328
878.600952,307
878.717957,316
878.834961,309
878.952087,323
879.069092,325
879.186157,325
879.303162,327
879.420227,325
879.537231,315
879.654236,323
879.77124,305
879.888306,331
880.005249,310
880.122314,325
880.239319,317
880.356323,320
880.473328,310
880.590271,320
880.707275,315
880.824341,321
880.941284,310
881.058228,317
881.175232,317
881.292236,315
881.40918,312
881.526123,321
881.643066,326
881.760071,318
881.877014,313
881.993958,316
882.11084,326
882.227783,320
882.344727,313
882.46167,328
882.578613,319
882.695618,321
882.812439,323
882.929382,328
883.046326,323
883.163208,321
883.280151,308
883.397034,335
883.513916,311
883.630798,334
883.747742,329
883.864563,323
883.981506,317
884.098389,332
884.21521,326
884.332153,333
884.448975,332
884.565796,330
884.682678,326
884.7995,321
884.916443,322
885.033264,322
885.150085,330
885.266968,332
885.383789,334
885.500671,319
885.617493,323
885.734314,335
885.851196,329
885.967896,333
886.084717,317
886.201599,337
886.318359,322
886.435181,341
886.552002,319
886.668762,315
886.785645,324
886.902344,330
887.019165,343
887.135925,332
887.252747,327
887.369446,320
887.486267,329
887.603027,340
887.719788,322
887.836548,326
887.953247,330
888.070068,332
888.186829,312
888.303528,329
888.420288,334
888.536987,320
888.653687,309
888.770447,327
888.887146,322
889.003967,323
889.120667,308
889.237305,311
889.354065,306
889.470703,329
889.587463,319
889.704163,329
889.820862,319
889.937561,319
890.054199,312
890.170837,332
890.287598,327
890.404236,308
890.520874,300
890.637634,328
890.754211,310
890.87085,325
890.987549,303
891.104187,322
891.220886,315
891.337463,305
891.454102,315
891.57074,323
891.687378,312
891.804077,321
891.920654,312
892.037231,326
892.15387,321
892.270447,312
892.387085,320
892.503723,324
892.6203,318
892.736877,304
892.853516,323
892.970032,319
893.08667,321
893.203186,323
893.319763,324
893.43634,324
893.552917,307
893.669556,325
893.786011,297
893.902588,323
894.019165,329
894.135681,321
894.252197,317
894.368835,327
894.485291,318
894.601868,323
894.718384,310
894.8349,317
894.951355,317
895.067932,318
895.184448,309
895.300964,328
895.417419,308
895.533936,301
895.650452,315
895.766907,327
895.883423,314
895.999878,323
896.116333,323
896.232849,320
896.349304,326
896.465759,326
896.582214,299
896.698669,318
896.815125,308
896.931641,319
897.048035,329
897.164551,312
897.280884,309
897.397339,330
897.513794,328
897.630249,315
897.746582,310
897.863098,318
897.979431,318
898.095886,311
898.212341,327
898.328674,319
898.445129,324
898.561462,319
898.677795,314
898.794312,321
898.910645,311
899.026978,320
899.143433,305
899.259766,328
899.37616,324
899.492493,317
899.608765,307
899.725159,325
899.841553,317
899.957947,322
900.07428,303
900.190552,320
900.306946,309
900.423157,316
900.53949,319
900.655884,321
900.772156,313
900.888489,325
901.004822,315
901.121033,327
901.237366,311
901.353699,317
901.46991,317
901.586304,321
901.702515,316
901.818787,312
901.93512,325
902.051331,318
902.167603,331
902.283875,328
902.400085,321
902.516418,324
902.632629,312
902.74884,328
902.865112,326
902.981384,321
903.097595,313
903.213867,331
903.330017,327
903.446289,336
903.5625,326
903.67865,315
903.794922,317
903.911072,328
904.027344,323
904.143494,329
904.259705,322
904.375916,320
904.492065,312
904.608215,326
904.724426,313
904.840576,324
904.956726,319
905.072876,324
905.189087,330
905.305176,327
905.421387,307
905.537537,322
905.653687,307
905.769775,319
905.885925,319
906.002014,320
906.118164,316
906.234314,326
906.350403,320
906.466492,311
906.582642,321
906.69873,321
906.814758,303
906.930908,333
907.046936,307
907.163086,320
907.279175,318
907.395264,319
907.511353,312
907.62738,324
907.743408,317
907.859497,315
907.975525,304
908.091553,320
908.207703,311
908.32373,318
908.439758,322
908.555786,316
908.671814,317
908.787842,306
908.90387,307
909.019775,317
909.135864,321
909.251892,320
909.367859,315
909.483826,324
909.599854,321
909.715881,318
909.831848,318
909.947815,324
910.063782,312
910.179749,318
910.295776,312
910.411743,332
910.527649,303
910.643616,331
910.759583,303
910.875488,319
910.991455,315
911.107361,327
911.223267,311
911.339294,323
911.4552,305
911.571106,315
911.687073,308
911.802979,327
911.918823,314
912.034729,328
912.150635,313
912.266602,323
912.382446,305
912.498352,316
912.614197,291
912.730103,321
912.846008,320
