792.44574,315
792.56488,358
792.68396,401
792.80304,386
792.92218,338
793.041199,321
793.160339,317
793.279419,331
793.398499,337
793.517578,320
793.636658,336
793.755737,341
793.874817,357
793.993896,352
794.112976,334
794.232056,321
794.351074,322
794.470215,320
794.589233,338
794.708313,320
794.827393,321
794.946411,311
795.065552,331
795.18457,346
795.303589,319
795.422668,335
795.541687,328
795.660767,330
795.779846,341
795.898865,338
796.017883,336
796.136963,334
796.255981,330
796.375061,324
796.49408,338
796.613037,327
796.732117,327
796.851135,324
796.970154,341
797.089233,329
797.208191,331
797.327271,328
797.446228,339
797.565186,332
797.684265,336
797.803223,328
797.922241,328
798.04126,340
798.160278,325
798.279297,334
798.398315,332
798.517273,329
798.636292,321
798.75531,323
798.874268,328
798.993286,321
799.112244,328
799.231323,339
799.350281,352
799.469238,339
799.588257,335
799.707153,324
799.826111,336
799.945129,340
800.064087,333
800.183044,332
800.302063,321
800.421021,334
800.539978,331
800.658936,320
800.777893,330
800.896912,316
801.015747,337
801.134705,330
801.253723,324
801.37262,322
801.491638,326
801.610535,327
801.729492,350
801.84845,333
801.967407,319
802.086243,351
802.205261,335
802.324158,326
802.443115,336
802.562073,328
802.680969,329
802.799927,343
802.918762,333
803.037659,326
803.156677,344
803.275574,334
803.39447,319
803.513428,323
803.632263,330
803.751221,318
803.870117,344
803.989014,324
804.107971,336
804.226746,332
804.345642,332
804.4646,330
804.583496,320
804.702393,325
804.821228,315
804.940125,331
805.059021,343
805.177917,331
805.296814,313
805.415649,325
805.534546,336
805.653442,333
805.772278,335
805.891113,335
806.01001,336
806.128906,332
806.247742,323
806.366577,317
806.485413,336
806.604309,329
806.723145,327
806.84198,320
806.960876,331
807.079712,317
807.198486,326
807.317383,329
807.436218,317
807.554993,341
807.673889,345
807.792725,337
807.91156,344
808.030396,345
808.14917,334
808.268005,336
808.386841,322
808.505676,321
808.624451,343
808.743286,327
808.862122,328
808.980896,332
809.099731,333
809.218506,339
809.337341,340
809.456116,336
809.57489,344
809.693726,331
809.8125,341
809.931274,332
810.050049,326
810.168884,330
810.287659,326
810.406372,334
810.525269,337
810.643982,334
810.762756,342
810.881531,333
811.000305,333
811.11908,323
811.237854,327
811.356567,326
811.475403,342
811.594116,331
811.71283,332
811.831604,336
811.950378,334
812.069153,326
812.187927,324
812.30658,330
812.425415,316
812.544128,322
812.662781,339
812.781616,313
812.900269,328
813.019043,343
813.137756,331
813.256531,336
813.375244,333
813.493896,333
813.612671,341
813.731384,336
813.850037,336
813.96875,322
814.087524,344
814.206238,335
814.324951,340
814.443604,327
814.562256,327
814.68103,338
814.799683,338
814.918335,334
815.037109,334
815.155762,340
815.274475,326
815.393188,342
815.511841,313
815.630554,346
815.749146,317
815.867859,332
815.986572,342
816.105164,332
816.223877,339
816.342529,334
816.461182,330
816.579895,331
816.698486,311
816.817139,335
816.935791,320
817.054504,353
817.173096,331
817.291748,334
817.4104,326
817.529053,340
817.647644,332
817.766235,324
817.884949,328
818.00354,344
818.122192,324
818.240845,331
818.359436,326
818.478088,321
818.59668,319
818.715271,334
818.833923,322
818.952515,319
819.071106,327
819.189758,318
819.30835,324
819.426941,322
819.545532,323
819.664124,323
819.782715,315
819.901306,324
820.019897,319
820.138489,324
820.25708,325
820.375671,320
820.494202,305
820.612732,325
820.731384,333
820.849915,327
820.968506,314
821.087097,314
821.205627,327
821.324158,319
821.442749,313
821.561279,321
821.679871,304
821.798401,322
821.916931,323
822.035461,333
822.154053,326
822.272583,332
822.391174,322
822.509583,330
822.628174,306
822.746704,309
822.865234,329
822.983765,316
823.102295,311
823.220825,313
823.339294,322
823.457825,334
823.576355,333
823.694824,321
823.813354,321
823.931885,325
824.050354,314
824.168884,325
824.287354,309
824.405823,316
824.524353,325
824.642822,320
824.761353,317
824.879822,318
824.998291,312
825.116699,309
825.235291,329
825.353699,320
825.472168,328
825.590637,317
825.709106,331
825.827576,317
825.946045,328
826.064453,300
826.182983,326
826.301392,308
826.4198,320
826.53833,322
826.656738,313
826.775208,318
826.893677,319
827.012024,333
827.130493,315
827.248962,328
827.36731,310
827.485779,310
827.604248,326
827.722595,321
827.841064,309
827.959412,318
828.077942,326
828.196289,316
828.314636,304
828.433105,318
828.551514,310
828.669861,311
828.78833,318
828.906677,316
829.025085,317
829.143433,339
829.261841,317
829.38031,319
829.498657,319
829.617004,338
829.735413,310
829.85376,316
829.972107,319
830.090515,318
830.208862,324
830.327209,323
830.445557,321
830.563904,314
830.682312,322
830.800659,314
830.919006,317
831.037354,320
831.155701,304
831.274048,320
831.392395,320
831.51062,326
831.629028,303
831.747314,317
831.865662,320
831.984009,315
832.102356,318
832.220642,321
832.338928,312
832.457275,320
832.575623,318
832.693909,326
832.812134,307
832.930481,315
833.048828,311
833.167114,316
833.2854,316
833.403687,327
833.521973,307
833.640259,325
833.758545,300
833.876831,324
833.995056,314
834.113281,323
834.231628,319
834.349915,310
834.468201,307
834.586426,317
834.704651,306
834.822998,309
834.941162,322
835.059448,317
835.177673,315
835.295959,313
835.414246,316
835.53241,306
835.650635,307
835.768921,328
835.887146,308
836.005371,328
836.123596,300
836.241821,306
836.360046,304
836.478271,318
836.596497,317
836.714722,316
836.832886,331
836.95105,317
837.069336,328
837.1875,320
837.305725,314
837.423889,313
837.542053,319
837.660339,326
837.778503,324
837.896667,322
838.014832,317
838.132996,326
838.25116,321
838.369385,313
838.487488,320
838.605713,312
838.723877,323
838.84198,311
838.960205,326
839.078308,305
839.196472,325
839.314636,321
839.4328,323
839.550964,320
839.669067,318
839.787231,324
839.905396,322
840.023499,322
840.141602,326
840.259766,325
840.377869,302
840.495972,314
840.614136,310
840.732239,321
840.850342,313
840.968445,319
841.086548,311
841.204651,325
841.322754,321
841.440918,308
841.55896,323
841.677002,313
841.795166,306
841.913208,325
842.031311,327
842.149353,310
842.267456,324
842.385498,325
842.503601,297
842.621643,320
842.739746,307
842.857788,318
842.97583,301
843.093933,320
843.211975,310
843.330017,315
843.44812,330
843.566101,314
843.684204,316
843.802246,320
843.920227,324
844.038269,320
844.156311,324
844.274292,312
844.392395,322
844.510376,304
844.628357,300
844.74646,309
844.864441,334
844.982422,315
845.100403,316
845.218384,295
845.336426,316
845.454468,328
845.572449,320
845.69043,310
845.808411,323
845.926453,317
846.044373,321
846.162354,319
846.280396,327
846.398315,320
846.516296,315
846.634216,328
846.752197,308
846.870178,323
846.988098,318
847.106079,320
847.22406,315
847.34198,328
847.4599,315
847.577881,328
847.695801,317
847.813782,315
847.931641,312
848.049561,306
848.167603,301
848.285461,332
848.403381,310
848.521362,308
848.639221,322
848.75708,301
848.875,319
848.99292,326
849.110901,307
849.22876,311
849.34668,318
849.464539,308
849.582458,319
849.700317,309
849.818176,310
849.936096,316
850.053955,306
850.171875,334
850.289673,321
850.407593,308
850.525452,314
850.643311,326
850.761169,319
850.878967,321
850.996887,323
851.114746,315
851.232544,307
851.350403,316
851.468262,316
851.58606,313
851.703979,326
851.821777,320
851.939636,315
852.057434,320
852.175232,325
852.293091,314
852.410889,301
852.528687,319
852.646545,315
852.764343,305
852.88208,328
852.999939,307
853.117676,311
853.235535,309
853.353271,322
853.471069,315
853.588928,304
853.706604,324
853.824402,315
853.9422,309
854.059998,301
854.177734,314
854.295532,324
854.413269,313
854.531006,309
854.648804,315
854.766541,322
854.884277,322
855.002014,326
855.119751,317
855.237549,320
855.355225,317
855.473022,326
855.590698,317
855.708435,305
855.826172,334
855.943848,312
856.061646,336
856.179321,322
856.296997,320
856.414795,314
856.53241,310
856.650085,304
856.767822,300
856.885559,314
857.003174,301
857.120911,315
857.238586,324
857.356201,310
857.473938,312
857.591614,309
857.709351,306
857.826965,324
857.944641,317
858.062317,310
858.179993,319
858.297668,310
858.415283,332
858.532959,318
858.650574,318
858.768188,304
858.885803,309
859.003479,316
859.121094,316
859.23877,317
859.356384,316
859.473999,323
859.591675,323
859.709229,329
859.826843,304
859.944458,316
860.062012,318
860.179626,327
860.297302,330
860.414856,316
860.532471,326
860.650024,308
860.767639,316
860.885193,320
861.002808,307
861.120361,312
861.237976,315
861.35553,315
861.473022,312
861.590698,308
861.708191,331
861.825745,308
861.943298,318
862.060852,313
862.178406,314
862.295959,320
862.413513,309
862.531006,319
862.64856,320
862.766113,321
862.883667,310
863.00116,316
863.118713,315
863.236206,311
863.353699,322
863.471252,324
863.588745,311
863.706177,298
863.82373,330
863.941162,316
864.058716,317
864.176208,316
864.29364,322
864.411194,301
864.528687,319
864.646118,320
864.763611,317
864.881042,315
864.998535,323
865.116028,320
865.233459,322
865.350891,301
865.468384,317
865.585754,310
865.703308,314
865.820679,316
865.938171,320
866.055542,306
866.173035,331
866.290466,299
866.407837,310
866.52533,319
866.6427,316
866.760071,316
866.877563,317
866.994934,318
867.112305,313
867.229736,315
867.347107,323
867.464539,324
867.58197,323
867.699341,313
867.81665,307
867.934082,327
868.051453,315
868.168823,319
868.286194,299
868.403564,324
868.520935,318
868.638306,312
868.755676,324
868.872986,311
868.990295,319
869.107727,311
869.225037,313
869.342346,312
869.459717,319
869.577026,304
869.694336,311
869.811707,317
869.929016,318
870.046326,310
870.163635,312
870.280945,319
870.398254,313
870.515564,310
870.632812,333
870.750183,313
870.867432,325
870.984741,310
871.102051,314
871.219299,315
871.336609,311
871.453918,335
871.571106,320
871.688416,315
871.805664,315
871.922852,319
872.040222,317
872.157471,316
872.274719,324
872.391968,313
872.509155,318
872.626465,318
872.743652,321
872.860962,320
872.978149,327
873.095337,309
873.212646,311
873.329834,316
873.44696,322
873.564209,312
873.681396,329
873.798645,307
873.915894,309
874.03302,317
874.150208,321
874.267456,316
874.384583,322
874.501831,311
874.618958,328
874.736145,308
874.853333,327
874.970459,326
875.087646,312
875.204834,301
875.32196,305
875.439148,321
875.556274,322
875.673401,312
875.790527,298
875.907715,313
876.024841,320
876.141968,307
876.259094,312
876.376282,321
876.493347,316
876.610474,322
876.7276,310
876.844727,310
876.961853,320
877.078918,316
877.195984,326
877.313171,308
877.430237,313
877.547302,313
877.664368,307
877.781433,304
877.898499,307
878.015625,316
878.13269,328
878.249695,312
878.366821,314
878.483887,323
878.600952,317
878.717957,313
878.834961,319
878.952087,311
879.069092,311
879.186157,312
879.303162,331
879.420227,314
879.537231,319
879.654236,327
879.77124,308
879.888306,334
880.005249,307
880.122314,317
880.239319,318
880.356323,314
880.473328,317
880.590271,326
880.707275,325
880.824341,319
880.941284,322
881.058228,315
881.175232,313
881.292236,313
881.40918,310
881.526123,322
881.643066,321
881.760071,303
881.877014,315
881.993958,320
882.11084,322
882.227783,318
882.344727,321
882.46167,310
882.578613,307
882.695618,321
882.812439,341
882.929382,314
883.046326,325
883.163208,311
883.280151,318
883.397034,323
883.513916,309
883.630798,318
883.747742,314
883.864563,323
883.981506,319
884.098389,309
884.21521,303
884.332153,325
884.448975,312
884.565796,321
884.682678,310
884.7995,326
884.916443,328
885.033264,319
885.150085,318
885.266968,319
885.383789,305
885.500671,323
885.617493,305
885.734314,312
885.851196,322
885.967896,320
886.084717,309
886.201599,315
886.318359,316
886.435181,300
886.552002,312
886.668762,309
886.785645,317
886.902344,309
887.019165,316
887.135925,317
887.252747,318
887.369446,325
887.486267,317
887.603027,329
887.719788,322
887.836548,316
887.953247,313
888.070068,317
888.186829,315
888.303528,322
888.420288,312
888.536987,310
888.653687,313
888.770447,308
888.887146,320
889.003967,317
889.120667,312
889.237305,306
889.354065,312
889.470703,315
889.587463,324
889.704163,318
889.820862,324
889.937561,309
890.054199,312
890.170837,321
890.287598,313
890.404236,310
890.520874,308
890.637634,328
890.754211,324
890.87085,301
890.987549,323
891.104187,313
891.220886,328
891.337463,313
891.454102,309
891.57074,309
891.687378,313
891.804077,310
891.920654,301
892.037231,307
892.15387,319
892.270447,331
892.387085,323
892.503723,321
892.6203,321
892.736877,317
892.853516,314
892.970032,313
893.08667,312
893.203186,310
893.319763,312
893.43634,305
893.552917,311
893.669556,316
893.786011,311
893.902588,324
894.019165,319
894.135681,312
894.252197,328
894.368835,310
894.485291,322
894.601868,316
894.718384,307
894.8349,314
894.951355,308
895.067932,311
895.184448,324
895.300964,311
895.417419,323
895.533936,317
895.650452,305
895.766907,319
895.883423,336
895.999878,321
896.116333,305
896.232849,324
896.349304,317
896.465759,324
896.582214,321
896.698669,305
896.815125,322
896.931641,326
897.048035,318
897.164551,304
897.280884,320
897.397339,324
897.513794,332
897.630249,326
897.746582,313
897.863098,319
897.979431,312
898.095886,311
898.212341,323
898.328674,318
898.445129,314
898.561462,313
898.677795,315
898.794312,317
898.910645,333
899.026978,313
899.143433,310
899.259766,309
899.37616,333
899.492493,314
899.608765,315
899.725159,322
899.841553,319
899.957947,316
900.07428,298
900.190552,317
900.306946,310
900.423157,310
900.53949,323
900.655884,309
900.772156,330
900.888489,321
901.004822,316
901.121033,321
901.237366,310
901.353699,312
901.46991,311
901.586304,313
901.702515,323
901.818787,313
901.93512,313
902.051331,319
902.167603,307
902.283875,307
902.400085,323
902.516418,312
902.632629,324
902.74884,322
902.865112,303
902.981384,310
903.097595,312
903.213867,313
903.330017,312
903.446289,311
903.5625,300
903.67865,320
903.794922,306
903.911072,312
904.027344,330
904.143494,321
904.259705,314
904.375916,319
904.492065,316
904.608215,322
904.724426,318
904.840576,307
904.956726,308
905.072876,314
905.189087,331
905.305176,311
905.421387,318
905.537537,337
905.653687,313
905.769775,306
905.885925,322
906.002014,314
906.118164,321
906.234314,317
906.350403,310
906.466492,315
906.582642,311
906.69873,314
906.814758,311
906.930908,333
907.046936,319
907.163086,323
907.279175,324
907.395264,318
907.511353,319
907.62738,319
907.743408,322
907.859497,315
907.975525,315
908.091553,320
908.207703,316
908.32373,315
908.439758,309
908.555786,305
908.671814,313
908.787842,322
908.90387,310
909.019775,322
909.135864,316
909.251892,319
909.367859,329
909.483826,309
909.599854,322
909.715881,307
909.831848,332
909.947815,330
910.063782,310
910.179749,306
910.295776,310
910.411743,308
910.527649,316
910.643616,331
910.759583,317
910.875488,315
910.991455,311
911.107361,327
911.223267,314
911.339294,310
911.4552,313
911.571106,307
911.687073,322
911.802979,321
911.918823,321
912.034729,317
912.150635,317
912.266602,320
912.382446,324
912.498352,303
912.614197,316
912.730103,310
912.846008,299
792.44574,306
792.56488,370
792.68396,391
792.80304,390
792.92218,318
793.041199,309
793.160339,325
793.279419,339
793.398499,340
793.517578,322
793.636658,322
793.755737,322
793.874817,347
793.993896,358
794.112976,331
794.232056,320
794.351074,320
794.470215,333
794.589233,319
794.708313,323
794.827393,331
794.946411,337
795.065552,325
795.18457,338
795.303589,328
795.422668,333
795.541687,329
795.660767,339
795.779846,331
795.898865,328
796.017883,331
796.136963,327
796.255981,328
796.375061,337
796.49408,340
796.613037,337
796.732117,327
796.851135,323
796.970154,331
797.089233,343
797.208191,331
797.327271,323
797.446228,335
797.565186,332
797.684265,329
797.803223,325
797.922241,322
798.04126,325
798.160278,337
798.279297,340
798.398315,330
798.517273,324
798.636292,345
798.75531,335
798.874268,319
798.993286,340
799.112244,307
799.231323,327
799.350281,327
799.469238,321
799.588257,325
799.707153,335
799.826111,329
799.945129,339
800.064087,332
800.183044,336
800.302063,331
800.421021,337
800.539978,333
800.658936,333
800.777893,334
800.896912,345
801.015747,319
801.134705,320
801.253723,336
801.37262,345
801.491638,346
801.610535,332
801.729492,340
801.84845,321
801.967407,328
802.086243,327
802.205261,336
802.324158,315
802.443115,338
802.562073,333
802.680969,336
802.799927,342
802.918762,324
803.037659,329
803.156677,337
803.275574,319
803.39447,336
803.513428,328
803.632263,335
803.751221,338
803.870117,326
803.989014,337
804.107971,323
804.226746,334
804.345642,332
804.4646,339
804.583496,343
804.702393,320
804.821228,333
804.940125,328
805.059021,332
805.177917,348
805.296814,329
805.415649,328
805.534546,337
805.653442,342
805.772278,333
805.891113,334
806.01001,330
806.128906,330
806.247742,333
806.366577,342
806.485413,332
806.604309,330
806.723145,332
806.84198,341
806.960876,339
807.079712,326
807.198486,333
807.317383,338
807.436218,321
807.554993,328
807.673889,322
807.792725,334
807.91156,343
808.030396,330
808.14917,346
808.268005,330
808.386841,326
808.505676,333
808.624451,311
808.743286,338
808.862122,342
808.980896,329
809.099731,320
809.218506,326
809.337341,327
809.456116,338
809.57489,315
809.693726,323
809.8125,343
809.931274,330
810.050049,350
810.168884,327
810.287659,326
810.406372,344
810.525269,334
810.643982,320
810.762756,318
810.881531,330
811.000305,320
811.11908,338
811.237854,330
811.356567,331
811.475403,349
811.594116,342
811.71283,318
811.831604,326
811.950378,327
812.069153,326
812.187927,341
812.30658,335
812.425415,342
812.544128,332
812.662781,325
812.781616,342
812.900269,331
813.019043,337
813.137756,316
813.256531,333
813.375244,338
813.493896,325
813.612671,318
813.731384,339
813.850037,330
813.96875,334
814.087524,331
814.206238,332
814.324951,324
814.443604,332
814.562256,335
814.68103,337
814.799683,339
814.918335,330
815.037109,332
815.155762,327
815.274475,339
815.393188,332
815.511841,339
815.630554,340
815.749146,337
815.867859,337
815.986572,330
816.105164,348
816.223877,328
816.342529,331
816.461182,327
816.579895,331
816.698486,318
816.817139,322
816.935791,333
817.054504,314
817.173096,339
817.291748,339
817.4104,327
817.529053,331
817.647644,329
817.766235,335
817.884949,340
818.00354,320
818.122192,325
818.240845,312
818.359436,320
818.478088,329
818.59668,326
818.715271,337
818.833923,328
818.952515,329
819.071106,337
819.189758,329
819.30835,331
819.426941,334
819.545532,330
819.664124,327
819.782715,336
819.901306,330
820.019897,328
820.138489,321
820.25708,310
820.375671,330
820.494202,324
820.612732,324
820.731384,323
820.849915,309
820.968506,318
821.087097,326
821.205627,327
821.324158,319
821.442749,328
821.561279,308
821.679871,324
821.798401,325
821.916931,321
822.035461,313
822.154053,326
822.272583,332
822.391174,316
822.509583,320
822.628174,318
822.746704,318
822.865234,338
822.983765,322
823.102295,316
823.220825,315
823.339294,322
823.457825,318
823.576355,316
823.694824,317
823.813354,322
823.931885,331
824.050354,327
824.168884,325
824.287354,322
824.405823,309
824.524353,316
824.642822,323
824.761353,324
824.879822,320
824.998291,318
825.116699,318
825.235291,334
825.353699,327
825.472168,310
825.590637,319
825.709106,328
825.827576,322
825.946045,325
826.064453,325
826.182983,317
826.301392,318
826.4198,317
826.53833,311
826.656738,330
826.775208,324
826.893677,313
827.012024,310
827.130493,322
827.248962,319
827.36731,321
827.485779,315
827.604248,318
827.722595,323
827.841064,307
827.959412,321
828.077942,316
828.196289,325
828.314636,327
828.433105,316
828.551514,331
828.669861,309
828.78833,300
828.906677,319
829.025085,302
829.143433,317
829.261841,321
829.38031,324
829.498657,320
829.617004,312
829.735413,319
829.85376,318
829.972107,312
830.090515,311
830.208862,321
830.327209,312
830.445557,326
830.563904,324
830.682312,318
830.800659,318
830.919006,314
831.037354,314
831.155701,318
831.274048,313
831.392395,304
831.51062,303
831.629028,314
831.747314,318
831.865662,324
831.984009,319
832.102356,327
832.220642,315
832.338928,319
832.457275,315
832.575623,319
832.693909,319
832.812134,310
832.930481,311
833.048828,309
833.167114,331
833.2854,316
833.403687,331
833.521973,314
833.640259,316
833.758545,323
833.876831,308
833.995056,318
834.113281,317
834.231628,298
834.349915,318
834.468201,311
834.586426,315
834.704651,312
834.822998,311
834.941162,315
835.059448,323
835.177673,304
835.295959,313
835.414246,312
835.53241,313
835.650635,307
835.768921,315
835.887146,316
836.005371,307
836.123596,317
836.241821,306
836.360046,322
836.478271,326
836.596497,309
836.714722,312
836.832886,319
836.95105,317
837.069336,321
837.1875,329
837.305725,326
837.423889,316
837.542053,331
837.660339,324
837.778503,317
837.896667,319
838.014832,314
838.132996,304
838.25116,334
838.369385,315
838.487488,322
838.605713,319
838.723877,330
838.84198,324
838.960205,325
839.078308,314
839.196472,335
839.314636,325
839.4328,321
839.550964,325
839.669067,317
839.787231,318
839.905396,320
840.023499,325
840.141602,328
840.259766,300
840.377869,325
840.495972,321
840.614136,318
840.732239,319
840.850342,310
840.968445,316
841.086548,316
841.204651,320
841.322754,316
841.440918,310
841.55896,325
841.677002,322
841.795166,318
841.913208,315
842.031311,310
842.149353,315
842.267456,313
842.385498,324
842.503601,309
842.621643,325
842.739746,317
842.857788,318
842.97583,311
843.093933,312
843.211975,321
843.330017,314
843.44812,310
843.566101,310
843.684204,314
843.802246,323
843.920227,317
844.038269,323
844.156311,312
844.274292,323
844.392395,322
844.510376,317
844.628357,309
844.74646,318
844.864441,314
844.982422,319
845.100403,306
845.218384,325
845.336426,317
845.454468,327
845.572449,307
845.69043,321
845.808411,319
845.926453,314
846.044373,319
846.162354,322
846.280396,318
846.398315,326
846.516296,318
846.634216,318
846.752197,299
846.870178,314
846.988098,323
847.106079,312
847.22406,327
847.34198,328
847.4599,317
847.577881,324
847.695801,306
847.813782,323
847.931641,329
848.049561,320
848.167603,317
848.285461,311
848.403381,325
848.521362,320
848.639221,316
848.75708,327
848.875,305
848.99292,319
849.110901,316
849.22876,330
849.34668,313
849.464539,323
849.582458,310
849.700317,311
849.818176,322
849.936096,318
850.053955,328
850.171875,314
850.289673,312
850.407593,323
850.525452,324
850.643311,329
850.761169,313
850.878967,317
850.996887,312
851.114746,324
851.232544,311
851.350403,328
851.468262,311
851.58606,324
851.703979,305
851.821777,322
851.939636,320
852.057434,312
852.175232,328
852.293091,315
852.410889,305
852.528687,315
852.646545,314
852.764343,317
852.88208,309
852.999939,309
853.117676,320
853.235535,301
853.353271,321
853.471069,310
853.588928,320
853.706604,318
853.824402,324
853.9422,308
854.059998,317
854.177734,332
854.295532,327
854.413269,299
854.531006,309
854.648804,323
854.766541,324
854.884277,307
855.002014,318
855.119751,308
855.237549,314
855.355225,322
855.473022,312
855.590698,308
855.708435,321
855.826172,311
855.943848,314
856.061646,323
856.179321,310
856.296997,317
856.414795,316
856.53241,321
856.650085,306
856.767822,312
856.885559,307
857.003174,316
857.120911,319
857.238586,327
857.356201,305
857.473938,332
857.591614,320
857.709351,312
857.826965,316
857.944641,323
858.062317,316
858.179993,309
858.297668,313
858.415283,312
858.532959,330
858.650574,332
858.768188,299
858.885803,313
859.003479,318
859.121094,322
859.23877,333
859.356384,327
859.473999,318
859.591675,313
859.709229,320
859.826843,321
859.944458,305
860.062012,319
860.179626,315
860.297302,316
860.414856,315
860.532471,313
860.650024,332
860.767639,304
860.885193,313
861.002808,331
861.120361,312
861.237976,310
861.35553,318
861.473022,318
861.590698,312
861.708191,316
861.825745,314
861.943298,317
862.060852,315
862.178406,314
862.295959,309
862.413513,320
862.531006,299
862.64856,305
862.766113,320
862.883667,314
863.00116,319
863.118713,321
863.236206,316
863.353699,325
863.471252,325
863.588745,314
863.706177,316
863.82373,323
863.941162,314
864.058716,318
864.176208,316
864.29364,313
864.411194,332
864.528687,315
864.646118,327
864.763611,313
864.881042,313
864.998535,319
865.116028,313
865.233459,313
865.350891,316
865.468384,320
865.585754,305
865.703308,320
865.820679,324
865.938171,323
866.055542,323
866.173035,301
866.290466,320
866.407837,317
866.52533,310
866.6427,317
866.760071,300
866.877563,324
866.994934,308
867.112305,317
867.229736,322
867.347107,314
867.464539,317
867.58197,322
867.699341,304
867.81665,310
867.934082,310
868.051453,330
868.168823,305
868.286194,321
868.403564,306
868.520935,323
868.638306,319
868.755676,320
868.872986,315
868.990295,314
869.107727,321
869.225037,311
869.342346,316
869.459717,318
869.577026,307
869.694336,314
869.811707,319
869.929016,321
870.046326,315
870.163635,318
870.280945,308
870.398254,317
870.515564,316
870.632812,322
870.750183,321
870.867432,310
870.984741,328
871.102051,328
871.219299,317
871.336609,313
871.453918,314
871.571106,327
871.688416,308
871.805664,311
871.922852,308
872.040222,322
872.157471,310
872.274719,308
872.391968,309
872.509155,315
872.626465,320
872.743652,318
872.860962,324
872.978149,322
873.095337,317
873.212646,315
873.329834,316
873.44696,315
873.564209,310
873.681396,306
873.798645,316
873.915894,317
874.03302,312
874.150208,304
874.267456,324
874.384583,322
874.501831,317
874.618958,327
874.736145,324
874.853333,309
874.970459,312
875.087646,320
875.204834,313
875.32196,321
875.439148,316
875.556274,313
875.673401,304
875.790527,321
875.907715,314
876.024841,310
876.141968,312
876.259094,312
876.376282,307
876.493347,318
876.610474,308
876.7276,316
876.844727,318
876.961853,314
877.078918,302
877.195984,314
877.313171,316
877.430237,325
877.547302,308
877.664368,312
877.781433,297
877.898499,314
878.015625,309
878.13269,308
878.249695,319
878.366821,305
878.483887,315
878.600952,317
878.717957,317
878.834961,316
878.952087,316
879.069092,308
879.186157,310
879.303162,308
879.420227,313
879.537231,321
879.654236,297
879.77124,327
879.888306,318
880.005249,327
880.122314,313
880.239319,309
880.356323,306
880.473328,306
880.590271,316
880.707275,299
880.824341,307
880.941284,321
881.058228,305
881.175232,323
881.292236,318
881.40918,329
881.526123,317
881.643066,314
881.760071,317
881.877014,313
881.993958,313
882.11084,314
882.227783,312
882.344727,330
882.46167,309
882.578613,325
882.695618,316
882.812439,312
882.929382,318
883.046326,305
883.163208,301
883.280151,315
883.397034,319
883.513916,323
883.630798,325
883.747742,311
883.864563,304
883.981506,305
884.098389,319
884.21521,304
884.332153,315
884.448975,318
884.565796,320
884.682678,327
884.7995,321
884.916443,302
885.033264,319
885.150085,311
885.266968,331
885.383789,314
885.500671,319
885.617493,325
885.734314,305
885.851196,326
885.967896,328
886.084717,320
886.201599,313
886.318359,311
886.435181,322
886.552002,324
886.668762,311
886.785645,307
886.902344,303
887.019165,322
887.135925,315
887.252747,316
887.369446,318
887.486267,322
887.603027,311
887.719788,314
887.836548,311
887.953247,308
888.070068,318
888.186829,308
888.303528,325
888.420288,320
888.536987,323
888.653687,312
888.770447,302
888.887146,334
889.003967,320
889.120667,325
889.237305,324
889.354065,322
889.470703,320
889.587463,330
889.704163,330
889.820862,314
889.937561,328
890.054199,319
890.170837,322
890.287598,336
890.404236,316
890.520874,322
890.637634,320
890.754211,309
890.87085,334
890.987549,323
891.104187,324
891.220886,310
891.337463,310
891.454102,313
891.57074,324
891.687378,309
891.804077,320
891.920654,296
892.037231,311
892.15387,309
892.270447,319
892.387085,311
892.503723,314
892.6203,318
892.736877,309
892.853516,317
892.970032,313
893.08667,319
893.203186,314
893.319763,328
893.43634,326
893.552917,329
893.669556,318
893.786011,323
893.902588,300
894.019165,323
894.135681,328
894.252197,313
894.368835,308
894.485291,323
894.601868,316
894.718384,307
894.8349,302
894.951355,324
895.067932,321
895.184448,325
895.300964,314
895.417419,309
895.533936,321
895.650452,313
895.766907,325
895.883423,325
895.999878,324
896.116333,314
896.232849,317
896.349304,315
896.465759,312
896.582214,306
896.698669,310
896.815125,321
896.931641,327
897.048035,317
897.164551,311
897.280884,317
897.397339,313
897.513794,326
897.630249,300
897.746582,317
897.863098,311
897.979431,310
898.095886,318
898.212341,306
898.328674,324
898.445129,311
898.561462,311
898.677795,306
898.794312,311
898.910645,308
899.026978,314
899.143433,318
899.259766,315
899.37616,313
899.492493,306
899.608765,308
899.725159,318
899.841553,310
899.957947,319
900.07428,321
900.190552,313
900.306946,312
900.423157,316
900.53949,319
900.655884,312
900.772156,323
900.888489,318
901.004822,322
901.121033,322
901.237366,320
901.353699,317
901.46991,331
901.586304,314
901.702515,312
901.818787,301
901.93512,315
902.051331,308
902.167603,306
902.283875,311
902.400085,306
902.516418,320
902.632629,316
902.74884,324
902.865112,314
902.981384,322
903.097595,322
903.213867,308
903.330017,317
903.446289,307
903.5625,321
903.67865,317
903.794922,316
903.911072,306
904.027344,321
904.143494,307
904.259705,309
904.375916,320
904.492065,316
904.608215,317
904.724426,317
904.840576,319
904.956726,315
905.072876,312
905.189087,324
905.305176,326
905.421387,323
905.537537,311
905.653687,321
905.769775,312
905.885925,317
906.002014,311
906.118164,318
906.234314,317
906.350403,319
906.466492,313
906.582642,315
906.69873,306
906.814758,326
906.930908,313
907.046936,314
907.163086,325
907.279175,321
907.395264,310
907.511353,304
907.62738,314
907.743408,325
907.859497,311
907.975525,319
908.091553,319
908.207703,309
908.32373,309
908.439758,320
908.555786,306
908.671814,320
908.787842,315
908.90387,318
909.019775,321
909.135864,330
909.251892,315
909.367859,314
909.483826,306
909.599854,320
909.715881,325
909.831848,322
909.947815,322
910.063782,316
910.179749,315
910.295776,324
910.411743,323
910.527649,308
910.643616,314
910.759583,305
910.875488,331
910.991455,306
911.107361,307
911.223267,318
911.339294,301
911.4552,329
911.571106,313
911.687073,321
911.802979,301
911.918823,315
912.034729,317
912.150635,328
912.266602,310
912.382446,324
912.498352,310
912.614197,328
912.730103,315
912.846008,312
792.44574,306
792.56488,349
792.68396,388
792.80304,373
792.92218,343
793.041199,320
793.160339,308
793.279419,339
793.398499,335
793.517578,299
793.636658,316
793.755737,332
793.874817,344
793.993896,347
794.112976,334
794.232056,325
794.351074,328
794.470215,326
794.589233,326
794.708313,326
794.827393,322
794.946411,337
795.065552,331
795.18457,332
795.303589,327
795.422668,339
795.541687,332
795.660767,331
795.779846,340
795.898865,342
796.017883,321
796.136963,337
796.255981,327
796.375061,324
796.49408,321
796.613037,339
796.732117,322
796.851135,345
796.970154,324
797.089233,326
797.208191,336
797.327271,329
797.446228,341
797.565186,320
797.684265,332
797.803223,323
797.922241,339
798.04126,325
798.160278,328
798.279297,329
798.398315,315
798.517273,336
798.636292,328
798.75531,337
798.874268,329
798.993286,335
799.112244,322
799.231323,336
799.350281,314
799.469238,342
799.588257,330
799.707153,351
799.826111,334
799.945129,323
800.064087,329
800.183044,341
800.302063,314
800.421021,338
800.539978,337
800.658936,331
800.777893,346
800.896912,320
801.015747,329
801.134705,342
801.253723,329
801.37262,337
801.491638,325
801.610535,339
801.729492,329
801.84845,336
801.967407,337
802.086243,328
802.205261,328
802.324158,330
802.443115,317
802.562073,329
802.680969,330
802.799927,329
802.918762,332
803.037659,341
803.156677,333
803.275574,312
803.39447,337
803.513428,333
803.632263,334
803.751221,330
803.870117,335
803.989014,338
804.107971,335
804.226746,334
804.345642,340
804.4646,339
804.583496,332
804.702393,329
804.821228,328
804.940125,327
805.059021,333
805.177917,320
805.296814,343
805.415649,329
805.534546,324
805.653442,333
805.772278,324
805.891113,343
806.01001,346
806.128906,324
806.247742,328
806.366577,331
806.485413,314
806.604309,329
806.723145,334
806.84198,331
806.960876,339
807.079712,321
807.198486,335
807.317383,340
807.436218,332
807.554993,330
807.673889,340
807.792725,328
807.91156,333
808.030396,336
808.14917,333
808.268005,327
808.386841,333
808.505676,338
808.624451,323
808.743286,330
808.862122,321
808.980896,342
809.099731,325
809.218506,325
809.337341,348
809.456116,326
809.57489,336
809.693726,336
809.8125,325
809.931274,344
810.050049,339
810.168884,338
810.287659,318
810.406372,337
810.525269,343
810.643982,322
810.762756,331
810.881531,331
811.000305,334
811.11908,339
811.237854,329
811.356567,344
811.475403,333
811.594116,327
811.71283,331
811.831604,333
811.950378,333
812.069153,329
812.187927,337
812.30658,331
812.425415,323
812.544128,347
812.662781,334
812.781616,336
812.900269,346
813.019043,338
813.137756,329
813.256531,331
813.375244,329
813.493896,337
813.612671,334
813.731384,336
813.850037,334
813.96875,334
814.087524,332
814.206238,337
814.324951,331
814.443604,327
814.562256,333
814.68103,326
814.799683,316
814.918335,331
815.037109,335
815.155762,325
815.274475,336
815.393188,335
815.511841,332
815.630554,332
815.749146,333
815.867859,340
815.986572,316
816.105164,343
816.223877,348
816.342529,344
816.461182,341
816.579895,337
816.698486,340
816.817139,334
816.935791,344
817.054504,338
817.173096,333
817.291748,333
817.4104,332
817.529053,331
817.647644,345
817.766235,338
817.884949,313
818.00354,322
818.122192,317
818.240845,330
818.359436,329
818.478088,334
818.59668,328
818.715271,322
818.833923,324
818.952515,318
819.071106,321
819.189758,320
819.30835,309
819.426941,311
819.545532,317
819.664124,330
819.782715,333
819.901306,317
820.019897,338
820.138489,320
820.25708,315
820.375671,314
820.494202,321
820.612732,322
820.731384,320
820.849915,311
820.968506,316
821.087097,327
821.205627,329
821.324158,302
821.442749,330
821.561279,320
821.679871,325
821.798401,327
821.916931,311
822.035461,317
822.154053,319
822.272583,322
822.391174,331
822.509583,312
822.628174,318
822.746704,323
822.865234,315
822.983765,308
823.102295,321
823.220825,322
823.339294,314
823.457825,323
823.576355,306
823.694824,326
823.813354,310
823.931885,313
824.050354,328
824.168884,318
824.287354,317
824.405823,312
824.524353,318
824.642822,322
824.761353,313
824.879822,315
824.998291,340
825.116699,314
825.235291,329
825.353699,312
825.472168,320
825.590637,318
825.709106,323
825.827576,307
825.946045,314
826.064453,321
826.182983,295
826.301392,309
826.4198,338
826.53833,322
826.656738,301
826.775208,314
826.893677,315
827.012024,319
827.130493,318
827.248962,316
827.36731,317
827.485779,309
827.604248,318
827.722595,309
827.841064,315
827.959412,312
828.077942,319
828.196289,312
828.314636,317
828.433105,306
828.551514,320
828.669861,322
828.78833,325
828.906677,321
829.025085,319
829.143433,319
829.261841,325
829.38031,320
829.498657,316
829.617004,315
829.735413,313
829.85376,323
829.972107,323
830.090515,324
830.208862,320
830.327209,322
830.445557,304
830.563904,314
830.682312,323
830.800659,311
830.919006,307
831.037354,312
831.155701,325
831.274048,328
831.392395,309
831.51062,312
831.629028,321
831.747314,321
831.865662,319
831.984009,309
832.102356,307
832.220642,321
832.338928,311
832.457275,312
832.575623,318
832.693909,331
832.812134,299
832.930481,305
833.048828,323
833.167114,319
833.2854,309
833.403687,320
833.521973,321
833.640259,324
833.758545,309
833.876831,317
833.995056,313
834.113281,326
834.231628,321
834.349915,320
834.468201,315
834.586426,323
834.704651,312
834.822998,314
834.941162,323
835.059448,314
835.177673,323
835.295959,312
835.414246,323
835.53241,314
835.650635,313
835.768921,317
835.887146,300
836.005371,321
836.123596,311
836.241821,317
836.360046,314
836.478271,301
836.596497,324
836.714722,332
836.832886,322
836.95105,325
837.069336,313
837.1875,328
837.305725,333
837.423889,319
837.542053,306
837.660339,319
837.778503,314
837.896667,312
838.014832,325
838.132996,325
838.25116,309
838.369385,335
838.487488,305
838.605713,323
838.723877,319
838.84198,317
838.960205,330
839.078308,321
839.196472,306
839.314636,328
839.4328,316
839.550964,333
839.669067,305
839.787231,330
839.905396,324
840.023499,311
840.141602,314
840.259766,311
840.377869,317
840.495972,320
840.614136,321
840.732239,308
840.850342,316
840.968445,312
841.086548,313
841.204651,321
841.322754,324
841.440918,311
841.55896,339
841.677002,317
841.795166,326
841.913208,308
842.031311,317
842.149353,312
842.267456,322
842.385498,325
842.503601,318
842.621643,316
842.739746,316
842.857788,304
842.97583,306
843.093933,313
843.211975,307
843.330017,320
843.44812,315
843.566101,313
843.684204,301
843.802246,314
843.920227,331
844.038269,316
844.156311,307
844.274292,317
844.392395,319
844.510376,325
844.628357,318
844.74646,318
844.864441,312
844.982422,304
845.100403,303
845.218384,327
845.336426,310
845.454468,321
845.572449,304
845.69043,322
845.808411,331
845.926453,307
846.044373,321
846.162354,319
846.280396,321
846.398315,321
846.516296,318
846.634216,317
846.752197,315
846.870178,318
846.988098,310
847.106079,312
847.22406,316
847.34198,306
847.4599,324
847.577881,321
847.695801,320
847.813782,319
847.931641,303
848.049561,316
848.167603,316
848.285461,327
848.403381,326
848.521362,325
848.639221,319
848.75708,322
848.875,305
848.99292,331
849.110901,303
849.22876,315
849.34668,292
849.464539,305
849.582458,315
849.700317,313
849.818176,320
849.936096,319
850.053955,316
850.171875,316
850.289673,324
850.407593,321
850.525452,295
850.643311,317
850.761169,301
850.878967,318
850.996887,321
851.114746,318
851.232544,310
851.350403,314
851.468262,304
851.58606,312
851.703979,302
851.821777,317
851.939636,319
852.057434,329
852.175232,301
852.293091,320
852.410889,311
852.528687,317
852.646545,325
852.764343,322
852.88208,319
852.999939,318
853.117676,323
853.235535,320
853.353271,316
853.471069,317
853.588928,317
853.706604,304
853.824402,325
853.9422,331
854.059998,325
854.177734,318
854.295532,311
854.413269,311
854.531006,315
854.648804,318
854.766541,324
854.884277,315
855.002014,321
855.119751,323
855.237549,318
855.355225,332
855.473022,304
855.590698,306
855.708435,313
855.826172,312
855.943848,306
856.061646,320
856.179321,304
856.296997,311
856.414795,317
856.53241,325
856.650085,314
856.767822,326
856.885559,314
857.003174,320
857.120911,308
857.238586,322
857.356201,312
857.473938,316
857.591614,319
857.709351,320
857.826965,323
857.944641,308
858.062317,327
858.179993,314
858.297668,311
858.415283,318
858.532959,311
858.650574,308
858.768188,318
858.885803,324
859.003479,320
859.121094,314
859.23877,325
859.356384,313
859.473999,316
859.591675,311
859.709229,309
859.826843,314
859.944458,319
860.062012,323
860.179626,315
860.297302,316
860.414856,334
860.532471,315
860.650024,326
860.767639,322
860.885193,315
861.002808,312
861.120361,321
861.237976,317
861.35553,305
861.473022,323
861.590698,318
861.708191,316
861.825745,312
861.943298,310
862.060852,312
862.178406,305
862.295959,326
862.413513,321
862.531006,322
862.64856,314
862.766113,322
862.883667,312
863.00116,306
863.118713,329
863.236206,315
863.353699,318
863.471252,321
863.588745,324
863.706177,314
863.82373,316
863.941162,312
864.058716,320
864.176208,304
864.29364,298
864.411194,317
864.528687,315
864.646118,311
864.763611,326
864.881042,316
864.998535,304
865.116028,328
865.233459,318
865.350891,324
865.468384,319
865.585754,309
865.703308,330
865.820679,299
865.938171,313
866.055542,321
866.173035,316
866.290466,309
866.407837,317
866.52533,318
866.6427,319
866.760071,315
866.877563,315
866.994934,324
867.112305,319
867.229736,317
867.347107,313
867.464539,320
867.58197,317
867.699341,307
867.81665,321
867.934082,315
868.051453,311
868.168823,313
868.286194,320
868.403564,320
868.520935,316
868.638306,301
868.755676,310
868.872986,319
868.990295,324
869.107727,320
869.225037,317
869.342346,313
869.459717,319
869.577026,322
869.694336,323
869.811707,325
869.929016,314
870.046326,311
870.163635,311
870.280945,316
870.398254,322
870.515564,313
870.632812,313
870.750183,306
870.867432,313
870.984741,317
871.102051,315
871.219299,303
871.336609,322
871.453918,322
871.571106,311
871.688416,314
871.805664,310
871.922852,309
872.040222,305
872.157471,313
872.274719,324
872.391968,307
872.509155,308
872.626465,311
872.743652,320
872.860962,311
872.978149,312
873.095337,323
873.212646,319
873.329834,309
873.44696,316
873.564209,316
873.681396,324
873.798645,317
873.915894,317
874.03302,321
874.150208,302
874.267456,310
874.384583,322
874.501831,314
874.618958,321
874.736145,323
874.853333,319
874.970459,315
875.087646,323
875.204834,311
875.32196,322
875.439148,318
875.556274,318
875.673401,323
875.790527,309
875.907715,314
876.024841,330
876.141968,322
876.259094,315
876.376282,318
876.493347,311
876.610474,307
876.7276,307
876.844727,317
876.961853,312
877.078918,307
877.195984,313
877.313171,301
877.430237,310
877.547302,315
877.664368,317
877.781433,321
877.898499,327
878.015625,326
878.13269,311
878.249695,323
878.366821,320
878.483887,315
878.600952,323
878.717957,312
878.834961,316
878.952087,301
879.069092,333
879.186157,314
879.303162,321
879.420227,309
879.537231,313
879.654236,322
879.77124,315
879.888306,315
880.005249,321
880.122314,318
880.239319,322
880.356323,318
880.473328,313
880.590271,318
880.707275,316
880.824341,318
880.941284,321
881.058228,316
881.175232,304
881.292236,303
881.40918,306
881.526123,330
881.643066,307
881.760071,319
881.877014,327
881.993958,317
882.11084,323
882.227783,319
882.344727,323
882.46167,318
882.578613,315
882.695618,320
882.812439,322
882.929382,315
883.046326,330
883.163208,308
883.280151,319
883.397034,307
883.513916,314
883.630798,314
883.747742,313
883.864563,303
883.981506,323
884.098389,304
884.21521,314
884.332153,308
884.448975,322
884.565796,313
884.682678,307
884.7995,318
884.916443,310
885.033264,312
885.150085,323
885.266968,313
885.383789,324
885.500671,313
885.617493,303
885.734314,319
885.851196,310
885.967896,320
886.084717,323
886.201599,314
886.318359,313
886.435181,311
886.552002,321
886.668762,315
886.785645,328
886.902344,329
887.019165,311
887.135925,318
887.252747,306
887.369446,323
887.486267,322
887.603027,318
887.719788,330
887.836548,315
887.953247,319
888.070068,319
888.186829,324
888.303528,313
888.420288,323
888.536987,318
888.653687,315
888.770447,316
888.887146,315
889.003967,316
889.120667,318
889.237305,313
889.354065,313
889.470703,307
889.587463,306
889.704163,328
889.820862,327
889.937561,313
890.054199,316
890.170837,320
890.287598,319
890.404236,314
890.520874,321
890.637634,328
890.754211,306
890.87085,311
890.987549,321
891.104187,316
891.220886,318
891.337463,308
891.454102,337
891.57074,317
891.687378,305
891.804077,322
891.920654,320
892.037231,308
892.15387,324
892.270447,307
892.387085,328
892.503723,312
892.6203,309
892.736877,303
892.853516,317
892.970032,320
893.08667,310
893.203186,329
893.319763,317
893.43634,303
893.552917,307
893.669556,305
893.786011,319
893.902588,311
894.019165,326
894.135681,312
894.252197,307
894.368835,317
894.485291,311
894.601868,314
894.718384,312
894.8349,314
894.951355,321
895.067932,306
895.184448,317
895.300964,303
895.417419,307
895.533936,310
895.650452,305
895.766907,310
895.883423,333
895.999878,312
896.116333,313
896.232849,305
896.349304,321
896.465759,316
896.582214,317
896.698669,326
896.815125,319
896.931641,306
897.048035,316
897.164551,305
897.280884,325
897.397339,318
897.513794,314
897.630249,313
897.746582,316
897.863098,316
897.979431,310
898.095886,306
898.212341,312
898.328674,303
898.445129,329
898.561462,312
898.677795,319
898.794312,320
898.910645,313
899.026978,327
899.143433,327
899.259766,330
899.37616,316
899.492493,309
899.608765,319
899.725159,299
899.841553,313
899.957947,327
900.07428,309
900.190552,316
900.306946,323
900.423157,318
900.53949,316
900.655884,313
900.772156,315
900.888489,299
901.004822,320
901.121033,321
901.237366,316
901.353699,320
901.46991,311
901.586304,318
901.702515,315
901.818787,309
901.93512,322
902.051331,311
902.167603,312
902.283875,315
902.400085,324
902.516418,329
902.632629,311
902.74884,320
902.865112,324
902.981384,321
903.097595,321
903.213867,319
903.330017,320
903.446289,322
903.5625,324
903.67865,324
903.794922,335
903.911072,308
904.027344,319
904.143494,314
904.259705,318
904.375916,311
904.492065,322
904.608215,326
904.724426,321
904.840576,323
904.956726,332
905.072876,317
905.189087,317
905.305176,315
905.421387,326
905.537537,309
905.653687,322
905.769775,324
905.885925,302
906.002014,325
906.118164,330
906.234314,307
906.350403,319
906.466492,314
906.582642,314
906.69873,316
906.814758,313
906.930908,311
907.046936,322
907.163086,319
907.279175,328
907.395264,316
907.511353,320
907.62738,324
907.743408,326
907.859497,318
907.975525,327
908.091553,324
908.207703,314
908.32373,314
908.439758,321
908.555786,322
908.671814,316
908.787842,306
908.90387,334
909.019775,320
909.135864,311
909.251892,330
909.367859,318
909.483826,324
909.599854,321
909.715881,312
909.831848,326
909.947815,303
910.063782,311
910.179749,315
910.295776,323
910.411743,302
910.527649,315
910.643616,318
910.759583,329
910.875488,309
910.991455,314
911.107361,306
911.223267,318
911.339294,321
911.4552,312
911.571106,310
911.687073,316
911.802979,322
911.918823,313
912.034729,319
912.150635,318
912.266602,320
912.382446,331
912.498352,319
912.614197,309
912.730103,331
912.846008,322
