792.44574,373
792.56488,414
792.68396,450
792.80304,432
792.92218,378
793.041199,368
793.160339,358
793.279419,385
793.398499,364
793.517578,353
793.636658,356
793.755737,373
793.874817,377
793.993896,378
794.112976,355
794.232056,346
794.351074,351
794.470215,378
794.589233,356
794.708313,345
794.827393,348
794.946411,352
795.065552,349
795.18457,359
795.303589,338
795.422668,349
795.541687,342
795.660767,343
795.779846,363
795.898865,362
796.017883,347
796.136963,326
796.255981,349
796.375061,337
796.49408,349
796.613037,340
796.732117,356
796.851135,356
796.970154,340
797.089233,342
797.208191,352
797.327271,330
797.446228,338
797.565186,341
797.684265,340
797.803223,330
797.922241,338
798.04126,352
798.160278,343
798.279297,337
798.398315,337
798.517273,347
798.636292,336
798.75531,344
798.874268,339
798.993286,333
799.112244,336
799.231323,336
799.350281,341
799.469238,335
799.588257,334
799.707153,338
799.826111,344
799.945129,324
800.064087,345
800.183044,332
800.302063,327
800.421021,340
800.539978,325
800.658936,339
800.777893,327
800.896912,352
801.015747,331
801.134705,327
801.253723,315
801.37262,324
801.491638,324
801.610535,350
801.729492,333
801.84845,329
801.967407,325
802.086243,343
802.205261,343
802.324158,328
802.443115,329
802.562073,345
802.680969,329
802.799927,339
802.918762,335
803.037659,329
803.156677,337
803.275574,328
803.39447,337
803.513428,328
803.632263,317
803.751221,334
803.870117,328
803.989014,325
804.107971,326
804.226746,326
804.345642,334
804.4646,331
804.583496,327
804.702393,326
804.821228,333
804.940125,327
805.059021,337
805.177917,316
805.296814,342
805.415649,337
805.534546,326
805.653442,321
805.772278,333
805.891113,329
806.01001,328
806.128906,331
806.247742,329
806.366577,323
806.485413,315
806.604309,334
806.723145,327
806.84198,341
806.960876,332
807.079712,329
807.198486,340
807.317383,322
807.436218,327
807.554993,326
807.673889,323
807.792725,339
807.91156,344
808.030396,335
808.14917,331
808.268005,311
808.386841,332
808.505676,331
808.624451,309
808.743286,333
808.862122,321
808.980896,321
809.099731,334
809.218506,339
809.337341,320
809.456116,334
809.57489,325
809.693726,330
809.8125,347
809.931274,331
810.050049,316
810.168884,337
810.287659,334
810.406372,336
810.525269,309
810.643982,324
810.762756,321
810.881531,333
811.000305,335
811.11908,316
811.237854,332
811.356567,326
811.475403,330
811.594116,313
811.71283,322
811.831604,311
811.950378,330
812.069153,328
812.187927,333
812.30658,339
812.425415,320
812.544128,344
812.662781,328
812.781616,335
812.900269,328
813.019043,327
813.137756,331
813.256531,329
813.375244,328
813.493896,318
813.612671,329
813.731384,331
813.850037,325
813.96875,335
814.087524,327
814.206238,327
814.324951,334
814.443604,318
814.562256,320
814.68103,339
814.799683,327
814.918335,324
815.037109,321
815.155762,334
815.274475,332
815.393188,329
815.511841,326
815.630554,323
815.749146,330
815.867859,324
815.986572,326
816.105164,338
816.223877,320
816.342529,334
816.461182,334
816.579895,328
816.698486,316
816.817139,326
816.935791,338
817.054504,328
817.173096,334
817.291748,322
817.4104,320
817.529053,324
817.647644,329
817.766235,312
817.884949,327
818.00354,322
818.122192,331
818.240845,336
818.359436,322
818.478088,314
818.59668,315
818.715271,331
818.833923,323
818.952515,321
819.071106,336
819.189758,326
819.30835,328
819.426941,338
819.545532,308
819.664124,337
819.782715,312
819.901306,335
820.019897,315
820.138489,321
820.25708,325
820.375671,330
820.494202,326
820.612732,327
820.731384,316
820.849915,330
820.968506,324
821.087097,311
821.205627,334
821.324158,318
821.442749,318
821.561279,327
821.679871,329
821.798401,340
821.916931,324
822.035461,316
822.154053,328
822.272583,335
822.391174,321
822.509583,317
822.628174,328
822.746704,322
822.865234,324
822.983765,327
823.102295,327
823.220825,321
823.339294,315
823.457825,329
823.576355,317
823.694824,321
823.813354,320
823.931885,334
824.050354,313
824.168884,307
824.287354,325
824.405823,330
824.524353,307
824.642822,316
824.761353,317
824.879822,314
824.998291,336
825.116699,323
825.235291,324
825.353699,318
825.472168,318
825.590637,327
825.709106,329
825.827576,321
825.946045,332
826.064453,316
826.182983,334
826.301392,323
826.4198,314
826.53833,322
826.656738,317
826.775208,319
826.893677,318
827.012024,334
827.130493,323
827.248962,316
827.36731,330
827.485779,306
827.604248,315
827.722595,324
827.841064,315
827.959412,321
828.077942,311
828.196289,322
828.314636,315
828.433105,319
828.551514,315
828.669861,298
828.78833,322
828.906677,314
829.025085,329
829.143433,319
829.261841,307
829.38031,323
829.498657,309
829.617004,337
829.735413,316
829.85376,316
829.972107,331
830.090515,316
830.208862,329
830.327209,313
830.445557,318
830.563904,320
830.682312,317
830.800659,331
830.919006,318
831.037354,327
831.155701,315
831.274048,319
831.392395,323
831.51062,325
831.629028,313
831.747314,323
831.865662,333
831.984009,318
832.102356,335
832.220642,324
832.338928,308
832.457275,319
832.575623,314
832.693909,334
832.812134,329
832.930481,336
833.048828,317
833.167114,323
833.2854,324
833.403687,321
833.521973,318
833.640259,313
833.758545,312
833.876831,311
833.995056,323
834.113281,312
834.231628,317
834.349915,314
834.468201,310
834.586426,330
834.704651,333
834.822998,325
834.941162,324
835.059448,327
835.177673,324
835.295959,321
835.414246,328
835.53241,320
835.650635,323
835.768921,323
835.887146,324
836.005371,316
836.123596,334
836.241821,327
836.360046,321
836.478271,301
836.596497,307
836.714722,309
836.832886,326
836.95105,336
837.069336,324
837.1875,307
837.305725,321
837.423889,323
837.542053,318
837.660339,306
837.778503,319
837.896667,323
838.014832,325
838.132996,309
838.25116,320
838.369385,326
838.487488,338
838.605713,315
838.723877,316
838.84198,337
838.960205,323
839.078308,317
839.196472,316
839.314636,319
839.4328,319
839.550964,333
839.669067,330
839.787231,322
839.905396,311
840.023499,332
840.141602,317
840.259766,325
840.377869,318
840.495972,320
840.614136,321
840.732239,321
840.850342,324
840.968445,325
841.086548,328
841.204651,332
841.322754,323
841.440918,327
841.55896,327
841.677002,329
841.795166,310
841.913208,341
842.031311,317
842.149353,344
842.267456,301
842.385498,329
842.503601,330
842.621643,317
842.739746,320
842.857788,327
842.97583,311
843.093933,345
843.211975,321
843.330017,319
843.44812,322
843.566101,331
843.684204,321
843.802246,311
843.920227,315
844.038269,324
844.156311,334
844.274292,326
844.392395,320
844.510376,320
844.628357,318
844.74646,323
844.864441,318
844.982422,320
845.100403,331
845.218384,320
845.336426,329
845.454468,316
845.572449,319
845.69043,320
845.808411,324
845.926453,331
846.044373,318
846.162354,322
846.280396,321
846.398315,319
846.516296,331
846.634216,329
846.752197,323
846.870178,327
846.988098,331
847.106079,328
847.22406,329
847.34198,314
847.4599,326
847.577881,327
847.695801,327
847.813782,316
847.931641,316
848.049561,311
848.167603,328
848.285461,328
848.403381,323
848.521362,325
848.639221,315
848.75708,323
848.875,333
848.99292,322
849.110901,327
849.22876,321
849.34668,323
849.464539,332
849.582458,316
849.700317,336
849.818176,315
849.936096,325
850.053955,319
850.171875,315
850.289673,315
850.407593,320
850.525452,313
850.643311,318
850.761169,331
850.878967,318
850.996887,316
851.114746,316
851.232544,319
851.350403,335
851.468262,315
851.58606,322
851.703979,336
851.821777,334
851.939636,321
852.057434,328
852.175232,327
852.293091,338
852.410889,320
852.528687,319
852.646545,318
852.764343,323
852.88208,322
852.999939,321
853.117676,330
853.235535,324
853.353271,328
853.471069,327
853.588928,319
853.706604,314
853.824402,313
853.9422,339
854.059998,303
854.177734,324
854.295532,326
854.413269,337
854.531006,321
854.648804,316
854.766541,320
854.884277,314
855.002014,313
855.119751,331
855.237549,324
855.355225,326
855.473022,305
855.590698,313
855.708435,334
855.826172,326
855.943848,323
856.061646,323
856.179321,310
856.296997,323
856.414795,323
856.53241,317
856.650085,334
856.767822,322
856.885559,320
857.003174,309
857.120911,326
857.238586,316
857.356201,330
857.473938,342
857.591614,325
857.709351,333
857.826965,322
857.944641,324
858.062317,330
858.179993,325
858.297668,338
858.415283,351
858.532959,323
858.650574,314
858.768188,320
858.885803,312
859.003479,314
859.121094,320
859.23877,318
859.356384,333
859.473999,315
859.591675,338
859.709229,325
859.826843,327
859.944458,315
860.062012,328
860.179626,330
860.297302,325
860.414856,321
860.532471,324
860.650024,324
860.767639,315
860.885193,322
861.002808,327
861.120361,315
861.237976,334
861.35553,325
861.473022,327
861.590698,323
861.708191,327
861.825745,316
861.943298,312
862.060852,327
862.178406,329
862.295959,314
862.413513,322
862.531006,327
862.64856,326
862.766113,316
862.883667,324
863.00116,325
863.118713,314
863.236206,312
863.353699,334
863.471252,320
863.588745,346
863.706177,322
863.82373,323
863.941162,322
864.058716,334
864.176208,320
864.29364,323
864.411194,314
864.528687,318
864.646118,319
864.763611,329
864.881042,313
864.998535,320
865.116028,320
865.233459,317
865.350891,309
865.468384,317
865.585754,329
865.703308,332
865.820679,322
865.938171,329
866.055542,305
866.173035,313
866.290466,321
866.407837,309
866.52533,317
866.6427,323
866.760071,329
866.877563,340
866.994934,327
867.112305,318
867.229736,331
867.347107,330
867.464539,331
867.58197,308
867.699341,321
867.81665,327
867.934082,315
868.051453,325
868.168823,319
868.286194,321
868.403564,317
868.520935,325
868.638306,332
868.755676,324
868.872986,330
868.990295,328
869.107727,323
869.225037,323
869.342346,326
869.459717,323
869.577026,321
869.694336,331
869.811707,332
869.929016,315
870.046326,327
870.163635,340
870.280945,332
870.398254,333
870.515564,314
870.632812,330
870.750183,330
870.867432,317
870.984741,316
871.102051,318
871.219299,334
871.336609,332
871.453918,333
871.571106,329
871.688416,321
871.805664,318
871.922852,337
872.040222,314
872.157471,332
872.274719,342
872.391968,333
872.509155,329
872.626465,321
872.743652,335
872.860962,333
872.978149,324
873.095337,315
873.212646,334
873.329834,325
873.44696,319
873.564209,329
873.681396,328
873.798645,322
873.915894,324
874.03302,322
874.150208,327
874.267456,323
874.384583,332
874.501831,320
874.618958,321
874.736145,330
874.853333,334
874.970459,312
875.087646,329
875.204834,323
875.32196,334
875.439148,324
875.556274,331
875.673401,324
875.790527,326
875.907715,334
876.024841,326
876.141968,317
876.259094,323
876.376282,325
876.493347,323
876.610474,340
876.7276,319
876.844727,333
876.961853,329
877.078918,314
877.195984,326
877.313171,326
877.430237,318
877.547302,316
877.664368,321
877.781433,334
877.898499,320
878.015625,332
878.13269,314
878.249695,332
878.366821,324
878.483887,316
878.600952,332
878.717957,316
878.834961,323
878.952087,308
879.069092,325
879.186157,336
879.303162,327
879.420227,314
879.537231,326
879.654236,328
879.77124,338
879.888306,318
880.005249,331
880.122314,319
880.239319,315
880.356323,326
880.473328,323
880.590271,316
880.707275,325
880.824341,319
880.941284,318
881.058228,318
881.175232,331
881.292236,320
881.40918,320
881.526123,325
881.643066,335
881.760071,325
881.877014,319
881.993958,314
882.11084,321
882.227783,315
882.344727,326
882.46167,307
882.578613,327
882.695618,321
882.812439,327
882.929382,326
883.046326,312
883.163208,319
883.280151,317
883.397034,319
883.513916,322
883.630798,319
883.747742,320
883.864563,312
883.981506,329
884.098389,321
884.21521,304
884.332153,327
884.448975,315
884.565796,319
884.682678,332
884.7995,317
884.916443,326
885.033264,330
885.150085,334
885.266968,325
885.383789,338
885.500671,318
885.617493,344
885.734314,327
885.851196,331
885.967896,338
886.084717,321
886.201599,332
886.318359,323
886.435181,343
886.552002,344
886.668762,325
886.785645,323
886.902344,339
887.019165,324
887.135925,341
887.252747,327
887.369446,330
887.486267,325
887.603027,324
887.719788,325
887.836548,331
887.953247,323
888.070068,311
888.186829,323
888.303528,318
888.420288,318
888.536987,306
888.653687,322
888.770447,319
888.887146,311
889.003967,309
889.120667,317
889.237305,311
889.354065,324
889.470703,321
889.587463,304
889.704163,312
889.820862,316
889.937561,317
890.054199,325
890.170837,312
890.287598,319
890.404236,314
890.520874,309
890.637634,317
890.754211,318
890.87085,323
890.987549,308
891.104187,315
891.220886,322
891.337463,310
891.454102,311
891.57074,335
891.687378,327
891.804077,325
891.920654,314
892.037231,316
892.15387,323
892.270447,334
892.387085,318
892.503723,324
892.6203,319
892.736877,313
892.853516,325
892.970032,304
893.08667,321
893.203186,322
893.319763,316
893.43634,323
893.552917,319
893.669556,312
893.786011,328
893.902588,321
894.019165,322
894.135681,307
894.252197,316
894.368835,319
894.485291,321
894.601868,314
894.718384,321
894.8349,321
894.951355,313
895.067932,323
895.184448,311
895.300964,324
895.417419,318
895.533936,310
895.650452,314
895.766907,323
895.883423,320
895.999878,309
896.116333,327
896.232849,314
896.349304,333
896.465759,322
896.582214,311
896.698669,304
896.815125,314
896.931641,325
897.048035,310
897.164551,315
897.280884,317
897.397339,294
897.513794,327
897.630249,311
897.746582,320
897.863098,314
897.979431,326
898.095886,319
898.212341,313
898.328674,319
898.445129,324
898.561462,315
898.677795,323
898.794312,321
898.910645,322
899.026978,318
899.143433,325
899.259766,324
899.37616,314
899.492493,324
899.608765,344
899.725159,312
899.841553,320
899.957947,313
900.07428,316
900.190552,310
900.306946,329
900.423157,311
900.53949,319
900.655884,314
900.772156,324
900.888489,303
901.004822,312
901.121033,304
901.237366,321
901.353699,319
901.46991,318
901.586304,320
901.702515,310
901.818787,318
901.93512,337
902.051331,319
902.167603,325
902.283875,329
902.400085,328
902.516418,331
902.632629,334
902.74884,330
902.865112,330
902.981384,329
903.097595,330
903.213867,331
903.330017,335
903.446289,321
903.5625,314
903.67865,315
903.794922,329
903.911072,319
904.027344,336
904.143494,317
904.259705,320
904.375916,316
904.492065,337
904.608215,319
904.724426,316
904.840576,325
904.956726,317
905.072876,342
905.189087,325
905.305176,303
905.421387,327
905.537537,299
905.653687,318
905.769775,328
905.885925,318
906.002014,320
906.118164,315
906.234314,331
906.350403,322
906.466492,308
906.582642,307
906.69873,314
906.814758,327
906.930908,311
907.046936,321
907.163086,319
907.279175,314
907.395264,325
907.511353,329
907.62738,305
907.743408,316
907.859497,314
907.975525,313
908.091553,320
908.207703,319
908.32373,309
908.439758,319
908.555786,319
908.671814,316
908.787842,317
908.90387,329
909.019775,325
909.135864,321
909.251892,321
909.367859,310
909.483826,313
909.599854,328
909.715881,303
909.831848,313
909.947815,317
910.063782,322
910.179749,315
910.295776,325
910.411743,328
910.527649,309
910.643616,330
910.759583,309
910.875488,326
910.991455,326
911.107361,318
911.223267,322
911.339294,311
911.4552,315
911.571106,312
911.687073,327
911.802979,313
911.918823,312
912.034729,307
912.150635,331
912.266602,310
912.382446,321
912.498352,305
912.614197,329
912.730103,318
912.846008,316
792.44574,381
792.56488,409
792.68396,438
792.80304,439
792.92218,386
793.041199,377
793.160339,368
793.279419,381
793.398499,372
793.517578,367
793.636658,349
793.755737,386
793.874817,358
793.993896,379
794.112976,366
794.232056,363
794.351074,357
794.470215,341
794.589233,372
794.708313,359
794.827393,341
794.946411,358
795.065552,356
795.18457,363
795.303589,355
795.422668,364
795.541687,348
795.660767,345
795.779846,333
795.898865,363
796.017883,346
796.136963,348
796.255981,332
796.375061,347
796.49408,355
796.613037,343
796.732117,342
796.851135,328
796.970154,347
797.089233,353
797.208191,332
797.327271,343
797.446228,336
797.565186,350
797.684265,336
797.803223,335
797.922241,342
798.04126,330
798.160278,345
798.279297,330
798.398315,324
798.517273,341
798.636292,324
798.75531,337
798.874268,327
798.993286,341
799.112244,341
799.231323,348
799.350281,346
799.469238,331
799.588257,347
799.707153,334
799.826111,335
799.945129,340
800.064087,330
800.183044,335
800.302063,334
800.421021,322
800.539978,332
800.658936,348
800.777893,336
800.896912,314
801.015747,316
801.134705,326
801.253723,335
801.37262,328
801.491638,320
801.610535,329
801.729492,308
801.84845,316
801.967407,327
802.086243,334
802.205261,323
802.324158,318
802.443115,328
802.562073,327
802.680969,332
802.799927,338
802.918762,316
803.037659,315
803.156677,332
803.275574,327
803.39447,337
803.513428,335
803.632263,319
803.751221,336
803.870117,333
803.989014,331
804.107971,339
804.226746,324
804.345642,337
804.4646,330
804.583496,320
804.702393,338
804.821228,342
804.940125,333
805.059021,330
805.177917,328
805.296814,355
805.415649,317
805.534546,330
805.653442,315
805.772278,326
805.891113,320
806.01001,325
806.128906,319
806.247742,345
806.366577,320
806.485413,334
806.604309,328
806.723145,320
806.84198,313
806.960876,325
807.079712,332
807.198486,320
807.317383,329
807.436218,313
807.554993,318
807.673889,329
807.792725,318
807.91156,344
808.030396,320
808.14917,326
808.268005,332
808.386841,312
808.505676,329
808.624451,334
808.743286,326
808.862122,334
808.980896,327
809.099731,349
809.218506,331
809.337341,345
809.456116,323
809.57489,319
809.693726,321
809.8125,331
809.931274,329
810.050049,321
810.168884,326
810.287659,330
810.406372,323
810.525269,343
810.643982,327
810.762756,333
810.881531,319
811.000305,338
811.11908,325
811.237854,326
811.356567,327
811.475403,333
811.594116,318
811.71283,321
811.831604,337
811.950378,331
812.069153,324
812.187927,339
812.30658,331
812.425415,321
812.544128,331
812.662781,330
812.781616,320
812.900269,329
813.019043,322
813.137756,330
813.256531,327
813.375244,334
813.493896,332
813.612671,322
813.731384,329
813.850037,321
813.96875,326
814.087524,333
814.206238,328
814.324951,324
814.443604,312
814.562256,338
814.68103,311
814.799683,332
814.918335,326
815.037109,334
815.155762,311
815.274475,324
815.393188,332
815.511841,323
815.630554,342
815.749146,319
815.867859,327
815.986572,329
816.105164,323
816.223877,327
816.342529,315
816.461182,320
816.579895,339
816.698486,305
816.817139,330
816.935791,324
817.054504,319
817.173096,330
817.291748,333
817.4104,328
817.529053,322
817.647644,332
817.766235,326
817.884949,324
818.00354,338
818.122192,316
818.240845,319
818.359436,333
818.478088,334
818.59668,335
818.715271,331
818.833923,331
818.952515,323
819.071106,327
819.189758,322
819.30835,329
819.426941,327
819.545532,318
819.664124,315
819.782715,325
819.901306,313
820.019897,323
820.138489,323
820.25708,322
820.375671,315
820.494202,322
820.612732,324
820.731384,318
820.849915,324
820.968506,315
821.087097,322
821.205627,326
821.324158,329
821.442749,329
821.561279,334
821.679871,317
821.798401,331
821.916931,316
822.035461,312
822.154053,336
822.272583,316
822.391174,315
822.509583,324
822.628174,306
822.746704,320
822.865234,319
822.983765,329
823.102295,328
823.220825,316
823.339294,321
823.457825,316
823.576355,332
823.694824,316
823.813354,323
823.931885,309
824.050354,330
824.168884,304
824.287354,320
824.405823,337
824.524353,319
824.642822,313
824.761353,319
824.879822,319
824.998291,337
825.116699,321
825.235291,313
825.353699,316
825.472168,319
825.590637,322
825.709106,316
825.827576,340
825.946045,325
826.064453,328
826.182983,321
826.301392,306
826.4198,329
826.53833,330
826.656738,316
826.775208,326
826.893677,322
827.012024,322
827.130493,318
827.248962,330
827.36731,316
827.485779,324
827.604248,321
827.722595,319
827.841064,315
827.959412,316
828.077942,327
828.196289,329
828.314636,316
828.433105,323
828.551514,322
828.669861,332
828.78833,327
828.906677,307
829.025085,330
829.143433,325
829.261841,317
829.38031,333
829.498657,316
829.617004,319
829.735413,319
829.85376,322
829.972107,326
830.090515,320
830.208862,320
830.327209,317
830.445557,313
830.563904,325
830.682312,325
830.800659,328
830.919006,319
831.037354,329
831.155701,325
831.274048,325
831.392395,324
831.51062,307
831.629028,320
831.747314,314
831.865662,328
831.984009,326
832.102356,327
832.220642,315
832.338928,321
832.457275,319
832.575623,321
832.693909,323
832.812134,329
832.930481,314
833.048828,325
833.167114,331
833.2854,313
833.403687,318
833.521973,338
833.640259,307
833.758545,326
833.876831,335
833.995056,312
834.113281,319
834.231628,306
834.349915,312
834.468201,322
834.586426,327
834.704651,321
834.822998,316
834.941162,313
835.059448,323
835.177673,313
835.295959,319
835.414246,311
835.53241,329
835.650635,321
835.768921,320
835.887146,330
836.005371,323
836.123596,322
836.241821,304
836.360046,322
836.478271,320
836.596497,320
836.714722,323
836.832886,321
836.95105,317
837.069336,326
837.1875,329
837.305725,329
837.423889,329
837.542053,337
837.660339,308
837.778503,314
837.896667,335
838.014832,299
838.132996,334
838.25116,314
838.369385,317
838.487488,338
838.605713,324
838.723877,326
838.84198,319
838.960205,307
839.078308,311
839.196472,332
839.314636,328
839.4328,317
839.550964,318
839.669067,331
839.787231,328
839.905396,331
840.023499,315
840.141602,316
840.259766,330
840.377869,323
840.495972,328
840.614136,325
840.732239,326
840.850342,313
840.968445,314
841.086548,318
841.204651,327
841.322754,315
841.440918,326
841.55896,308
841.677002,327
841.795166,336
841.913208,332
842.031311,334
842.149353,325
842.267456,336
842.385498,335
842.503601,328
842.621643,321
842.739746,311
842.857788,324
842.97583,315
843.093933,327
843.211975,324
843.330017,323
843.44812,325
843.566101,317
843.684204,322
843.802246,326
843.920227,325
844.038269,317
844.156311,304
844.274292,325
844.392395,334
844.510376,317
844.628357,334
844.74646,334
844.864441,299
844.982422,322
845.100403,326
845.218384,326
845.336426,320
845.454468,327
845.572449,325
845.69043,322
845.808411,314
845.926453,350
846.044373,315
846.162354,318
846.280396,326
846.398315,328
846.516296,315
846.634216,323
846.752197,314
846.870178,316
846.988098,327
847.106079,321
847.22406,301
847.34198,326
847.4599,330
847.577881,331
847.695801,321
847.813782,328
847.931641,317
848.049561,327
848.167603,315
848.285461,330
848.403381,323
848.521362,328
848.639221,328
848.75708,319
848.875,323
848.99292,325
849.110901,326
849.22876,325
849.34668,325
849.464539,315
849.582458,318
849.700317,325
849.818176,324
849.936096,317
850.053955,331
850.171875,326
850.289673,321
850.407593,320
850.525452,319
850.643311,314
850.761169,333
850.878967,306
850.996887,318
851.114746,320
851.232544,319
851.350403,333
851.468262,338
851.58606,315
851.703979,313
851.821777,329
851.939636,311
852.057434,330
852.175232,322
852.293091,329
852.410889,336
852.528687,329
852.646545,330
852.764343,324
852.88208,324
852.999939,345
853.117676,329
853.235535,340
853.353271,317
853.471069,322
853.588928,327
853.706604,304
853.824402,314
853.9422,334
854.059998,326
854.177734,319
854.295532,328
854.413269,327
854.531006,324
854.648804,323
854.766541,319
854.884277,334
855.002014,328
855.119751,320
855.237549,326
855.355225,323
855.473022,316
855.590698,321
855.708435,328
855.826172,317
855.943848,323
856.061646,329
856.179321,318
856.296997,328
856.414795,323
856.53241,335
856.650085,314
856.767822,325
856.885559,314
857.003174,335
857.120911,315
857.238586,320
857.356201,336
857.473938,329
857.591614,333
857.709351,323
857.826965,325
857.944641,326
858.062317,321
858.179993,322
858.297668,329
858.415283,331
858.532959,319
858.650574,320
858.768188,310
858.885803,325
859.003479,323
859.121094,321
859.23877,318
859.356384,342
859.473999,328
859.591675,345
859.709229,331
859.826843,311
859.944458,321
860.062012,331
860.179626,322
860.297302,323
860.414856,320
860.532471,337
860.650024,322
860.767639,318
860.885193,324
861.002808,317
861.120361,331
861.237976,321
861.35553,326
861.473022,334
861.590698,325
861.708191,323
861.825745,331
861.943298,323
862.060852,306
862.178406,322
862.295959,323
862.413513,316
862.531006,315
862.64856,337
862.766113,310
862.883667,310
863.00116,325
863.118713,315
863.236206,319
863.353699,309
863.471252,311
863.588745,309
863.706177,314
863.82373,325
863.941162,328
864.058716,314
864.176208,330
864.29364,312
864.411194,327
864.528687,311
864.646118,323
864.763611,332
864.881042,318
864.998535,326
865.116028,319
865.233459,333
865.350891,322
865.468384,313
865.585754,310
865.703308,321
865.820679,316
865.938171,326
866.055542,311
866.173035,319
866.290466,312
866.407837,319
866.52533,320
866.6427,306
866.760071,319
866.877563,324
866.994934,331
867.112305,329
867.229736,317
867.347107,316
867.464539,319
867.58197,316
867.699341,315
867.81665,328
867.934082,324
868.051453,321
868.168823,325
868.286194,321
868.403564,323
868.520935,328
868.638306,318
868.755676,320
868.872986,326
868.990295,316
869.107727,322
869.225037,316
869.342346,330
869.459717,324
869.577026,316
869.694336,327
869.811707,330
869.929016,314
870.046326,319
870.163635,344
870.280945,322
870.398254,312
870.515564,333
870.632812,330
870.750183,318
870.867432,323
870.984741,324
871.102051,339
871.219299,320
871.336609,326
871.453918,335
871.571106,332
871.688416,344
871.805664,338
871.922852,327
872.040222,339
872.157471,323
872.274719,334
872.391968,327
872.509155,334
872.626465,323
872.743652,317
872.860962,328
872.978149,318
873.095337,326
873.212646,327
873.329834,333
873.44696,333
873.564209,332
873.681396,319
873.798645,327
873.915894,324
874.03302,333
874.150208,312
874.267456,330
874.384583,325
874.501831,330
874.618958,318
874.736145,320
874.853333,313
874.970459,322
875.087646,325
875.204834,325
875.32196,331
875.439148,318
875.556274,316
875.673401,337
875.790527,326
875.907715,326
876.024841,332
876.141968,313
876.259094,320
876.376282,317
876.493347,321
876.610474,318
876.7276,313
876.844727,316
876.961853,330
877.078918,320
877.195984,326
877.313171,335
877.430237,328
877.547302,321
877.664368,326
877.781433,318
877.898499,321
878.015625,314
878.13269,331
878.249695,319
878.366821,330
878.483887,316
878.600952,332
878.717957,313
878.834961,321
878.952087,332
879.069092,323
879.186157,319
879.303162,321
879.420227,326
879.537231,328
879.654236,330
879.77124,317
879.888306,319
880.005249,317
880.122314,319
880.239319,323
880.356323,308
880.473328,324
880.590271,325
880.707275,323
880.824341,304
880.941284,310
881.058228,311
881.175232,333
881.292236,334
881.40918,319
881.526123,323
881.643066,316
881.760071,326
881.877014,319
881.993958,327
882.11084,320
882.227783,318
882.344727,321
882.46167,312
882.578613,324
882.695618,298
882.812439,320
882.929382,324
883.046326,334
883.163208,320
883.280151,329
883.397034,328
883.513916,319
883.630798,325
883.747742,321
883.864563,318
883.981506,329
884.098389,308
884.21521,319
884.332153,324
884.448975,330
884.565796,328
884.682678,312
884.7995,331
884.916443,329
885.033264,324
885.150085,346
885.266968,334
885.383789,337
885.500671,330
885.617493,327
885.734314,333
885.851196,334
885.967896,339
886.084717,326
886.201599,324
886.318359,338
886.435181,332
886.552002,325
886.668762,332
886.785645,333
886.902344,321
887.019165,319
887.135925,329
887.252747,339
887.369446,320
887.486267,329
887.603027,326
887.719788,323
887.836548,326
887.953247,340
888.070068,326
888.186829,318
888.303528,324
888.420288,328
888.536987,311
888.653687,337
888.770447,305
888.887146,309
889.003967,316
889.120667,322
889.237305,328
889.354065,319
889.470703,316
889.587463,310
889.704163,336
889.820862,323
889.937561,310
890.054199,309
890.170837,317
890.287598,325
890.404236,312
890.520874,313
890.637634,326
890.754211,319
890.87085,318
890.987549,318
891.104187,321
891.220886,303
891.337463,322
891.454102,311
891.57074,320
891.687378,312
891.804077,324
891.920654,324
892.037231,315
892.15387,309
892.270447,316
892.387085,317
892.503723,309
892.6203,324
892.736877,328
892.853516,319
892.970032,320
893.08667,331
893.203186,323
893.319763,316
893.43634,315
893.552917,329
893.669556,331
893.786011,309
893.902588,322
894.019165,324
894.135681,314
894.252197,316
894.368835,314
894.485291,331
894.601868,316
894.718384,324
894.8349,328
894.951355,316
895.067932,319
895.184448,318
895.300964,316
895.417419,308
895.533936,326
895.650452,326
895.766907,310
895.883423,330
895.999878,315
896.116333,314
896.232849,309
896.349304,312
896.465759,322
896.582214,309
896.698669,332
896.815125,321
896.931641,315
897.048035,330
897.164551,338
897.280884,327
897.397339,307
897.513794,333
897.630249,320
897.746582,310
897.863098,311
897.979431,327
898.095886,319
898.212341,321
898.328674,316
898.445129,319
898.561462,315
898.677795,329
898.794312,315
898.910645,309
899.026978,314
899.143433,326
899.259766,313
899.37616,308
899.492493,307
899.608765,310
899.725159,314
899.841553,334
899.957947,322
900.07428,331
900.190552,314
900.306946,314
900.423157,319
900.53949,328
900.655884,324
900.772156,328
900.888489,319
901.004822,318
901.121033,308
901.237366,318
901.353699,321
901.46991,327
901.586304,325
901.702515,320
901.818787,329
901.93512,319
902.051331,307
902.167603,325
902.283875,323
902.400085,339
902.516418,310
902.632629,328
902.74884,320
902.865112,321
902.981384,330
903.097595,322
903.213867,337
903.330017,324
903.446289,326
903.5625,323
903.67865,308
903.794922,326
903.911072,320
904.027344,319
904.143494,321
904.259705,314
904.375916,318
904.492065,321
904.608215,330
904.724426,311
904.840576,322
904.956726,320
905.072876,311
905.189087,332
905.305176,320
905.421387,326
905.537537,316
905.653687,323
905.769775,311
905.885925,320
906.002014,323
906.118164,323
906.234314,322
906.350403,317
906.466492,304
906.582642,319
906.69873,317
906.814758,323
906.930908,309
907.046936,316
907.163086,327
907.279175,323
907.395264,319
907.511353,316
907.62738,324
907.743408,315
907.859497,319
907.975525,318
908.091553,315
908.207703,330
908.32373,321
908.439758,330
908.555786,318
908.671814,324
908.787842,313
908.90387,320
909.019775,326
909.135864,326
909.251892,312
909.367859,321
909.483826,324
909.599854,319
909.715881,314
909.831848,310
909.947815,320
910.063782,306
910.179749,321
910.295776,318
910.411743,308
910.527649,311
910.643616,310
910.759583,326
910.875488,313
910.991455,324
911.107361,321
911.223267,327
911.339294,312
911.4552,331
911.571106,324
911.687073,321
911.802979,303
911.918823,327
912.034729,316
912.150635,302
912.266602,327
912.382446,323
912.498352,301
912.614197,312
912.730103,315
912.846008,328
792.44574,363
792.56488,394
792.68396,462
792.80304,438
792.92218,386
793.041199,373
793.160339,364
793.279419,375
793.398499,379
793.517578,343
793.636658,356
793.755737,381
793.874817,392
793.993896,385
794.112976,370
794.232056,363
794.351074,370
794.470215,372
794.589233,350
794.708313,353
794.827393,350
794.946411,358
795.065552,354
795.18457,361
795.303589,353
795.422668,357
795.541687,349
795.660767,359
795.779846,347
795.898865,334
796.017883,358
796.136963,337
796.255981,357
796.375061,364
796.49408,345
796.613037,351
796.732117,346
796.851135,337
796.970154,334
797.089233,353
797.208191,326
797.327271,344
797.446228,356
797.565186,344
797.684265,333
797.803223,356
797.922241,331
798.04126,342
798.160278,331
798.279297,343
798.398315,329
798.517273,354
798.636292,350
798.75531,345
798.874268,336
798.993286,340
799.112244,330
799.231323,344
799.350281,333
799.469238,328
799.588257,339
799.707153,337
799.826111,344
799.945129,340
800.064087,338
800.183044,326
800.302063,336
800.421021,333
800.539978,326
800.658936,343
800.777893,328
800.896912,340
801.015747,341
801.134705,328
801.253723,341
801.37262,338
801.491638,331
801.610535,337
801.729492,333
801.84845,338
801.967407,314
802.086243,347
802.205261,347
802.324158,332
802.443115,353
802.562073,338
802.680969,330
802.799927,337
802.918762,344
803.037659,336
803.156677,335
803.275574,338
803.39447,329
803.513428,340
803.632263,323
803.751221,341
803.870117,329
803.989014,337
804.107971,341
804.226746,324
804.345642,338
804.4646,321
804.583496,323
804.702393,347
804.821228,336
804.940125,327
805.059021,313
805.177917,334
805.296814,328
805.415649,338
805.534546,327
805.653442,322
805.772278,328
805.891113,325
806.01001,325
806.128906,337
806.247742,318
806.366577,325
806.485413,335
806.604309,316
806.723145,335
806.84198,311
806.960876,329
807.079712,328
807.198486,319
807.317383,325
807.436218,328
807.554993,328
807.673889,330
807.792725,324
807.91156,332
808.030396,315
808.14917,327
808.268005,320
808.386841,338
808.505676,350
808.624451,330
808.743286,325
808.862122,332
808.980896,330
809.099731,320
809.218506,324
809.337341,338
809.456116,314
809.57489,330
809.693726,341
809.8125,329
809.931274,338
810.050049,330
810.168884,333
810.287659,331
810.406372,320
810.525269,328
810.643982,358
810.762756,318
810.881531,316
811.000305,326
811.11908,318
811.237854,322
811.356567,337
811.475403,338
811.594116,337
811.71283,328
811.831604,321
811.950378,322
812.069153,328
812.187927,337
812.30658,330
812.425415,315
812.544128,318
812.662781,320
812.781616,335
812.900269,324
813.019043,340
813.137756,315
813.256531,344
813.375244,332
813.493896,326
813.612671,318
813.731384,338
813.850037,322
813.96875,324
814.087524,328
814.206238,321
814.324951,335
814.443604,329
814.562256,321
814.68103,328
814.799683,320
814.918335,322
815.037109,334
815.155762,323
815.274475,328
815.393188,321
815.511841,321
815.630554,313
815.749146,328
815.867859,319
815.986572,316
816.105164,322
816.223877,334
816.342529,331
816.461182,325
816.579895,327
816.698486,329
816.817139,340
816.935791,313
817.054504,342
817.173096,325
817.291748,327
817.4104,322
817.529053,330
817.647644,324
817.766235,326
817.884949,320
818.00354,323
818.122192,326
818.240845,321
818.359436,320
818.478088,331
818.59668,332
818.715271,318
818.833923,330
818.952515,331
819.071106,337
819.189758,316
819.30835,329
819.426941,315
819.545532,325
819.664124,317
819.782715,316
819.901306,304
820.019897,329
820.138489,325
820.25708,315
820.375671,324
820.494202,325
820.612732,340
820.731384,328
820.849915,308
820.968506,330
821.087097,319
821.205627,322
821.324158,318
821.442749,322
821.561279,338
821.679871,332
821.798401,336
821.916931,314
822.035461,319
822.154053,318
822.272583,323
822.391174,316
822.509583,314
822.628174,329
822.746704,320
822.865234,315
822.983765,322
823.102295,316
823.220825,322
823.339294,305
823.457825,342
823.576355,321
823.694824,321
823.813354,313
823.931885,330
824.050354,304
824.168884,321
824.287354,316
824.405823,331
824.524353,319
824.642822,319
824.761353,325
824.879822,322
824.998291,326
825.116699,328
825.235291,322
825.353699,325
825.472168,311
825.590637,312
825.709106,322
825.827576,315
825.946045,335
826.064453,325
826.182983,331
826.301392,318
826.4198,334
826.53833,327
826.656738,314
826.775208,318
826.893677,316
827.012024,326
827.130493,325
827.248962,317
827.36731,331
827.485779,326
827.604248,312
827.722595,318
827.841064,328
827.959412,311
828.077942,323
828.196289,322
828.314636,325
828.433105,338
828.551514,314
828.669861,318
828.78833,322
828.906677,323
829.025085,318
829.143433,322
829.261841,311
829.38031,322
829.498657,317
829.617004,315
829.735413,315
829.85376,315
829.972107,309
830.090515,335
830.208862,320
830.327209,325
830.445557,323
830.563904,327
830.682312,326
830.800659,321
830.919006,319
831.037354,323
831.155701,319
831.274048,313
831.392395,313
831.51062,313
831.629028,327
831.747314,331
831.865662,324
831.984009,327
832.102356,315
832.220642,320
832.338928,315
832.457275,326
832.575623,310
832.693909,324
832.812134,316
832.930481,323
833.048828,311
833.167114,309
833.2854,312
833.403687,333
833.521973,313
833.640259,329
833.758545,314
833.876831,330
833.995056,323
834.113281,318
834.231628,324
834.349915,335
834.468201,332
834.586426,332
834.704651,331
834.822998,324
834.941162,327
835.059448,309
835.177673,322
835.295959,315
835.414246,327
835.53241,314
835.650635,323
835.768921,310
835.887146,316
836.005371,325
836.123596,337
836.241821,324
836.360046,308
836.478271,322
836.596497,308
836.714722,331
836.832886,305
836.95105,317
837.069336,315
837.1875,332
837.305725,321
837.423889,325
837.542053,327
837.660339,333
837.778503,326
837.896667,315
838.014832,320
838.132996,313
838.25116,327
838.369385,332
838.487488,325
838.605713,331
838.723877,307
838.84198,327
838.960205,324
839.078308,331
839.196472,320
839.314636,324
839.4328,309
839.550964,318
839.669067,321
839.787231,323
839.905396,316
840.023499,335
840.141602,319
840.259766,343
840.377869,324
840.495972,334
840.614136,309
840.732239,324
840.850342,328
840.968445,341
841.086548,330
841.204651,338
841.322754,324
841.440918,317
841.55896,309
841.677002,320
841.795166,338
841.913208,331
842.031311,321
842.149353,316
842.267456,318
842.385498,322
842.503601,320
842.621643,321
842.739746,338
842.857788,326
842.97583,310
843.093933,336
843.211975,324
843.330017,324
843.44812,302
843.566101,320
843.684204,319
843.802246,324
843.920227,322
844.038269,321
844.156311,307
844.274292,332
844.392395,323
844.510376,342
844.628357,325
844.74646,331
844.864441,323
844.982422,322
845.100403,325
845.218384,335
845.336426,329
845.454468,312
845.572449,329
845.69043,324
845.808411,320
845.926453,330
846.044373,316
846.162354,319
846.280396,313
846.398315,310
846.516296,326
846.634216,323
846.752197,315
846.870178,322
846.988098,320
847.106079,323
847.22406,322
847.34198,336
847.4599,315
847.577881,327
847.695801,320
847.813782,336
847.931641,318
848.049561,321
848.167603,339
848.285461,311
848.403381,332
848.521362,325
848.639221,314
848.75708,332
848.875,307
848.99292,301
849.110901,314
849.22876,335
849.34668,335
849.464539,316
849.582458,323
849.700317,328
849.818176,321
849.936096,337
850.053955,320
850.171875,325
850.289673,325
850.407593,315
850.525452,328
850.643311,336
850.761169,321
850.878967,321
850.996887,328
851.114746,311
851.232544,323
851.350403,313
851.468262,323
851.58606,322
851.703979,319
851.821777,326
851.939636,327
852.057434,326
852.175232,316
852.293091,326
852.410889,323
852.528687,320
852.646545,336
852.764343,328
852.88208,322
852.999939,329
853.117676,335
853.235535,327
853.353271,313
853.471069,321
853.588928,327
853.706604,327
853.824402,328
853.9422,336
854.059998,326
854.177734,317
854.295532,331
854.413269,319
854.531006,319
854.648804,316
854.766541,320
854.884277,329
855.002014,325
855.119751,331
855.237549,328
855.355225,326
855.473022,325
855.590698,332
855.708435,315
855.826172,323
855.943848,327
856.061646,321
856.179321,331
856.296997,324
856.414795,325
856.53241,331
856.650085,308
856.767822,330
856.885559,309
857.003174,319
857.120911,310
857.238586,326
857.356201,310
857.473938,325
857.591614,329
857.709351,334
857.826965,315
857.944641,293
858.062317,319
858.179993,326
858.297668,324
858.415283,325
858.532959,326
858.650574,320
858.768188,322
858.885803,321
859.003479,332
859.121094,339
859.23877,313
859.356384,334
859.473999,325
859.591675,319
859.709229,322
859.826843,334
859.944458,326
860.062012,315
860.179626,319
860.297302,312
860.414856,307
860.532471,324
860.650024,320
860.767639,319
860.885193,305
861.002808,312
861.120361,317
861.237976,331
861.35553,315
861.473022,316
861.590698,328
861.708191,328
861.825745,325
861.943298,338
862.060852,328
862.178406,322
862.295959,319
862.413513,329
862.531006,319
862.64856,325
862.766113,323
862.883667,336
863.00116,317
863.118713,315
863.236206,329
863.353699,319
863.471252,310
863.588745,323
863.706177,318
863.82373,324
863.941162,316
864.058716,326
864.176208,309
864.29364,318
864.411194,318
864.528687,315
864.646118,315
864.763611,315
864.881042,341
864.998535,324
865.116028,325
865.233459,322
865.350891,303
865.468384,327
865.585754,315
865.703308,323
865.820679,316
865.938171,323
866.055542,324
866.173035,323
866.290466,322
866.407837,327
866.52533,328
866.6427,322
866.760071,326
866.877563,332
866.994934,329
867.112305,317
867.229736,324
867.347107,322
867.464539,322
867.58197,322
867.699341,315
867.81665,319
867.934082,324
868.051453,315
868.168823,332
868.286194,316
868.403564,322
868.520935,316
868.638306,314
868.755676,331
868.872986,312
868.990295,331
869.107727,332
869.225037,326
869.342346,325
869.459717,319
869.577026,324
869.694336,328
869.811707,317
869.929016,341
870.046326,333
870.163635,325
870.280945,328
870.398254,315
870.515564,312
870.632812,329
870.750183,341
870.867432,330
870.984741,307
871.102051,325
871.219299,326
871.336609,316
871.453918,322
871.571106,312
871.688416,326
871.805664,330
871.922852,340
872.040222,332
872.157471,328
872.274719,330
872.391968,320
872.509155,325
872.626465,309
872.743652,327
872.860962,343
872.978149,323
873.095337,331
873.212646,310
873.329834,314
873.44696,306
873.564209,320
873.681396,343
873.798645,310
873.915894,329
874.03302,331
874.150208,320
874.267456,341
874.384583,319
874.501831,329
874.618958,336
874.736145,322
874.853333,326
874.970459,325
875.087646,332
875.204834,348
875.32196,321
875.439148,316
875.556274,320
875.673401,312
875.790527,323
875.907715,322
876.024841,331
876.141968,321
876.259094,323
876.376282,338
876.493347,326
876.610474,310
876.7276,326
876.844727,331
876.961853,329
877.078918,320
877.195984,328
877.313171,314
877.430237,322
877.547302,332
877.664368,309
877.781433,340
877.898499,322
878.015625,321
878.13269,312
878.249695,321
878.366821,336
878.483887,320
878.600952,324
878.717957,310
878.834961,311
878.952087,313
879.069092,323
879.186157,314
879.303162,326
879.420227,327
879.537231,315
879.654236,315
879.77124,311
879.888306,305
880.005249,311
880.122314,314
880.239319,318
880.356323,325
880.473328,327
880.590271,309
880.707275,317
880.824341,318
880.941284,316
881.058228,328
881.175232,313
881.292236,310
881.40918,330
881.526123,309
881.643066,333
881.760071,315
881.877014,329
881.993958,333
882.11084,312
882.227783,322
882.344727,322
882.46167,322
882.578613,319
882.695618,310
882.812439,309
882.929382,328
883.046326,334
883.163208,314
883.280151,323
883.397034,333
883.513916,321
883.630798,327
883.747742,317
883.864563,322
883.981506,322
884.098389,328
884.21521,337
884.332153,318
884.448975,322
884.565796,313
884.682678,318
884.7995,330
884.916443,334
885.033264,318
885.150085,331
885.266968,323
885.383789,328
885.500671,325
885.617493,340
885.734314,324
885.851196,326
885.967896,324
886.084717,327
886.201599,334
886.318359,344
886.435181,328
886.552002,335
886.668762,323
886.785645,328
886.902344,323
887.019165,331
887.135925,335
887.252747,312
887.369446,306
887.486267,316
887.603027,313
887.719788,329
887.836548,320
887.953247,308
888.070068,331
888.186829,323
888.303528,315
888.420288,338
888.536987,310
888.653687,311
888.770447,313
888.887146,315
889.003967,306
889.120667,318
889.237305,327
889.354065,319
889.470703,307
889.587463,301
889.704163,315
889.820862,327
889.937561,322
890.054199,327
890.170837,320
890.287598,307
890.404236,318
890.520874,319
890.637634,316
890.754211,322
890.87085,311
890.987549,317
891.104187,322
891.220886,327
891.337463,315
891.454102,322
891.57074,320
891.687378,309
891.804077,318
891.920654,332
892.037231,300
892.15387,327
892.270447,318
892.387085,308
892.503723,308
892.6203,308
892.736877,314
892.853516,312
892.970032,323
893.08667,329
893.203186,332
893.319763,320
893.43634,318
893.552917,307
893.669556,308
893.786011,318
893.902588,308
894.019165,318
894.135681,319
894.252197,316
894.368835,330
894.485291,318
894.601868,307
894.718384,315
894.8349,320
894.951355,308
895.067932,316
895.184448,312
895.300964,306
895.417419,307
895.533936,319
895.650452,326
895.766907,331
895.883423,319
895.999878,317
896.116333,311
896.232849,312
896.349304,330
896.465759,311
896.582214,331
896.698669,308
896.815125,328
896.931641,308
897.048035,324
897.164551,326
897.280884,311
897.397339,311
897.513794,298
897.630249,324
897.746582,330
897.863098,317
897.979431,317
898.095886,304
898.212341,321
898.328674,317
898.445129,315
898.561462,322
898.677795,323
898.794312,324
898.910645,321
899.026978,320
899.143433,317
899.259766,319
899.37616,305
899.492493,327
899.608765,314
899.725159,325
899.841553,313
899.957947,318
900.07428,316
900.190552,323
900.306946,319
900.423157,313
900.53949,324
900.655884,321
900.772156,319
900.888489,316
901.004822,317
901.121033,323
901.237366,311
901.353699,316
901.46991,325
901.586304,313
901.702515,328
901.818787,325
901.93512,322
902.051331,320
902.167603,333
902.283875,335
902.400085,326
902.516418,323
902.632629,333
902.74884,317
902.865112,327
902.981384,318
903.097595,322
903.213867,325
903.330017,327
903.446289,329
903.5625,326
903.67865,314
903.794922,329
903.911072,316
904.027344,323
904.143494,323
904.259705,332
904.375916,312
904.492065,314
904.608215,318
904.724426,321
904.840576,300
904.956726,331
905.072876,308
905.189087,323
905.305176,314
905.421387,321
905.537537,317
905.653687,332
905.769775,309
905.885925,314
906.002014,327
906.118164,319
906.234314,320
906.350403,324
906.466492,320
906.582642,322
906.69873,330
906.814758,328
906.930908,314
907.046936,308
907.163086,304
907.279175,317
907.395264,307
907.511353,341
907.62738,311
907.743408,330
907.859497,311
907.975525,321
908.091553,325
908.207703,321
908.32373,326
908.439758,318
908.555786,308
908.671814,311
908.787842,326
908.90387,313
909.019775,320
909.135864,320
909.251892,316
909.367859,330
909.483826,307
909.599854,324
909.715881,327
909.831848,315
909.947815,314
910.063782,320
910.179749,309
910.295776,325
910.411743,314
910.527649,323
910.643616,317
910.759583,314
910.875488,323
910.991455,325
911.107361,313
911.223267,326
911.339294,328
911.4552,314
911.571106,328
911.687073,329
911.802979,313
911.918823,303
912.034729,302
912.150635,330
912.266602,311
912.382446,314
912.498352,311
912.614197,320
912.730103,311
912.846008,316
