792.44574,315
792.56488,356
792.68396,404
792.80304,401
792.92218,328
793.041199,313
793.160339,310
793.279419,344
793.398499,328
793.517578,322
793.636658,333
793.755737,325
793.874817,356
793.993896,334
794.112976,338
794.232056,332
794.351074,324
794.470215,342
794.589233,327
794.708313,315
794.827393,324
794.946411,339
795.065552,333
795.18457,343
795.303589,337
795.422668,335
795.541687,332
795.660767,332
795.779846,327
795.898865,324
796.017883,315
796.136963,323
796.255981,325
796.375061,324
796.49408,327
796.613037,325
796.732117,339
796.851135,330
796.970154,321
797.089233,321
797.208191,324
797.327271,323
797.446228,344
797.565186,325
797.684265,327
797.803223,334
797.922241,322
798.04126,333
798.160278,338
798.279297,331
798.398315,324
798.517273,338
798.636292,334
798.75531,328
798.874268,329
798.993286,335
799.112244,336
799.231323,319
799.350281,336
799.469238,322
799.588257,336
799.707153,331
799.826111,328
799.945129,332
800.064087,322
800.183044,320
800.302063,335
800.421021,331
800.539978,349
800.658936,329
800.777893,339
800.896912,325
801.015747,337
801.134705,324
801.253723,329
801.37262,330
801.491638,334
801.610535,343
801.729492,339
801.84845,332
801.967407,335
802.086243,333
802.205261,331
802.324158,337
802.443115,320
802.562073,340
802.680969,328
802.799927,322
802.918762,313
803.037659,325
803.156677,330
803.275574,321
803.39447,344
803.513428,336
803.632263,332
803.751221,332
803.870117,336
803.989014,329
804.107971,331
804.226746,326
804.345642,331
804.4646,308
804.583496,323
804.702393,321
804.821228,324
804.940125,326
805.059021,327
805.177917,330
805.296814,325
805.415649,324
805.534546,330
805.653442,344
805.772278,326
805.891113,331
806.01001,331
806.128906,334
806.247742,337
806.366577,339
806.485413,333
806.604309,342
806.723145,326
806.84198,336
806.960876,318
807.079712,343
807.198486,322
807.317383,329
807.436218,331
807.554993,319
807.673889,319
807.792725,336
807.91156,337
808.030396,325
808.14917,326
808.268005,307
808.386841,330
808.505676,329
808.624451,326
808.743286,336
808.862122,328
808.980896,305
809.099731,343
809.218506,332
809.337341,331
809.456116,329
809.57489,324
809.693726,336
809.8125,326
809.931274,332
810.050049,341
810.168884,322
810.287659,333
810.406372,339
810.525269,326
810.643982,329
810.762756,336
810.881531,334
811.000305,324
811.11908,332
811.237854,327
811.356567,325
811.475403,336
811.594116,323
811.71283,341
811.831604,326
811.950378,349
812.069153,340
812.187927,334
812.30658,338
812.425415,333
812.544128,346
812.662781,332
812.781616,331
812.900269,327
813.019043,332
813.137756,327
813.256531,339
813.375244,314
813.493896,343
813.612671,340
813.731384,340
813.850037,324
813.96875,332
814.087524,329
814.206238,338
814.324951,338
814.443604,345
814.562256,319
814.68103,332
814.799683,326
814.918335,324
815.037109,337
815.155762,333
815.274475,327
815.393188,332
815.511841,329
815.630554,331
815.749146,335
815.867859,341
815.986572,326
816.105164,328
816.223877,338
816.342529,330
816.461182,327
816.579895,321
816.698486,349
816.817139,340
816.935791,328
817.054504,343
817.173096,335
817.291748,332
817.4104,332
817.529053,334
817.647644,319
817.766235,340
817.884949,335
818.00354,328
818.122192,319
818.240845,322
818.359436,321
818.478088,324
818.59668,330
818.715271,315
818.833923,328
818.952515,334
819.071106,318
819.189758,328
819.30835,314
819.426941,329
819.545532,327
819.664124,325
819.782715,325
819.901306,321
820.019897,324
820.138489,315
820.25708,320
820.375671,331
820.494202,322
820.612732,312
820.731384,322
820.849915,328
820.968506,324
821.087097,307
821.205627,321
821.324158,304
821.442749,322
821.561279,320
821.679871,317
821.798401,337
821.916931,320
822.035461,304
822.154053,322
822.272583,323
822.391174,327
822.509583,321
822.628174,323
822.746704,304
822.865234,306
822.983765,302
823.102295,322
823.220825,316
823.339294,311
823.457825,308
823.576355,318
823.694824,319
823.813354,334
823.931885,312
824.050354,328
824.168884,315
824.287354,323
824.405823,318
824.524353,332
824.642822,327
824.761353,318
824.879822,306
824.998291,317
825.116699,320
825.235291,334
825.353699,321
825.472168,304
825.590637,314
825.709106,326
825.827576,317
825.946045,326
826.064453,323
826.182983,329
826.301392,301
826.4198,309
826.53833,322
826.656738,325
826.775208,327
826.893677,328
827.012024,318
827.130493,322
827.248962,316
827.36731,317
827.485779,318
827.604248,317
827.722595,317
827.841064,321
827.959412,328
828.077942,310
828.196289,316
828.314636,315
828.433105,307
828.551514,313
828.669861,312
828.78833,311
828.906677,316
829.025085,312
829.143433,321
829.261841,312
829.38031,325
829.498657,319
829.617004,321
829.735413,310
829.85376,315
829.972107,318
830.090515,322
830.208862,318
830.327209,315
830.445557,322
830.563904,304
830.682312,319
830.800659,308
830.919006,312
831.037354,323
831.155701,295
831.274048,319
831.392395,307
831.51062,317
831.629028,309
831.747314,317
831.865662,320
831.984009,321
832.102356,327
832.220642,321
832.338928,308
832.457275,318
832.575623,311
832.693909,322
832.812134,312
832.930481,323
833.048828,313
833.167114,314
833.2854,312
833.403687,313
833.521973,308
833.640259,319
833.758545,316
833.876831,320
833.995056,320
834.113281,310
834.231628,313
834.349915,319
834.468201,317
834.586426,317
834.704651,316
834.822998,307
834.941162,330
835.059448,310
835.177673,328
835.295959,323
835.414246,317
835.53241,324
835.650635,298
835.768921,313
835.887146,306
836.005371,328
836.123596,318
836.241821,325
836.360046,330
836.478271,310
836.596497,310
836.714722,316
836.832886,306
836.95105,313
837.069336,324
837.1875,311
837.305725,325
837.423889,314
837.542053,326
837.660339,315
837.778503,333
837.896667,321
838.014832,318
838.132996,323
838.25116,319
838.369385,305
838.487488,317
838.605713,318
838.723877,330
838.84198,317
838.960205,321
839.078308,300
839.196472,311
839.314636,322
839.4328,321
839.550964,331
839.669067,319
839.787231,313
839.905396,322
840.023499,317
840.141602,309
840.259766,320
840.377869,329
840.495972,321
840.614136,309
840.732239,325
840.850342,316
840.968445,326
841.086548,316
841.204651,325
841.322754,322
841.440918,313
841.55896,311
841.677002,323
841.795166,302
841.913208,323
842.031311,316
842.149353,317
842.267456,312
842.385498,312
842.503601,322
842.621643,311
842.739746,334
842.857788,294
842.97583,317
843.093933,302
843.211975,322
843.330017,320
843.44812,326
843.566101,303
843.684204,318
843.802246,300
843.920227,329
844.038269,316
844.156311,319
844.274292,319
844.392395,328
844.510376,322
844.628357,300
844.74646,316
844.864441,323
844.982422,313
845.100403,317
845.218384,309
845.336426,308
845.454468,303
845.572449,312
845.69043,315
845.808411,320
845.926453,327
846.044373,322
846.162354,315
846.280396,319
846.398315,325
846.516296,322
846.634216,312
846.752197,324
846.870178,311
846.988098,324
847.106079,319
847.22406,318
847.34198,315
847.4599,321
847.577881,317
847.695801,311
847.813782,310
847.931641,310
848.049561,324
848.167603,316
848.285461,313
848.403381,308
848.521362,329
848.639221,325
848.75708,322
848.875,311
848.99292,315
849.110901,302
849.22876,321
849.34668,313
849.464539,317
849.582458,311
849.700317,303
849.818176,315
849.936096,322
850.053955,311
850.171875,320
850.289673,310
850.407593,321
850.525452,311
850.643311,310
850.761169,311
850.878967,316
850.996887,324
851.114746,322
851.232544,313
851.350403,324
851.468262,329
851.58606,312
851.703979,315
851.821777,323
851.939636,316
852.057434,316
852.175232,305
852.293091,330
852.410889,309
852.528687,318
852.646545,305
852.764343,314
852.88208,313
852.999939,316
853.117676,317
853.235535,319
853.353271,323
853.471069,324
853.588928,296
853.706604,318
853.824402,326
853.9422,307
854.059998,300
854.177734,318
854.295532,313
854.413269,320
854.531006,325
854.648804,326
854.766541,321
854.884277,319
855.002014,312
855.119751,329
855.237549,313
855.355225,322
855.473022,328
855.590698,324
855.708435,329
855.826172,321
855.943848,318
856.061646,313
856.179321,302
856.296997,309
856.414795,300
856.53241,317
856.650085,320
856.767822,320
856.885559,315
857.003174,316
857.120911,321
857.238586,311
857.356201,319
857.473938,308
857.591614,305
857.709351,320
857.826965,304
857.944641,317
858.062317,314
858.179993,326
858.297668,310
858.415283,314
858.532959,313
858.650574,318
858.768188,306
858.885803,309
859.003479,317
859.121094,301
859.23877,327
859.356384,315
859.473999,322
859.591675,308
859.709229,304
859.826843,325
859.944458,315
860.062012,316
860.179626,307
860.297302,319
860.414856,319
860.532471,321
860.650024,305
860.767639,317
860.885193,312
861.002808,317
861.120361,327
861.237976,332
861.35553,321
861.473022,315
861.590698,308
861.708191,320
861.825745,318
861.943298,311
862.060852,306
862.178406,319
862.295959,314
862.413513,322
862.531006,315
862.64856,329
862.766113,310
862.883667,318
863.00116,303
863.118713,310
863.236206,322
863.353699,313
863.471252,305
863.588745,312
863.706177,318
863.82373,321
863.941162,326
864.058716,311
864.176208,309
864.29364,323
864.411194,304
864.528687,311
864.646118,304
864.763611,306
864.881042,328
864.998535,325
865.116028,304
865.233459,312
865.350891,317
865.468384,314
865.585754,327
865.703308,317
865.820679,313
865.938171,301
866.055542,320
866.173035,322
866.290466,321
866.407837,310
866.52533,319
866.6427,323
866.760071,312
866.877563,318
866.994934,326
867.112305,316
867.229736,317
867.347107,317
867.464539,317
867.58197,314
867.699341,319
867.81665,317
867.934082,311
868.051453,326
868.168823,325
868.286194,319
868.403564,319
868.520935,314
868.638306,323
868.755676,314
868.872986,312
868.990295,308
869.107727,318
869.225037,317
869.342346,318
869.459717,319
869.577026,315
869.694336,317
869.811707,319
869.929016,320
870.046326,316
870.163635,316
870.280945,312
870.398254,319
870.515564,325
870.632812,335
870.750183,310
870.867432,320
870.984741,324
871.102051,316
871.219299,319
871.336609,312
871.453918,310
871.571106,317
871.688416,318
871.805664,319
871.922852,320
872.040222,296
872.157471,319
872.274719,321
872.391968,302
872.509155,317
872.626465,311
872.743652,321
872.860962,303
872.978149,314
873.095337,321
873.212646,315
873.329834,317
873.44696,326
873.564209,318
873.681396,310
873.798645,314
873.915894,323
874.03302,318
874.150208,307
874.267456,318
874.384583,307
874.501831,315
874.618958,321
874.736145,307
874.853333,330
874.970459,322
875.087646,315
875.204834,310
875.32196,310
875.439148,320
875.556274,306
875.673401,320
875.790527,321
875.907715,305
876.024841,319
876.141968,312
876.259094,319
876.376282,316
876.493347,312
876.610474,314
876.7276,329
876.844727,326
876.961853,326
877.078918,318
877.195984,317
877.313171,325
877.430237,320
877.547302,318
877.664368,329
877.781433,315
877.898499,313
878.015625,316
878.13269,319
878.249695,318
878.366821,328
878.483887,303
878.600952,310
878.717957,313
878.834961,316
878.952087,320
879.069092,309
879.186157,319
879.303162,310
879.420227,324
879.537231,314
879.654236,318
879.77124,311
879.888306,318
880.005249,321
880.122314,306
880.239319,325
880.356323,311
880.473328,321
880.590271,328
880.707275,316
880.824341,320
880.941284,329
881.058228,314
881.175232,336
881.292236,328
881.40918,313
881.526123,316
881.643066,317
881.760071,312
881.877014,320
881.993958,315
882.11084,324
882.227783,329
882.344727,314
882.46167,311
882.578613,317
882.695618,324
882.812439,317
882.929382,316
883.046326,307
883.163208,313
883.280151,309
883.397034,312
883.513916,324
883.630798,305
883.747742,317
883.864563,311
883.981506,315
884.098389,301
884.21521,323
884.332153,316
884.448975,311
884.565796,308
884.682678,313
884.7995,313
884.916443,309
885.033264,320
885.150085,318
885.266968,309
885.383789,321
885.500671,314
885.617493,318
885.734314,305
885.851196,313
885.967896,310
886.084717,311
886.201599,323
886.318359,325
886.435181,314
886.552002,303
886.668762,328
886.785645,325
886.902344,308
887.019165,318
887.135925,304
887.252747,317
887.369446,313
887.486267,325
887.603027,312
887.719788,318
887.836548,322
887.953247,321
888.070068,316
888.186829,322
888.303528,319
888.420288,325
888.536987,309
888.653687,318
888.770447,323
888.887146,313
889.003967,321
889.120667,314
889.237305,312
889.354065,324
889.470703,316
889.587463,316
889.704163,315
889.820862,325
889.937561,313
890.054199,311
890.170837,320
890.287598,320
890.404236,316
890.520874,309
890.637634,320
890.754211,323
890.87085,307
890.987549,328
891.104187,313
891.220886,319
891.337463,320
891.454102,320
891.57074,316
891.687378,326
891.804077,307
891.920654,323
892.037231,313
892.15387,325
892.270447,320
892.387085,309
892.503723,311
892.6203,312
892.736877,310
892.853516,328
892.970032,320
893.08667,321
893.203186,315
893.319763,326
893.43634,301
893.552917,321
893.669556,300
893.786011,322
893.902588,325
894.019165,315
894.135681,320
894.252197,312
894.368835,318
894.485291,325
894.601868,318
894.718384,304
894.8349,316
894.951355,315
895.067932,317
895.184448,320
895.300964,308
895.417419,315
895.533936,313
895.650452,319
895.766907,311
895.883423,324
895.999878,311
896.116333,321
896.232849,326
896.349304,321
896.465759,307
896.582214,312
896.698669,304
896.815125,326
896.931641,308
897.048035,312
897.164551,317
897.280884,312
897.397339,323
897.513794,310
897.630249,326
897.746582,317
897.863098,318
897.979431,311
898.095886,311
898.212341,315
898.328674,322
898.445129,314
898.561462,313
898.677795,321
898.794312,311
898.910645,301
899.026978,322
899.143433,309
899.259766,315
899.37616,325
899.492493,316
899.608765,319
899.725159,311
899.841553,311
899.957947,317
900.07428,310
900.190552,322
900.306946,328
900.423157,324
900.53949,313
900.655884,321
900.772156,326
900.888489,311
901.004822,314
901.121033,320
901.237366,310
901.353699,312
901.46991,330
901.586304,309
901.702515,320
901.818787,315
901.93512,319
902.051331,326
902.167603,308
902.283875,313
902.400085,306
902.516418,315
902.632629,323
902.74884,325
902.865112,319
902.981384,313
903.097595,319
903.213867,315
903.330017,319
903.446289,313
903.5625,327
903.67865,323
903.794922,316
903.911072,323
904.027344,318
904.143494,320
904.259705,310
904.375916,312
904.492065,321
904.608215,300
904.724426,318
904.840576,311
904.956726,322
905.072876,317
905.189087,326
905.305176,312
905.421387,319
905.537537,313
905.653687,308
905.769775,308
905.885925,312
906.002014,323
906.118164,323
906.234314,312
906.350403,322
906.466492,325
906.582642,328
906.69873,314
906.814758,315
906.930908,313
907.046936,318
907.163086,324
907.279175,320
907.395264,307
907.511353,328
907.62738,307
907.743408,313
907.859497,315
907.975525,316
908.091553,307
908.207703,312
908.32373,318
908.439758,327
908.555786,322
908.671814,322
908.787842,318
908.90387,321
909.019775,301
909.135864,318
909.251892,314
909.367859,324
909.483826,317
909.599854,311
909.715881,319
909.831848,316
909.947815,304
910.063782,313
910.179749,319
910.295776,314
910.411743,320
910.527649,302
910.643616,311
910.759583,319
910.875488,319
910.991455,320
911.107361,313
911.223267,319
911.339294,303
911.4552,317
911.571106,316
911.687073,315
911.802979,325
911.918823,314
912.034729,304
912.150635,330
912.266602,309
912.382446,327
912.498352,318
912.614197,322
912.730103,317
912.846008,315
792.44574,318
792.56488,363
792.68396,399
792.80304,385
792.92218,343
793.041199,329
793.160339,324
793.279419,329
793.398499,332
793.517578,312
793.636658,329
793.755737,328
793.874817,345
793.993896,348
794.112976,337
794.232056,318
794.351074,331
794.470215,334
794.589233,332
794.708313,317
794.827393,341
794.946411,332
795.065552,346
795.18457,340
795.303589,342
795.422668,335
795.541687,313
795.660767,333
795.779846,332
795.898865,324
796.017883,314
796.136963,335
796.255981,329
796.375061,323
796.49408,329
796.613037,338
796.732117,338
796.851135,336
796.970154,324
797.089233,321
797.208191,333
797.327271,327
797.446228,352
797.565186,329
797.684265,326
797.803223,331
797.922241,329
798.04126,327
798.160278,333
798.279297,320
798.398315,328
798.517273,333
798.636292,335
798.75531,330
798.874268,335
798.993286,337
799.112244,326
799.231323,326
799.350281,333
799.469238,329
799.588257,323
799.707153,325
799.826111,327
799.945129,332
800.064087,342
800.183044,320
800.302063,335
800.421021,330
800.539978,340
800.658936,329
800.777893,350
800.896912,318
801.015747,322
801.134705,327
801.253723,327
801.37262,320
801.491638,337
801.610535,320
801.729492,330
801.84845,337
801.967407,327
802.086243,326
802.205261,327
802.324158,329
802.443115,327
802.562073,322
802.680969,335
802.799927,323
802.918762,336
803.037659,298
803.156677,322
803.275574,316
803.39447,334
803.513428,321
803.632263,343
803.751221,332
803.870117,330
803.989014,329
804.107971,331
804.226746,325
804.345642,330
804.4646,334
804.583496,322
804.702393,328
804.821228,327
804.940125,330
805.059021,337
805.177917,335
805.296814,343
805.415649,328
805.534546,344
805.653442,326
805.772278,336
805.891113,332
806.01001,341
806.128906,334
806.247742,333
806.366577,312
806.485413,334
806.604309,321
806.723145,358
806.84198,321
806.960876,351
807.079712,323
807.198486,324
807.317383,331
807.436218,332
807.554993,331
807.673889,335
807.792725,333
807.91156,338
808.030396,330
808.14917,333
808.268005,331
808.386841,323
808.505676,337
808.624451,333
808.743286,324
808.862122,343
808.980896,336
809.099731,337
809.218506,337
809.337341,335
809.456116,336
809.57489,326
809.693726,334
809.8125,325
809.931274,340
810.050049,334
810.168884,323
810.287659,341
810.406372,329
810.525269,328
810.643982,336
810.762756,327
810.881531,326
811.000305,328
811.11908,335
811.237854,320
811.356567,333
811.475403,332
811.594116,330
811.71283,318
811.831604,331
811.950378,340
812.069153,339
812.187927,341
812.30658,321
812.425415,348
812.544128,332
812.662781,338
812.781616,341
812.900269,332
813.019043,324
813.137756,341
813.256531,347
813.375244,337
813.493896,337
813.612671,334
813.731384,318
813.850037,334
813.96875,341
814.087524,327
814.206238,331
814.324951,333
814.443604,333
814.562256,339
814.68103,324
814.799683,333
814.918335,322
815.037109,337
815.155762,334
815.274475,328
815.393188,325
815.511841,353
815.630554,312
815.749146,325
815.867859,330
815.986572,329
816.105164,341
816.223877,341
816.342529,335
816.461182,332
816.579895,323
816.698486,332
816.817139,350
816.935791,329
817.054504,326
817.173096,332
817.291748,323
817.4104,344
817.529053,332
817.647644,349
817.766235,324
817.884949,337
818.00354,336
818.122192,326
818.240845,326
818.359436,334
818.478088,311
818.59668,320
818.715271,316
818.833923,320
818.952515,324
819.071106,323
819.189758,308
819.30835,328
819.426941,323
819.545532,325
819.664124,324
819.782715,328
819.901306,321
820.019897,321
820.138489,329
820.25708,324
820.375671,316
820.494202,322
820.612732,324
820.731384,318
820.849915,333
820.968506,328
821.087097,314
821.205627,323
821.324158,306
821.442749,341
821.561279,316
821.679871,332
821.798401,314
821.916931,331
822.035461,313
822.154053,326
822.272583,316
822.391174,335
822.509583,319
822.628174,330
822.746704,332
822.865234,309
822.983765,316
823.102295,323
823.220825,314
823.339294,324
823.457825,340
823.576355,335
823.694824,316
823.813354,319
823.931885,340
824.050354,320
824.168884,322
824.287354,331
824.405823,321
824.524353,332
824.642822,320
824.761353,333
824.879822,313
824.998291,344
825.116699,326
825.235291,330
825.353699,310
825.472168,312
825.590637,328
825.709106,327
825.827576,305
825.946045,322
826.064453,319
826.182983,322
826.301392,322
826.4198,321
826.53833,315
826.656738,319
826.775208,311
826.893677,321
827.012024,312
827.130493,312
827.248962,323
827.36731,310
827.485779,323
827.604248,323
827.722595,310
827.841064,324
827.959412,314
828.077942,331
828.196289,323
828.314636,318
828.433105,321
828.551514,306
828.669861,316
828.78833,316
828.906677,308
829.025085,308
829.143433,322
829.261841,310
829.38031,321
829.498657,325
829.617004,312
829.735413,323
829.85376,322
829.972107,315
830.090515,311
830.208862,335
830.327209,305
830.445557,326
830.563904,310
830.682312,322
830.800659,322
830.919006,339
831.037354,311
831.155701,317
831.274048,320
831.392395,310
831.51062,321
831.629028,330
831.747314,328
831.865662,297
831.984009,317
832.102356,321
832.220642,311
832.338928,317
832.457275,312
832.575623,323
832.693909,295
832.812134,319
832.930481,313
833.048828,315
833.167114,309
833.2854,312
833.403687,313
833.521973,322
833.640259,304
833.758545,316
833.876831,306
833.995056,313
834.113281,319
834.231628,322
834.349915,303
834.468201,323
834.586426,308
834.704651,317
834.822998,307
834.941162,316
835.059448,312
835.177673,324
835.295959,308
835.414246,311
835.53241,312
835.650635,312
835.768921,334
835.887146,326
836.005371,315
836.123596,315
836.241821,317
836.360046,316
836.478271,315
836.596497,319
836.714722,321
836.832886,317
836.95105,331
837.069336,320
837.1875,320
837.305725,329
837.423889,306
837.542053,321
837.660339,322
837.778503,306
837.896667,310
838.014832,320
838.132996,305
838.25116,315
838.369385,313
838.487488,311
838.605713,311
838.723877,308
838.84198,313
838.960205,334
839.078308,310
839.196472,306
839.314636,320
839.4328,322
839.550964,330
839.669067,326
839.787231,313
839.905396,329
840.023499,314
840.141602,317
840.259766,311
840.377869,312
840.495972,305
840.614136,332
840.732239,326
840.850342,318
840.968445,307
841.086548,328
841.204651,319
841.322754,321
841.440918,326
841.55896,327
841.677002,311
841.795166,305
841.913208,323
842.031311,335
842.149353,309
842.267456,321
842.385498,316
842.503601,323
842.621643,308
842.739746,321
842.857788,314
842.97583,325
843.093933,295
843.211975,324
843.330017,310
843.44812,326
843.566101,324
843.684204,322
843.802246,301
843.920227,328
844.038269,322
844.156311,316
844.274292,322
844.392395,318
844.510376,297
844.628357,318
844.74646,313
844.864441,321
844.982422,313
845.100403,326
845.218384,315
845.336426,313
845.454468,321
845.572449,319
845.69043,303
845.808411,320
845.926453,319
846.044373,316
846.162354,322
846.280396,321
846.398315,314
846.516296,323
846.634216,310
846.752197,321
846.870178,324
846.988098,323
847.106079,302
847.22406,322
847.34198,306
847.4599,312
847.577881,315
847.695801,321
847.813782,319
847.931641,311
848.049561,316
848.167603,321
848.285461,322
848.403381,320
848.521362,316
848.639221,313
848.75708,330
848.875,316
848.99292,321
849.110901,314
849.22876,311
849.34668,319
849.464539,317
849.582458,325
849.700317,308
849.818176,310
849.936096,320
850.053955,335
850.171875,309
850.289673,319
850.407593,312
850.525452,317
850.643311,281
850.761169,317
850.878967,309
850.996887,322
851.114746,327
851.232544,324
851.350403,309
851.468262,325
851.58606,327
851.703979,317
851.821777,311
851.939636,309
852.057434,308
852.175232,319
852.293091,306
852.410889,308
852.528687,319
852.646545,317
852.764343,310
852.88208,315
852.999939,306
853.117676,307
853.235535,303
853.353271,311
853.471069,312
853.588928,306
853.706604,323
853.824402,308
853.9422,310
854.059998,325
854.177734,317
854.295532,321
854.413269,324
854.531006,304
854.648804,325
854.766541,326
854.884277,311
855.002014,308
855.119751,316
855.237549,317
855.355225,312
855.473022,314
855.590698,312
855.708435,319
855.826172,318
855.943848,330
856.061646,315
856.179321,315
856.296997,312
856.414795,312
856.53241,328
856.650085,318
856.767822,319
856.885559,311
857.003174,322
857.120911,318
857.238586,304
857.356201,318
857.473938,316
857.591614,321
857.709351,312
857.826965,313
857.944641,315
858.062317,322
858.179993,321
858.297668,317
858.415283,310
858.532959,317
858.650574,312
858.768188,314
858.885803,313
859.003479,316
859.121094,311
859.23877,315
859.356384,310
859.473999,325
859.591675,301
859.709229,307
859.826843,310
859.944458,322
860.062012,297
860.179626,295
860.297302,308
860.414856,315
860.532471,309
860.650024,313
860.767639,308
860.885193,325
861.002808,310
861.120361,321
861.237976,315
861.35553,321
861.473022,323
861.590698,311
861.708191,325
861.825745,321
861.943298,300
862.060852,322
862.178406,307
862.295959,322
862.413513,318
862.531006,326
862.64856,319
862.766113,314
862.883667,310
863.00116,318
863.118713,318
863.236206,323
863.353699,317
863.471252,315
863.588745,321
863.706177,327
863.82373,321
863.941162,308
864.058716,327
864.176208,323
864.29364,315
864.411194,324
864.528687,320
864.646118,326
864.763611,315
864.881042,303
864.998535,318
865.116028,302
865.233459,321
865.350891,328
865.468384,314
865.585754,317
865.703308,320
865.820679,314
865.938171,326
866.055542,323
866.173035,313
866.290466,313
866.407837,309
866.52533,322
866.6427,307
866.760071,324
866.877563,325
866.994934,329
867.112305,311
867.229736,324
867.347107,314
867.464539,327
867.58197,308
867.699341,317
867.81665,309
867.934082,314
868.051453,306
868.168823,327
868.286194,306
868.403564,326
868.520935,306
868.638306,323
868.755676,310
868.872986,319
868.990295,307
869.107727,327
869.225037,311
869.342346,320
869.459717,329
869.577026,319
869.694336,325
869.811707,318
869.929016,319
870.046326,310
870.163635,322
870.280945,308
870.398254,315
870.515564,318
870.632812,321
870.750183,328
870.867432,320
870.984741,306
871.102051,312
871.219299,319
871.336609,308
871.453918,328
871.571106,306
871.688416,311
871.805664,304
871.922852,318
872.040222,311
872.157471,318
872.274719,328
872.391968,322
872.509155,301
872.626465,320
872.743652,312
872.860962,326
872.978149,316
873.095337,307
873.212646,314
873.329834,315
873.44696,322
873.564209,310
873.681396,318
873.798645,310
873.915894,317
874.03302,316
874.150208,321
874.267456,319
874.384583,303
874.501831,328
874.618958,313
874.736145,315
874.853333,310
874.970459,323
875.087646,321
875.204834,319
875.32196,316
875.439148,314
875.556274,312
875.673401,326
875.790527,308
875.907715,319
876.024841,310
876.141968,327
876.259094,307
876.376282,327
876.493347,319
876.610474,316
876.7276,323
876.844727,308
876.961853,297
877.078918,314
877.195984,312
877.313171,314
877.430237,308
877.547302,313
877.664368,316
877.781433,313
877.898499,313
878.015625,309
878.13269,308
878.249695,320
878.366821,297
878.483887,322
878.600952,310
878.717957,314
878.834961,329
878.952087,320
879.069092,311
879.186157,322
879.303162,303
879.420227,313
879.537231,312
879.654236,306
879.77124,313
879.888306,332
880.005249,314
880.122314,315
880.239319,315
880.356323,317
880.473328,307
880.590271,321
880.707275,295
880.824341,311
880.941284,314
881.058228,329
881.175232,324
881.292236,311
881.40918,316
881.526123,321
881.643066,311
881.760071,316
881.877014,322
881.993958,324
882.11084,317
882.227783,307
882.344727,311
882.46167,305
882.578613,312
882.695618,322
882.812439,300
882.929382,327
883.046326,308
883.163208,316
883.280151,314
883.397034,318
883.513916,302
883.630798,313
883.747742,306
883.864563,319
883.981506,328
884.098389,322
884.21521,315
884.332153,310
884.448975,308
884.565796,320
884.682678,316
884.7995,311
884.916443,319
885.033264,315
885.150085,308
885.266968,312
885.383789,323
885.500671,315
885.617493,317
885.734314,314
885.851196,318
885.967896,302
886.084717,316
886.201599,317
886.318359,309
886.435181,322
886.552002,318
886.668762,319
886.785645,308
886.902344,327
887.019165,306
887.135925,314
887.252747,301
887.369446,322
887.486267,324
887.603027,323
887.719788,313
887.836548,319
887.953247,318
888.070068,327
888.186829,300
888.303528,305
888.420288,311
888.536987,315
888.653687,316
888.770447,318
888.887146,311
889.003967,315
889.120667,318
889.237305,313
889.354065,311
889.470703,317
889.587463,310
889.704163,320
889.820862,308
889.937561,306
890.054199,321
890.170837,324
890.287598,317
890.404236,308
890.520874,321
890.637634,317
890.754211,308
890.87085,320
890.987549,307
891.104187,315
891.220886,315
891.337463,319
891.454102,312
891.57074,304
891.687378,312
891.804077,314
891.920654,309
892.037231,314
892.15387,327
892.270447,323
892.387085,331
892.503723,327
892.6203,311
892.736877,326
892.853516,326
892.970032,311
893.08667,312
893.203186,309
893.319763,297
893.43634,308
893.552917,308
893.669556,315
893.786011,316
893.902588,327
894.019165,316
894.135681,321
894.252197,327
894.368835,320
894.485291,329
894.601868,307
894.718384,314
894.8349,311
894.951355,308
895.067932,310
895.184448,309
895.300964,323
895.417419,322
895.533936,320
895.650452,316
895.766907,313
895.883423,320
895.999878,320
896.116333,297
896.232849,311
896.349304,311
896.465759,311
896.582214,323
896.698669,320
896.815125,317
896.931641,323
897.048035,311
897.164551,325
897.280884,307
897.397339,311
897.513794,306
897.630249,299
897.746582,304
897.863098,322
897.979431,314
898.095886,305
898.212341,297
898.328674,308
898.445129,319
898.561462,335
898.677795,313
898.794312,318
898.910645,323
899.026978,328
899.143433,325
899.259766,308
899.37616,308
899.492493,335
899.608765,307
899.725159,318
899.841553,322
899.957947,321
900.07428,303
900.190552,329
900.306946,321
900.423157,319
900.53949,323
900.655884,328
900.772156,323
900.888489,313
901.004822,316
901.121033,310
901.237366,314
901.353699,324
901.46991,328
901.586304,322
901.702515,303
901.818787,312
901.93512,309
902.051331,317
902.167603,319
902.283875,332
902.400085,312
902.516418,333
902.632629,328
902.74884,305
902.865112,301
902.981384,320
903.097595,306
903.213867,315
903.330017,317
903.446289,328
903.5625,319
903.67865,307
903.794922,317
903.911072,328
904.027344,314
904.143494,317
904.259705,307
904.375916,325
904.492065,321
904.608215,316
904.724426,315
904.840576,322
904.956726,315
905.072876,310
905.189087,311
905.305176,335
905.421387,314
905.537537,318
905.653687,317
905.769775,319
905.885925,316
906.002014,318
906.118164,313
906.234314,317
906.350403,315
906.466492,313
906.582642,318
906.69873,340
906.814758,313
906.930908,307
907.046936,310
907.163086,318
907.279175,316
907.395264,317
907.511353,315
907.62738,312
907.743408,308
907.859497,312
907.975525,306
908.091553,315
908.207703,326
908.32373,317
908.439758,316
908.555786,325
908.671814,315
908.787842,317
908.90387,315
909.019775,318
909.135864,316
909.251892,330
909.367859,304
909.483826,313
909.599854,319
909.715881,324
909.831848,316
909.947815,324
910.063782,322
910.179749,320
910.295776,315
910.411743,321
910.527649,314
910.643616,316
910.759583,306
910.875488,322
910.991455,324
911.107361,323
911.223267,300
911.339294,333
911.4552,313
911.571106,326
911.687073,326
911.802979,331
911.918823,316
912.034729,318
912.150635,318
912.266602,305
912.382446,314
912.498352,333
912.614197,316
912.730103,324
912.846008,310
792.44574,326
792.56488,357
792.68396,394
792.80304,367
792.92218,327
793.041199,321
793.160339,321
793.279419,334
793.398499,345
793.517578,327
793.636658,330
793.755737,349
793.874817,343
793.993896,344
794.112976,335
794.232056,327
794.351074,333
794.470215,334
794.589233,326
794.708313,328
794.827393,332
794.946411,341
795.065552,338
795.18457,334
795.303589,331
795.422668,339
795.541687,329
795.660767,333
795.779846,335
795.898865,341
796.017883,333
796.136963,319
796.255981,322
796.375061,344
796.49408,317
796.613037,328
796.732117,325
796.851135,332
796.970154,330
797.089233,346
797.208191,327
797.327271,322
797.446228,333
797.565186,334
797.684265,331
797.803223,336
797.922241,329
798.04126,322
798.160278,329
798.279297,334
798.398315,327
798.517273,345
798.636292,323
798.75531,327
798.874268,328
798.993286,336
799.112244,333
799.231323,332
799.350281,326
799.469238,344
799.588257,329
799.707153,351
799.826111,333
799.945129,322
800.064087,324
800.183044,321
800.302063,325
800.421021,342
800.539978,327
800.658936,338
800.777893,330
800.896912,333
801.015747,338
801.134705,346
801.253723,330
801.37262,320
801.491638,333
801.610535,316
801.729492,339
801.84845,338
801.967407,327
802.086243,336
802.205261,324
802.324158,325
802.443115,333
802.562073,337
802.680969,322
802.799927,337
802.918762,321
803.037659,339
803.156677,330
803.275574,330
803.39447,324
803.513428,330
803.632263,334
803.751221,324
803.870117,334
803.989014,330
804.107971,342
804.226746,321
804.345642,341
804.4646,332
804.583496,345
804.702393,328
804.821228,331
804.940125,319
805.059021,328
805.177917,317
805.296814,337
805.415649,336
805.534546,344
805.653442,333
805.772278,342
805.891113,327
806.01001,330
806.128906,323
806.247742,336
806.366577,336
806.485413,340
806.604309,332
806.723145,318
806.84198,327
806.960876,335
807.079712,321
807.198486,342
807.317383,312
807.436218,339
807.554993,328
807.673889,330
807.792725,341
807.91156,332
808.030396,335
808.14917,333
808.268005,322
808.386841,342
808.505676,331
808.624451,340
808.743286,340
808.862122,332
808.980896,321
809.099731,329
809.218506,342
809.337341,337
809.456116,338
809.57489,327
809.693726,332
809.8125,346
809.931274,329
810.050049,347
810.168884,352
810.287659,347
810.406372,325
810.525269,317
810.643982,324
810.762756,325
810.881531,347
811.000305,330
811.11908,332
811.237854,340
811.356567,335
811.475403,338
811.594116,333
811.71283,349
811.831604,319
811.950378,344
812.069153,333
812.187927,331
812.30658,340
812.425415,338
812.544128,317
812.662781,337
812.781616,343
812.900269,335
813.019043,343
813.137756,341
813.256531,333
813.375244,324
813.493896,330
813.612671,340
813.731384,316
813.850037,338
813.96875,347
814.087524,327
814.206238,331
814.324951,330
814.443604,325
814.562256,325
814.68103,332
814.799683,342
814.918335,328
815.037109,330
815.155762,336
815.274475,359
815.393188,327
815.511841,331
815.630554,348
815.749146,339
815.867859,343
815.986572,335
816.105164,320
816.223877,328
816.342529,324
816.461182,333
816.579895,331
816.698486,354
816.817139,319
816.935791,336
817.054504,321
817.173096,322
817.291748,335
817.4104,320
817.529053,343
817.647644,324
817.766235,323
817.884949,329
818.00354,321
818.122192,329
818.240845,345
818.359436,331
818.478088,329
818.59668,336
818.715271,323
818.833923,321
818.952515,318
819.071106,330
819.189758,327
819.30835,318
819.426941,322
819.545532,333
819.664124,328
819.782715,313
819.901306,320
820.019897,316
820.138489,314
820.25708,332
820.375671,319
820.494202,323
820.612732,307
820.731384,329
820.849915,321
820.968506,329
821.087097,332
821.205627,328
821.324158,322
821.442749,320
821.561279,316
821.679871,305
821.798401,327
821.916931,330
822.035461,323
822.154053,314
822.272583,305
822.391174,328
822.509583,321
822.628174,318
822.746704,321
822.865234,328
822.983765,317
823.102295,304
823.220825,314
823.339294,333
823.457825,318
823.576355,333
823.694824,318
823.813354,332
823.931885,320
824.050354,321
824.168884,326
824.287354,329
824.405823,324
824.524353,334
824.642822,320
824.761353,331
824.879822,326
824.998291,324
825.116699,311
825.235291,324
825.353699,318
825.472168,321
825.590637,319
825.709106,313
825.827576,333
825.946045,310
826.064453,327
826.182983,322
826.301392,314
826.4198,327
826.53833,329
826.656738,304
826.775208,326
826.893677,328
827.012024,323
827.130493,320
827.248962,307
827.36731,315
827.485779,321
827.604248,314
827.722595,309
827.841064,333
827.959412,329
828.077942,326
828.196289,315
828.314636,328
828.433105,320
828.551514,322
828.669861,323
828.78833,321
828.906677,326
829.025085,323
829.143433,311
829.261841,317
829.38031,320
829.498657,316
829.617004,316
829.735413,328
829.85376,324
829.972107,331
830.090515,325
830.208862,315
830.327209,314
830.445557,322
830.563904,312
830.682312,314
830.800659,313
830.919006,318
831.037354,324
831.155701,314
831.274048,324
831.392395,316
831.51062,317
831.629028,325
831.747314,309
831.865662,312
831.984009,309
832.102356,328
832.220642,317
832.338928,319
832.457275,314
832.575623,317
832.693909,330
832.812134,330
832.930481,310
833.048828,324
833.167114,307
833.2854,324
833.403687,322
833.521973,315
833.640259,310
833.758545,316
833.876831,331
833.995056,321
834.113281,319
834.231628,327
834.349915,308
834.468201,323
834.586426,316
834.704651,326
834.822998,317
834.941162,312
835.059448,325
835.177673,310
835.295959,329
835.414246,319
835.53241,310
835.650635,328
835.768921,317
835.887146,332
836.005371,311
836.123596,322
836.241821,308
836.360046,332
836.478271,322
836.596497,321
836.714722,312
836.832886,312
836.95105,300
837.069336,330
837.1875,300
837.305725,340
837.423889,320
837.542053,312
837.660339,319
837.778503,323
837.896667,329
838.014832,326
838.132996,313
838.25116,313
838.369385,310
838.487488,316
838.605713,326
838.723877,328
838.84198,322
838.960205,323
839.078308,313
839.196472,322
839.314636,325
839.4328,326
839.550964,321
839.669067,317
839.787231,310
839.905396,317
840.023499,339
840.141602,330
840.259766,306
840.377869,325
840.495972,321
840.614136,305
840.732239,323
840.850342,309
840.968445,309
841.086548,334
841.204651,309
841.322754,324
841.440918,314
841.55896,327
841.677002,316
841.795166,332
841.913208,306
842.031311,321
842.149353,297
842.267456,312
842.385498,309
842.503601,317
842.621643,317
842.739746,315
842.857788,316
842.97583,329
843.093933,315
843.211975,319
843.330017,311
843.44812,317
843.566101,315
843.684204,330
843.802246,313
843.920227,330
844.038269,324
844.156311,334
844.274292,316
844.392395,316
844.510376,305
844.628357,318
844.74646,307
844.864441,316
844.982422,302
845.100403,303
845.218384,302
845.336426,318
845.454468,319
845.572449,309
845.69043,313
845.808411,326
845.926453,314
846.044373,315
846.162354,318
846.280396,326
846.398315,309
846.516296,322
846.634216,310
846.752197,312
846.870178,309
846.988098,325
847.106079,314
847.22406,316
847.34198,313
847.4599,320
847.577881,316
847.695801,327
847.813782,318
847.931641,309
848.049561,306
848.167603,321
848.285461,315
848.403381,323
848.521362,312
848.639221,326
848.75708,297
848.875,313
848.99292,300
849.110901,323
849.22876,311
849.34668,324
849.464539,309
849.582458,328
849.700317,312
849.818176,300
849.936096,323
850.053955,311
850.171875,326
850.289673,300
850.407593,319
850.525452,313
850.643311,325
850.761169,329
850.878967,305
850.996887,319
851.114746,318
851.232544,313
851.350403,309
851.468262,305
851.58606,307
851.703979,320
851.821777,330
851.939636,313
852.057434,312
852.175232,326
852.293091,306
852.410889,330
852.528687,297
852.646545,316
852.764343,314
852.88208,328
852.999939,318
853.117676,317
853.235535,321
853.353271,315
853.471069,315
853.588928,323
853.706604,312
853.824402,320
853.9422,319
854.059998,318
854.177734,312
854.295532,313
854.413269,324
854.531006,312
854.648804,314
854.766541,310
854.884277,309
855.002014,315
855.119751,327
855.237549,325
855.355225,305
855.473022,313
855.590698,309
855.708435,320
855.826172,316
855.943848,319
856.061646,313
856.179321,312
856.296997,312
856.414795,320
856.53241,325
856.650085,334
856.767822,320
856.885559,321
857.003174,330
857.120911,325
857.238586,317
857.356201,313
857.473938,320
857.591614,322
857.709351,317
857.826965,311
857.944641,304
858.062317,333
858.179993,319
858.297668,299
858.415283,322
858.532959,320
858.650574,320
858.768188,315
858.885803,313
859.003479,318
859.121094,314
859.23877,311
859.356384,309
859.473999,333
859.591675,325
859.709229,317
859.826843,314
859.944458,315
860.062012,320
860.179626,323
860.297302,309
860.414856,333
860.532471,321
860.650024,328
860.767639,326
860.885193,321
861.002808,327
861.120361,326
861.237976,320
861.35553,325
861.473022,311
861.590698,327
861.708191,316
861.825745,304
861.943298,316
862.060852,316
862.178406,315
862.295959,320
862.413513,307
862.531006,315
862.64856,319
862.766113,321
862.883667,313
863.00116,311
863.118713,325
863.236206,312
863.353699,315
863.471252,313
863.588745,311
863.706177,320
863.82373,316
863.941162,309
864.058716,310
864.176208,314
864.29364,305
864.411194,322
864.528687,308
864.646118,318
864.763611,319
864.881042,327
864.998535,306
865.116028,325
865.233459,311
865.350891,315
865.468384,321
865.585754,323
865.703308,307
865.820679,321
865.938171,312
866.055542,322
866.173035,313
866.290466,323
866.407837,322
866.52533,327
866.6427,326
866.760071,327
866.877563,317
866.994934,325
867.112305,321
867.229736,313
867.347107,320
867.464539,319
867.58197,307
867.699341,317
867.81665,319
867.934082,316
868.051453,319
868.168823,321
868.286194,314
868.403564,315
868.520935,315
868.638306,324
868.755676,321
868.872986,318
868.990295,315
869.107727,309
869.225037,323
869.342346,303
869.459717,316
869.577026,309
869.694336,314
869.811707,310
869.929016,304
870.046326,329
870.163635,308
870.280945,313
870.398254,315
870.515564,328
870.632812,317
870.750183,321
870.867432,313
870.984741,322
871.102051,308
871.219299,318
871.336609,304
871.453918,319
871.571106,324
871.688416,308
871.805664,303
871.922852,316
872.040222,323
872.157471,319
872.274719,303
872.391968,321
872.509155,316
872.626465,320
872.743652,312
872.860962,317
872.978149,331
873.095337,318
873.212646,309
873.329834,315
873.44696,320
873.564209,330
873.681396,299
873.798645,324
873.915894,311
874.03302,298
874.150208,303
874.267456,312
874.384583,311
874.501831,322
874.618958,309
874.736145,314
874.853333,318
874.970459,315
875.087646,308
875.204834,326
875.32196,314
875.439148,306
875.556274,317
875.673401,322
875.790527,314
875.907715,329
876.024841,318
876.141968,322
876.259094,310
876.376282,320
876.493347,312
876.610474,324
876.7276,301
876.844727,329
876.961853,316
877.078918,327
877.195984,328
877.313171,321
877.430237,318
877.547302,328
877.664368,304
877.781433,319
877.898499,299
878.015625,321
878.13269,325
878.249695,328
878.366821,317
878.483887,314
878.600952,316
878.717957,320
878.834961,334
878.952087,319
879.069092,306
879.186157,308
879.303162,306
879.420227,297
879.537231,317
879.654236,331
879.77124,323
879.888306,321
880.005249,316
880.122314,331
880.239319,330
880.356323,317
880.473328,311
880.590271,316
880.707275,313
880.824341,307
880.941284,325
881.058228,325
881.175232,304
881.292236,320
881.40918,308
881.526123,328
881.643066,316
881.760071,319
881.877014,316
881.993958,313
882.11084,309
882.227783,312
882.344727,301
882.46167,330
882.578613,307
882.695618,304
882.812439,319
882.929382,332
883.046326,328
883.163208,320
883.280151,309
883.397034,312
883.513916,315
883.630798,323
883.747742,309
883.864563,315
883.981506,309
884.098389,320
884.21521,309
884.332153,307
884.448975,318
884.565796,304
884.682678,314
884.7995,309
884.916443,313
885.033264,312
885.150085,308
885.266968,327
885.383789,308
885.500671,314
885.617493,324
885.734314,314
885.851196,307
885.967896,323
886.084717,317
886.201599,326
886.318359,322
886.435181,316
886.552002,320
886.668762,319
886.785645,310
886.902344,316
887.019165,320
887.135925,321
887.252747,301
887.369446,316
887.486267,309
887.603027,333
887.719788,314
887.836548,324
887.953247,327
888.070068,316
888.186829,312
888.303528,320
888.420288,317
888.536987,318
888.653687,305
888.770447,326
888.887146,325
889.003967,323
889.120667,327
889.237305,325
889.354065,326
889.470703,322
889.587463,312
889.704163,319
889.820862,307
889.937561,320
890.054199,316
890.170837,325
890.287598,313
890.404236,336
890.520874,328
890.637634,318
890.754211,319
890.87085,317
890.987549,300
891.104187,314
891.220886,318
891.337463,313
891.454102,316
891.57074,318
891.687378,319
891.804077,320
891.920654,314
892.037231,315
892.15387,320
892.270447,316
892.387085,318
892.503723,326
892.6203,316
892.736877,318
892.853516,321
892.970032,321
893.08667,312
893.203186,317
893.319763,299
893.43634,319
893.552917,322
893.669556,303
893.786011,309
893.902588,320
894.019165,311
894.135681,324
894.252197,328
894.368835,318
894.485291,311
894.601868,317
894.718384,321
894.8349,321
894.951355,335
895.067932,328
895.184448,316
895.300964,331
895.417419,303
895.533936,317
895.650452,310
895.766907,324
895.883423,319
895.999878,318
896.116333,319
896.232849,324
896.349304,322
896.465759,332
896.582214,313
896.698669,323
896.815125,317
896.931641,325
897.048035,320
897.164551,313
897.280884,310
897.397339,328
897.513794,312
897.630249,325
897.746582,319
897.863098,318
897.979431,321
898.095886,323
898.212341,307
898.328674,310
898.445129,318
898.561462,319
898.677795,311
898.794312,326
898.910645,306
899.026978,320
899.143433,313
899.259766,327
899.37616,319
899.492493,318
899.608765,314
899.725159,332
899.841553,314
899.957947,326
900.07428,309
900.190552,317
900.306946,315
900.423157,334
900.53949,319
900.655884,326
900.772156,320
900.888489,328
901.004822,327
901.121033,311
901.237366,299
901.353699,327
901.46991,307
901.586304,317
901.702515,335
901.818787,330
901.93512,313
902.051331,318
902.167603,323
902.283875,312
902.400085,307
902.516418,324
902.632629,335
902.74884,317
902.865112,321
902.981384,314
903.097595,323
903.213867,323
903.330017,319
903.446289,321
903.5625,314
903.67865,330
903.794922,317
903.911072,327
904.027344,309
904.143494,324
904.259705,315
904.375916,312
904.492065,318
904.608215,317
904.724426,318
904.840576,318
904.956726,306
905.072876,330
905.189087,325
905.305176,312
905.421387,311
905.537537,316
905.653687,315
905.769775,321
905.885925,311
906.002014,313
906.118164,303
906.234314,322
906.350403,317
906.466492,318
906.582642,307
906.69873,325
906.814758,311
906.930908,321
907.046936,312
907.163086,327
907.279175,326
907.395264,331
907.511353,312
907.62738,319
907.743408,327
907.859497,310
907.975525,328
908.091553,326
908.207703,330
908.32373,318
908.439758,306
908.555786,327
908.671814,320
908.787842,306
908.90387,308
909.019775,311
909.135864,312
909.251892,308
909.367859,310
909.483826,329
909.599854,323
909.715881,331
909.831848,320
909.947815,313
910.063782,306
910.179749,315
910.295776,312
910.411743,314
910.527649,301
910.643616,315
910.759583,307
910.875488,320
910.991455,326
911.107361,317
911.223267,300
911.339294,320
911.4552,310
911.571106,316
911.687073,323
911.802979,316
911.918823,315
912.034729,334
912.150635,316
912.266602,328
912.382446,315
912.498352,326
912.614197,315
912.730103,305
912.846008,315
