792.44574,351
792.56488,374
792.68396,427
792.80304,401
792.92218,362
793.041199,356
793.160339,337
793.279419,362
793.398499,363
793.517578,337
793.636658,348
793.755737,349
793.874817,376
793.993896,355
794.112976,356
794.232056,359
794.351074,338
794.470215,340
794.589233,358
794.708313,324
794.827393,347
794.946411,364
795.065552,347
795.18457,361
795.303589,339
795.422668,337
795.541687,352
795.660767,353
795.779846,343
795.898865,327
796.017883,352
796.136963,336
796.255981,346
796.375061,337
796.49408,342
796.613037,337
796.732117,327
796.851135,333
796.970154,349
797.089233,339
797.208191,348
797.327271,338
797.446228,326
797.565186,344
797.684265,338
797.803223,337
797.922241,340
798.04126,342
798.160278,338
798.279297,326
798.398315,327
798.517273,346
798.636292,327
798.75531,333
798.874268,313
798.993286,341
799.112244,326
799.231323,333
799.350281,340
799.469238,342
799.588257,341
799.707153,320
799.826111,336
799.945129,331
800.064087,331
800.183044,335
800.302063,332
800.421021,315
800.539978,328
800.658936,332
800.777893,342
800.896912,334
801.015747,335
801.134705,331
801.253723,335
801.37262,331
801.491638,329
801.610535,330
801.729492,330
801.84845,337
801.967407,350
802.086243,310
802.205261,326
802.324158,326
802.443115,335
802.562073,342
802.680969,332
802.799927,351
802.918762,343
803.037659,333
803.156677,323
803.275574,328
803.39447,336
803.513428,340
803.632263,324
803.751221,348
803.870117,324
803.989014,331
804.107971,342
804.226746,330
804.345642,336
804.4646,332
804.583496,337
804.702393,327
804.821228,336
804.940125,336
805.059021,327
805.177917,326
805.296814,335
805.415649,323
805.534546,335
805.653442,319
805.772278,331
805.891113,320
806.01001,336
806.128906,321
806.247742,329
806.366577,320
806.485413,327
806.604309,330
806.723145,321
806.84198,319
806.960876,327
807.079712,333
807.198486,310
807.317383,335
807.436218,342
807.554993,329
807.673889,333
807.792725,327
807.91156,326
808.030396,321
808.14917,338
808.268005,322
808.386841,341
808.505676,329
808.624451,330
808.743286,318
808.862122,332
808.980896,320
809.099731,332
809.218506,332
809.337341,309
809.456116,340
809.57489,322
809.693726,334
809.8125,314
809.931274,325
810.050049,348
810.168884,328
810.287659,338
810.406372,338
810.525269,338
810.643982,328
810.762756,337
810.881531,337
811.000305,343
811.11908,325
811.237854,335
811.356567,309
811.475403,333
811.594116,322
811.71283,338
811.831604,318
811.950378,335
812.069153,328
812.187927,336
812.30658,321
812.425415,325
812.544128,320
812.662781,313
812.781616,331
812.900269,328
813.019043,336
813.137756,326
813.256531,337
813.375244,342
813.493896,332
813.612671,335
813.731384,326
813.850037,333
813.96875,318
814.087524,329
814.206238,332
814.324951,319
814.443604,326
814.562256,335
814.68103,319
814.799683,341
814.918335,319
815.037109,340
815.155762,326
815.274475,341
815.393188,328
815.511841,329
815.630554,334
815.749146,340
815.867859,320
815.986572,334
816.105164,340
816.223877,322
816.342529,326
816.461182,317
816.579895,336
816.698486,325
816.817139,332
816.935791,331
817.054504,317
817.173096,325
817.291748,325
817.4104,327
817.529053,323
817.647644,323
817.766235,309
817.884949,329
818.00354,331
818.122192,325
818.240845,332
818.359436,325
818.478088,318
818.59668,312
818.715271,326
818.833923,325
818.952515,318
819.071106,322
819.189758,329
819.30835,322
819.426941,331
819.545532,323
819.664124,315
819.782715,339
819.901306,317
820.019897,323
820.138489,319
820.25708,322
820.375671,319
820.494202,327
820.612732,316
820.731384,328
820.849915,332
820.968506,314
821.087097,314
821.205627,325
821.324158,319
821.442749,318
821.561279,314
821.679871,317
821.798401,328
821.916931,325
822.035461,312
822.154053,323
822.272583,305
822.391174,321
822.509583,320
822.628174,324
822.746704,324
822.865234,311
822.983765,314
823.102295,322
823.220825,329
823.339294,328
823.457825,312
823.576355,317
823.694824,325
823.813354,316
823.931885,317
824.050354,322
824.168884,310
824.287354,308
824.405823,305
824.524353,317
824.642822,323
824.761353,308
824.879822,323
824.998291,326
825.116699,315
825.235291,329
825.353699,316
825.472168,322
825.590637,312
825.709106,321
825.827576,311
825.946045,332
826.064453,322
826.182983,317
826.301392,323
826.4198,319
826.53833,320
826.656738,314
826.775208,323
826.893677,323
827.012024,318
827.130493,320
827.248962,311
827.36731,317
827.485779,312
827.604248,315
827.722595,322
827.841064,318
827.959412,320
828.077942,316
828.196289,329
828.314636,310
828.433105,328
828.551514,325
828.669861,321
828.78833,321
828.906677,326
829.025085,326
829.143433,329
829.261841,309
829.38031,320
829.498657,327
829.617004,305
829.735413,328
829.85376,324
829.972107,319
830.090515,317
830.208862,321
830.327209,314
830.445557,319
830.563904,333
830.682312,318
830.800659,318
830.919006,326
831.037354,323
831.155701,327
831.274048,323
831.392395,315
831.51062,311
831.629028,324
831.747314,309
831.865662,324
831.984009,307
832.102356,316
832.220642,306
832.338928,323
832.457275,315
832.575623,317
832.693909,313
832.812134,316
832.930481,321
833.048828,337
833.167114,303
833.2854,321
833.403687,310
833.521973,308
833.640259,319
833.758545,323
833.876831,317
833.995056,322
834.113281,316
834.231628,333
834.349915,306
834.468201,327
834.586426,317
834.704651,320
834.822998,310
834.941162,323
835.059448,325
835.177673,322
835.295959,312
835.414246,328
835.53241,312
835.650635,315
835.768921,335
835.887146,313
836.005371,315
836.123596,313
836.241821,316
836.360046,323
836.478271,308
836.596497,325
836.714722,326
836.832886,327
836.95105,319
837.069336,320
837.1875,326
837.305725,327
837.423889,319
837.542053,325
837.660339,327
837.778503,324
837.896667,315
838.014832,330
838.132996,307
838.25116,331
838.369385,316
838.487488,309
838.605713,317
838.723877,330
838.84198,320
838.960205,318
839.078308,310
839.196472,324
839.314636,322
839.4328,323
839.550964,317
839.669067,325
839.787231,319
839.905396,323
840.023499,312
840.141602,312
840.259766,320
840.377869,329
840.495972,321
840.614136,323
840.732239,316
840.850342,323
840.968445,322
841.086548,315
841.204651,330
841.322754,328
841.440918,301
841.55896,317
841.677002,338
841.795166,325
841.913208,321
842.031311,323
842.149353,304
842.267456,329
842.385498,327
842.503601,322
842.621643,320
842.739746,322
842.857788,307
842.97583,313
843.093933,319
843.211975,325
843.330017,316
843.44812,318
843.566101,323
843.684204,310
843.802246,326
843.920227,330
844.038269,321
844.156311,323
844.274292,315
844.392395,334
844.510376,318
844.628357,321
844.74646,321
844.864441,314
844.982422,325
845.100403,321
845.218384,313
845.336426,326
845.454468,308
845.572449,320
845.69043,314
845.808411,329
845.926453,313
846.044373,317
846.162354,315
846.280396,326
846.398315,318
846.516296,340
846.634216,326
846.752197,319
846.870178,312
846.988098,329
847.106079,320
847.22406,326
847.34198,320
847.4599,324
847.577881,322
847.695801,315
847.813782,313
847.931641,328
848.049561,314
848.167603,313
848.285461,327
848.403381,315
848.521362,329
848.639221,310
848.75708,313
848.875,317
848.99292,320
849.110901,326
849.22876,318
849.34668,318
849.464539,315
849.582458,330
849.700317,309
849.818176,317
849.936096,329
850.053955,315
850.171875,310
850.289673,324
850.407593,320
850.525452,321
850.643311,319
850.761169,320
850.878967,319
850.996887,308
851.114746,312
851.232544,328
851.350403,327
851.468262,317
851.58606,324
851.703979,327
851.821777,318
851.939636,330
852.057434,315
852.175232,327
852.293091,311
852.410889,324
852.528687,306
852.646545,316
852.764343,323
852.88208,323
852.999939,318
853.117676,316
853.235535,324
853.353271,327
853.471069,310
853.588928,317
853.706604,313
853.824402,330
853.9422,318
854.059998,328
854.177734,324
854.295532,331
854.413269,318
854.531006,322
854.648804,320
854.766541,322
854.884277,322
855.002014,316
855.119751,328
855.237549,317
855.355225,327
855.473022,330
855.590698,328
855.708435,324
855.826172,329
855.943848,333
856.061646,310
856.179321,331
856.296997,316
856.414795,325
856.53241,310
856.650085,314
856.767822,323
856.885559,336
857.003174,322
857.120911,324
857.238586,321
857.356201,328
857.473938,320
857.591614,326
857.709351,313
857.826965,302
857.944641,315
858.062317,314
858.179993,312
858.297668,320
858.415283,313
858.532959,324
858.650574,317
858.768188,313
858.885803,331
859.003479,329
859.121094,331
859.23877,322
859.356384,321
859.473999,336
859.591675,301
859.709229,319
859.826843,318
859.944458,328
860.062012,312
860.179626,326
860.297302,329
860.414856,323
860.532471,320
860.650024,332
860.767639,315
860.885193,314
861.002808,308
861.120361,332
861.237976,317
861.35553,321
861.473022,317
861.590698,315
861.708191,327
861.825745,326
861.943298,307
862.060852,324
862.178406,314
862.295959,315
862.413513,320
862.531006,316
862.64856,314
862.766113,320
862.883667,316
863.00116,331
863.118713,309
863.236206,334
863.353699,303
863.471252,341
863.588745,314
863.706177,314
863.82373,330
863.941162,314
864.058716,326
864.176208,318
864.29364,317
864.411194,325
864.528687,290
864.646118,324
864.763611,307
864.881042,322
864.998535,316
865.116028,319
865.233459,313
865.350891,314
865.468384,316
865.585754,315
865.703308,308
865.820679,315
865.938171,322
866.055542,316
866.173035,326
866.290466,328
866.407837,312
866.52533,338
866.6427,312
866.760071,320
866.877563,306
866.994934,314
867.112305,330
867.229736,322
867.347107,319
867.464539,316
867.58197,308
867.699341,326
867.81665,313
867.934082,321
868.051453,318
868.168823,317
868.286194,321
868.403564,337
868.520935,328
868.638306,319
868.755676,315
868.872986,332
868.990295,321
869.107727,315
869.225037,307
869.342346,330
869.459717,315
869.577026,301
869.694336,318
869.811707,319
869.929016,320
870.046326,323
870.163635,328
870.280945,323
870.398254,326
870.515564,344
870.632812,323
870.750183,312
870.867432,313
870.984741,313
871.102051,316
871.219299,325
871.336609,305
871.453918,328
871.571106,329
871.688416,325
871.805664,309
871.922852,325
872.040222,320
872.157471,318
872.274719,327
872.391968,311
872.509155,319
872.626465,323
872.743652,327
872.860962,330
872.978149,316
873.095337,320
873.212646,304
873.329834,323
873.44696,327
873.564209,312
873.681396,315
873.798645,331
873.915894,327
874.03302,327
874.150208,334
874.267456,321
874.384583,324
874.501831,334
874.618958,326
874.736145,325
874.853333,315
874.970459,312
875.087646,328
875.204834,323
875.32196,320
875.439148,323
875.556274,317
875.673401,330
875.790527,311
875.907715,331
876.024841,307
876.141968,324
876.259094,320
876.376282,322
876.493347,304
876.610474,331
876.7276,300
876.844727,308
876.961853,317
877.078918,331
877.195984,317
877.313171,319
877.430237,315
877.547302,324
877.664368,326
877.781433,311
877.898499,318
878.015625,321
878.13269,316
878.249695,315
878.366821,326
878.483887,336
878.600952,323
878.717957,320
878.834961,317
878.952087,327
879.069092,317
879.186157,321
879.303162,304
879.420227,322
879.537231,316
879.654236,311
879.77124,316
879.888306,328
880.005249,305
880.122314,318
880.239319,321
880.356323,326
880.473328,316
880.590271,316
880.707275,316
880.824341,312
880.941284,299
881.058228,329
881.175232,310
881.292236,311
881.40918,311
881.526123,303
881.643066,319
881.760071,321
881.877014,312
881.993958,318
882.11084,315
882.227783,314
882.344727,305
882.46167,330
882.578613,317
882.695618,318
882.812439,315
882.929382,322
883.046326,307
883.163208,323
883.280151,318
883.397034,334
883.513916,316
883.630798,312
883.747742,317
883.864563,315
883.981506,324
884.098389,325
884.21521,318
884.332153,330
884.448975,310
884.565796,325
884.682678,322
884.7995,330
884.916443,312
885.033264,318
885.150085,335
885.266968,333
885.383789,337
885.500671,327
885.617493,324
885.734314,332
885.851196,322
885.967896,331
886.084717,319
886.201599,326
886.318359,319
886.435181,319
886.552002,309
886.668762,325
886.785645,320
886.902344,324
887.019165,327
887.135925,321
887.252747,323
887.369446,330
887.486267,327
887.603027,333
887.719788,313
887.836548,322
887.953247,309
888.070068,325
888.186829,316
888.303528,313
888.420288,320
888.536987,323
888.653687,318
888.770447,323
888.887146,317
889.003967,317
889.120667,320
889.237305,320
889.354065,323
889.470703,316
889.587463,315
889.704163,328
889.820862,321
889.937561,322
890.054199,308
890.170837,321
890.287598,314
890.404236,325
890.520874,318
890.637634,330
890.754211,315
890.87085,311
890.987549,317
891.104187,320
891.220886,310
891.337463,331
891.454102,322
891.57074,333
891.687378,305
891.804077,326
891.920654,327
892.037231,320
892.15387,322
892.270447,324
892.387085,317
892.503723,323
892.6203,303
892.736877,309
892.853516,320
892.970032,314
893.08667,305
893.203186,315
893.319763,315
893.43634,320
893.552917,304
893.669556,307
893.786011,314
893.902588,321
894.019165,313
894.135681,314
894.252197,316
894.368835,315
894.485291,315
894.601868,316
894.718384,313
894.8349,323
894.951355,299
895.067932,322
895.184448,308
895.300964,313
895.417419,309
895.533936,317
895.650452,322
895.766907,307
895.883423,306
895.999878,338
896.116333,315
896.232849,316
896.349304,310
896.465759,311
896.582214,311
896.698669,322
896.815125,317
896.931641,324
897.048035,308
897.164551,331
897.280884,324
897.397339,317
897.513794,304
897.630249,318
897.746582,317
897.863098,326
897.979431,324
898.095886,313
898.212341,309
898.328674,326
898.445129,310
898.561462,319
898.677795,326
898.794312,311
898.910645,326
899.026978,324
899.143433,326
899.259766,317
899.37616,309
899.492493,330
899.608765,308
899.725159,307
899.841553,312
899.957947,307
900.07428,306
900.190552,320
900.306946,320
900.423157,322
900.53949,308
900.655884,324
900.772156,307
900.888489,318
901.004822,321
901.121033,324
901.237366,322
901.353699,311
901.46991,314
901.586304,322
901.702515,310
901.818787,320
901.93512,310
902.051331,320
902.167603,314
902.283875,328
902.400085,321
902.516418,328
902.632629,321
902.74884,316
902.865112,312
902.981384,327
903.097595,313
903.213867,322
903.330017,329
903.446289,333
903.5625,307
903.67865,327
903.794922,314
903.911072,315
904.027344,312
904.143494,339
904.259705,325
904.375916,322
904.492065,322
904.608215,303
904.724426,312
904.840576,320
904.956726,327
905.072876,314
905.189087,306
905.305176,336
905.421387,313
905.537537,321
905.653687,306
905.769775,316
905.885925,305
906.002014,318
906.118164,313
906.234314,318
906.350403,319
906.466492,329
906.582642,305
906.69873,322
906.814758,306
906.930908,314
907.046936,318
907.163086,319
907.279175,316
907.395264,325
907.511353,315
907.62738,322
907.743408,320
907.859497,314
907.975525,307
908.091553,319
908.207703,311
908.32373,325
908.439758,315
908.555786,317
908.671814,318
908.787842,330
908.90387,335
909.019775,314
909.135864,321
909.251892,314
909.367859,309
909.483826,319
909.599854,317
909.715881,318
909.831848,324
909.947815,314
910.063782,312
910.179749,322
910.295776,318
910.411743,309
910.527649,316
910.643616,310
910.759583,307
910.875488,318
910.991455,314
911.107361,319
911.223267,320
911.339294,322
911.4552,306
911.571106,317
911.687073,313
911.802979,306
911.918823,315
912.034729,321
912.150635,317
912.266602,319
912.382446,303
912.498352,326
912.614197,287
912.730103,312
912.846008,311
792.44574,342
792.56488,389
792.68396,436
792.80304,413
792.92218,365
793.041199,337
793.160339,351
793.279419,366
793.398499,367
793.517578,331
793.636658,363
793.755737,347
793.874817,384
793.993896,358
794.112976,356
794.232056,357
794.351074,331
794.470215,350
794.589233,354
794.708313,342
794.827393,341
794.946411,361
795.065552,358
795.18457,352
795.303589,343
795.422668,344
795.541687,341
795.660767,346
795.779846,331
795.898865,336
796.017883,334
796.136963,344
796.255981,341
796.375061,330
796.49408,350
796.613037,345
796.732117,348
796.851135,330
796.970154,350
797.089233,319
797.208191,341
797.327271,332
797.446228,333
797.565186,345
797.684265,338
797.803223,339
797.922241,337
798.04126,336
798.160278,347
798.279297,322
798.398315,338
798.517273,332
798.636292,336
798.75531,344
798.874268,338
798.993286,326
799.112244,337
799.231323,328
799.350281,341
799.469238,341
799.588257,344
799.707153,334
799.826111,335
799.945129,342
800.064087,334
800.183044,342
800.302063,321
800.421021,321
800.539978,327
800.658936,331
800.777893,334
800.896912,328
801.015747,324
801.134705,325
801.253723,336
801.37262,330
801.491638,326
801.610535,325
801.729492,339
801.84845,337
801.967407,334
802.086243,333
802.205261,337
802.324158,340
802.443115,331
802.562073,321
802.680969,332
802.799927,333
802.918762,341
803.037659,329
803.156677,339
803.275574,341
803.39447,334
803.513428,336
803.632263,331
803.751221,340
803.870117,337
803.989014,328
804.107971,328
804.226746,336
804.345642,322
804.4646,330
804.583496,337
804.702393,335
804.821228,326
804.940125,334
805.059021,340
805.177917,345
805.296814,333
805.415649,320
805.534546,345
805.653442,325
805.772278,327
805.891113,333
806.01001,343
806.128906,333
806.247742,328
806.366577,322
806.485413,328
806.604309,323
806.723145,339
806.84198,319
806.960876,343
807.079712,329
807.198486,343
807.317383,338
807.436218,334
807.554993,311
807.673889,334
807.792725,325
807.91156,329
808.030396,342
808.14917,337
808.268005,316
808.386841,332
808.505676,316
808.624451,323
808.743286,341
808.862122,322
808.980896,324
809.099731,339
809.218506,329
809.337341,340
809.456116,330
809.57489,326
809.693726,335
809.8125,318
809.931274,329
810.050049,341
810.168884,331
810.287659,322
810.406372,325
810.525269,321
810.643982,316
810.762756,320
810.881531,335
811.000305,335
811.11908,337
811.237854,330
811.356567,325
811.475403,341
811.594116,340
811.71283,337
811.831604,333
811.950378,326
812.069153,339
812.187927,336
812.30658,327
812.425415,339
812.544128,322
812.662781,342
812.781616,326
812.900269,345
813.019043,305
813.137756,334
813.256531,332
813.375244,328
813.493896,343
813.612671,336
813.731384,324
813.850037,329
813.96875,332
814.087524,326
814.206238,325
814.324951,332
814.443604,323
814.562256,336
814.68103,322
814.799683,344
814.918335,318
815.037109,340
815.155762,320
815.274475,312
815.393188,339
815.511841,326
815.630554,320
815.749146,335
815.867859,333
815.986572,332
816.105164,326
816.223877,328
816.342529,311
816.461182,341
816.579895,327
816.698486,330
816.817139,323
816.935791,325
817.054504,338
817.173096,340
817.291748,320
817.4104,328
817.529053,338
817.647644,343
817.766235,337
817.884949,325
818.00354,324
818.122192,322
818.240845,324
818.359436,325
818.478088,328
818.59668,335
818.715271,320
818.833923,321
818.952515,324
819.071106,330
819.189758,319
819.30835,323
819.426941,324
819.545532,338
819.664124,317
819.782715,323
819.901306,329
820.019897,322
820.138489,320
820.25708,319
820.375671,334
820.494202,318
820.612732,314
820.731384,307
820.849915,311
820.968506,315
821.087097,318
821.205627,316
821.324158,304
821.442749,314
821.561279,328
821.679871,319
821.798401,313
821.916931,325
822.035461,309
822.154053,337
822.272583,307
822.391174,306
822.509583,325
822.628174,330
822.746704,340
822.865234,315
822.983765,330
823.102295,323
823.220825,309
823.339294,326
823.457825,330
823.576355,311
823.694824,327
823.813354,313
823.931885,319
824.050354,334
824.168884,317
824.287354,317
824.405823,327
824.524353,329
824.642822,316
824.761353,332
824.879822,320
824.998291,308
825.116699,321
825.235291,315
825.353699,318
825.472168,325
825.590637,315
825.709106,302
825.827576,319
825.946045,329
826.064453,306
826.182983,332
826.301392,309
826.4198,325
826.53833,321
826.656738,327
826.775208,314
826.893677,320
827.012024,305
827.130493,306
827.248962,313
827.36731,309
827.485779,316
827.604248,318
827.722595,316
827.841064,322
827.959412,301
828.077942,321
828.196289,314
828.314636,325
828.433105,325
828.551514,313
828.669861,320
828.78833,316
828.906677,315
829.025085,318
829.143433,333
829.261841,324
829.38031,328
829.498657,323
829.617004,315
829.735413,317
829.85376,315
829.972107,335
830.090515,308
830.208862,333
830.327209,309
830.445557,321
830.563904,298
830.682312,331
830.800659,312
830.919006,321
831.037354,315
831.155701,330
831.274048,317
831.392395,315
831.51062,313
831.629028,319
831.747314,310
831.865662,319
831.984009,323
832.102356,308
832.220642,312
832.338928,315
832.457275,322
832.575623,319
832.693909,307
832.812134,322
832.930481,310
833.048828,312
833.167114,318
833.2854,321
833.403687,313
833.521973,317
833.640259,326
833.758545,322
833.876831,320
833.995056,315
834.113281,316
834.231628,324
834.349915,301
834.468201,319
834.586426,307
834.704651,327
834.822998,310
834.941162,322
835.059448,324
835.177673,320
835.295959,316
835.414246,319
835.53241,306
835.650635,320
835.768921,298
835.887146,316
836.005371,317
836.123596,306
836.241821,321
836.360046,324
836.478271,305
836.596497,319
836.714722,317
836.832886,323
836.95105,317
837.069336,303
837.1875,331
837.305725,324
837.423889,319
837.542053,319
837.660339,333
837.778503,319
837.896667,327
838.014832,317
838.132996,320
838.25116,316
838.369385,325
838.487488,317
838.605713,314
838.723877,317
838.84198,321
838.960205,316
839.078308,309
839.196472,334
839.314636,322
839.4328,319
839.550964,321
839.669067,325
839.787231,318
839.905396,318
840.023499,311
840.141602,331
840.259766,313
840.377869,332
840.495972,320
840.614136,320
840.732239,308
840.850342,338
840.968445,320
841.086548,318
841.204651,326
841.322754,324
841.440918,318
841.55896,325
841.677002,330
841.795166,320
841.913208,331
842.031311,321
842.149353,314
842.267456,309
842.385498,316
842.503601,319
842.621643,332
842.739746,324
842.857788,309
842.97583,327
843.093933,327
843.211975,325
843.330017,332
843.44812,334
843.566101,306
843.684204,322
843.802246,303
843.920227,340
844.038269,313
844.156311,328
844.274292,319
844.392395,312
844.510376,325
844.628357,318
844.74646,318
844.864441,319
844.982422,318
845.100403,318
845.218384,317
845.336426,322
845.454468,319
845.572449,318
845.69043,305
845.808411,326
845.926453,311
846.044373,315
846.162354,313
846.280396,312
846.398315,306
846.516296,327
846.634216,326
846.752197,323
846.870178,312
846.988098,327
847.106079,324
847.22406,343
847.34198,323
847.4599,310
847.577881,323
847.695801,318
847.813782,331
847.931641,340
848.049561,311
848.167603,321
848.285461,319
848.403381,308
848.521362,320
848.639221,314
848.75708,316
848.875,309
848.99292,325
849.110901,306
849.22876,316
849.34668,319
849.464539,318
849.582458,323
849.700317,325
849.818176,327
849.936096,314
850.053955,326
850.171875,322
850.289673,324
850.407593,310
850.525452,312
850.643311,319
850.761169,320
850.878967,311
850.996887,322
851.114746,322
851.232544,329
851.350403,325
851.468262,331
851.58606,314
851.703979,323
851.821777,312
851.939636,333
852.057434,313
852.175232,305
852.293091,311
852.410889,317
852.528687,330
852.646545,317
852.764343,324
852.88208,319
852.999939,311
853.117676,328
853.235535,317
853.353271,324
853.471069,322
853.588928,330
853.706604,319
853.824402,319
853.9422,321
854.059998,322
854.177734,317
854.295532,322
854.413269,316
854.531006,321
854.648804,315
854.766541,313
854.884277,325
855.002014,331
855.119751,314
855.237549,321
855.355225,326
855.473022,314
855.590698,317
855.708435,327
855.826172,307
855.943848,325
856.061646,307
856.179321,318
856.296997,316
856.414795,318
856.53241,323
856.650085,317
856.767822,314
856.885559,321
857.003174,317
857.120911,336
857.238586,330
857.356201,327
857.473938,312
857.591614,325
857.709351,319
857.826965,319
857.944641,316
858.062317,328
858.179993,322
858.297668,328
858.415283,346
858.532959,333
858.650574,312
858.768188,329
858.885803,322
859.003479,333
859.121094,312
859.23877,316
859.356384,320
859.473999,327
859.591675,333
859.709229,314
859.826843,321
859.944458,313
860.062012,325
860.179626,322
860.297302,317
860.414856,321
860.532471,319
860.650024,319
860.767639,314
860.885193,316
861.002808,322
861.120361,314
861.237976,316
861.35553,311
861.473022,314
861.590698,315
861.708191,316
861.825745,336
861.943298,315
862.060852,314
862.178406,325
862.295959,316
862.413513,314
862.531006,316
862.64856,312
862.766113,323
862.883667,310
863.00116,327
863.118713,320
863.236206,325
863.353699,321
863.471252,320
863.588745,322
863.706177,325
863.82373,320
863.941162,309
864.058716,322
864.176208,339
864.29364,329
864.411194,316
864.528687,310
864.646118,311
864.763611,301
864.881042,313
864.998535,317
865.116028,307
865.233459,319
865.350891,316
865.468384,312
865.585754,311
865.703308,320
865.820679,325
865.938171,311
866.055542,320
866.173035,313
866.290466,310
866.407837,316
866.52533,326
866.6427,319
866.760071,322
866.877563,317
866.994934,321
867.112305,318
867.229736,340
867.347107,326
867.464539,305
867.58197,318
867.699341,318
867.81665,324
867.934082,330
868.051453,320
868.168823,316
868.286194,304
868.403564,328
868.520935,314
868.638306,323
868.755676,316
868.872986,330
868.990295,314
869.107727,319
869.225037,315
869.342346,319
869.459717,318
869.577026,328
869.694336,308
869.811707,330
869.929016,323
870.046326,318
870.163635,311
870.280945,315
870.398254,321
870.515564,327
870.632812,319
870.750183,325
870.867432,302
870.984741,323
871.102051,315
871.219299,324
871.336609,316
871.453918,324
871.571106,306
871.688416,317
871.805664,318
871.922852,322
872.040222,309
872.157471,323
872.274719,321
872.391968,308
872.509155,322
872.626465,333
872.743652,309
872.860962,322
872.978149,327
873.095337,309
873.212646,322
873.329834,326
873.44696,312
873.564209,327
873.681396,325
873.798645,334
873.915894,308
874.03302,325
874.150208,322
874.267456,318
874.384583,315
874.501831,321
874.618958,326
874.736145,310
874.853333,291
874.970459,316
875.087646,301
875.204834,328
875.32196,327
875.439148,332
875.556274,323
875.673401,325
875.790527,337
875.907715,326
876.024841,335
876.141968,325
876.259094,319
876.376282,326
876.493347,305
876.610474,317
876.7276,312
876.844727,324
876.961853,317
877.078918,334
877.195984,313
877.313171,308
877.430237,322
877.547302,319
877.664368,324
877.781433,322
877.898499,324
878.015625,314
878.13269,330
878.249695,322
878.366821,321
878.483887,327
878.600952,316
878.717957,325
878.834961,310
878.952087,323
879.069092,312
879.186157,348
879.303162,332
879.420227,312
879.537231,316
879.654236,314
879.77124,316
879.888306,315
880.005249,311
880.122314,322
880.239319,308
880.356323,310
880.473328,309
880.590271,327
880.707275,332
880.824341,322
880.941284,322
881.058228,313
881.175232,320
881.292236,325
881.40918,313
881.526123,321
881.643066,320
881.760071,329
881.877014,326
881.993958,328
882.11084,316
882.227783,319
882.344727,311
882.46167,329
882.578613,309
882.695618,321
882.812439,313
882.929382,322
883.046326,304
883.163208,321
883.280151,309
883.397034,324
883.513916,306
883.630798,323
883.747742,318
883.864563,325
883.981506,323
884.098389,326
884.21521,304
884.332153,318
884.448975,315
884.565796,331
884.682678,317
884.7995,324
884.916443,314
885.033264,326
885.150085,319
885.266968,329
885.383789,330
885.500671,338
885.617493,310
885.734314,324
885.851196,329
885.967896,336
886.084717,318
886.201599,314
886.318359,330
886.435181,336
886.552002,323
886.668762,338
886.785645,316
886.902344,328
887.019165,321
887.135925,319
887.252747,330
887.369446,327
887.486267,321
887.603027,321
887.719788,301
887.836548,326
887.953247,332
888.070068,330
888.186829,310
888.303528,327
888.420288,323
888.536987,310
888.653687,312
888.770447,314
888.887146,321
889.003967,313
889.120667,315
889.237305,331
889.354065,315
889.470703,335
889.587463,314
889.704163,317
889.820862,322
889.937561,321
890.054199,319
890.170837,322
890.287598,313
890.404236,308
890.520874,312
890.637634,330
890.754211,315
890.87085,315
890.987549,328
891.104187,323
891.220886,325
891.337463,311
891.454102,314
891.57074,327
891.687378,304
891.804077,332
891.920654,317
892.037231,332
892.15387,313
892.270447,342
892.387085,316
892.503723,316
892.6203,308
892.736877,322
892.853516,303
892.970032,321
893.08667,317
893.203186,323
893.319763,309
893.43634,322
893.552917,317
893.669556,324
893.786011,321
893.902588,304
894.019165,291
894.135681,320
894.252197,315
894.368835,316
894.485291,309
894.601868,327
894.718384,312
894.8349,297
894.951355,318
895.067932,329
895.184448,320
895.300964,324
895.417419,309
895.533936,313
895.650452,327
895.766907,315
895.883423,316
895.999878,313
896.116333,319
896.232849,322
896.349304,314
896.465759,321
896.582214,312
896.698669,303
896.815125,312
896.931641,322
897.048035,309
897.164551,324
897.280884,315
897.397339,323
897.513794,303
897.630249,333
897.746582,309
897.863098,325
897.979431,310
898.095886,328
898.212341,320
898.328674,314
898.445129,310
898.561462,340
898.677795,311
898.794312,325
898.910645,315
899.026978,326
899.143433,327
899.259766,324
899.37616,321
899.492493,315
899.608765,314
899.725159,314
899.841553,305
899.957947,321
900.07428,299
900.190552,303
900.306946,324
900.423157,321
900.53949,314
900.655884,315
900.772156,310
900.888489,307
901.004822,309
901.121033,310
901.237366,306
901.353699,324
901.46991,310
901.586304,318
901.702515,321
901.818787,327
901.93512,312
902.051331,317
902.167603,329
902.283875,332
902.400085,316
902.516418,322
902.632629,305
902.74884,328
902.865112,325
902.981384,333
903.097595,306
903.213867,332
903.330017,323
903.446289,324
903.5625,324
903.67865,329
903.794922,320
903.911072,321
904.027344,317
904.143494,310
904.259705,309
904.375916,318
904.492065,319
904.608215,315
904.724426,314
904.840576,316
904.956726,317
905.072876,327
905.189087,314
905.305176,320
905.421387,323
905.537537,322
905.653687,317
905.769775,326
905.885925,328
906.002014,309
906.118164,306
906.234314,332
906.350403,314
906.466492,317
906.582642,317
906.69873,324
906.814758,304
906.930908,330
907.046936,307
907.163086,329
907.279175,313
907.395264,315
907.511353,318
907.62738,313
907.743408,323
907.859497,329
907.975525,319
908.091553,323
908.207703,327
908.32373,318
908.439758,326
908.555786,320
908.671814,313
908.787842,324
908.90387,315
909.019775,328
909.135864,313
909.251892,316
909.367859,316
909.483826,324
909.599854,309
909.715881,318
909.831848,308
909.947815,320
910.063782,319
910.179749,328
910.295776,317
910.411743,329
910.527649,314
910.643616,312
910.759583,306
910.875488,320
910.991455,304
911.107361,337
911.223267,299
911.339294,327
911.4552,308
911.571106,322
911.687073,304
911.802979,322
911.918823,332
912.034729,326
912.150635,309
912.266602,316
912.382446,310
912.498352,319
912.614197,306
912.730103,328
912.846008,327
792.44574,349
792.56488,379
792.68396,414
792.80304,404
792.92218,353
793.041199,343
793.160339,354
793.279419,353
793.398499,363
793.517578,342
793.636658,348
793.755737,353
793.874817,364
793.993896,367
794.112976,353
794.232056,344
794.351074,345
794.470215,361
794.589233,349
794.708313,343
794.827393,332
794.946411,360
795.065552,344
795.18457,358
795.303589,358
795.422668,360
795.541687,348
795.660767,336
795.779846,355
795.898865,339
796.017883,355
796.136963,348
796.255981,351
796.375061,343
796.49408,362
796.613037,347
796.732117,353
796.851135,339
796.970154,336
797.089233,345
797.208191,345
797.327271,331
797.446228,335
797.565186,346
797.684265,339
797.803223,344
797.922241,344
798.04126,332
798.160278,339
798.279297,345
798.398315,341
798.517273,338
798.636292,316
798.75531,330
798.874268,324
798.993286,341
799.112244,332
799.231323,335
799.350281,341
799.469238,340
799.588257,332
799.707153,339
799.826111,329
799.945129,342
800.064087,352
800.183044,326
800.302063,332
800.421021,332
800.539978,311
800.658936,336
800.777893,339
800.896912,335
801.015747,338
801.134705,333
801.253723,327
801.37262,323
801.491638,336
801.610535,325
801.729492,333
801.84845,331
801.967407,328
802.086243,334
802.205261,333
802.324158,336
802.443115,327
802.562073,327
802.680969,339
802.799927,334
802.918762,328
803.037659,340
803.156677,326
803.275574,328
803.39447,340
803.513428,331
803.632263,328
803.751221,338
803.870117,326
803.989014,317
804.107971,332
804.226746,330
804.345642,334
804.4646,348
804.583496,310
804.702393,331
804.821228,324
804.940125,335
805.059021,326
805.177917,340
805.296814,325
805.415649,322
805.534546,334
805.653442,333
805.772278,321
805.891113,328
806.01001,325
806.128906,349
806.247742,340
806.366577,336
806.485413,316
806.604309,336
806.723145,332
806.84198,342
806.960876,331
807.079712,338
807.198486,328
807.317383,331
807.436218,333
807.554993,326
807.673889,328
807.792725,343
807.91156,322
808.030396,328
808.14917,321
808.268005,324
808.386841,324
808.505676,342
808.624451,339
808.743286,326
808.862122,324
808.980896,325
809.099731,329
809.218506,336
809.337341,334
809.456116,336
809.57489,330
809.693726,329
809.8125,322
809.931274,331
810.050049,320
810.168884,341
810.287659,335
810.406372,326
810.525269,324
810.643982,326
810.762756,322
810.881531,328
811.000305,329
811.11908,330
811.237854,327
811.356567,331
811.475403,332
811.594116,316
811.71283,322
811.831604,321
811.950378,326
812.069153,325
812.187927,331
812.30658,338
812.425415,323
812.544128,332
812.662781,335
812.781616,326
812.900269,344
813.019043,316
813.137756,326
813.256531,329
813.375244,322
813.493896,321
813.612671,334
813.731384,327
813.850037,330
813.96875,329
814.087524,332
814.206238,329
814.324951,333
814.443604,337
814.562256,320
814.68103,329
814.799683,325
814.918335,324
815.037109,326
815.155762,319
815.274475,324
815.393188,331
815.511841,338
815.630554,329
815.749146,342
815.867859,313
815.986572,330
816.105164,322
816.223877,325
816.342529,321
816.461182,338
816.579895,327
816.698486,334
816.817139,331
816.935791,318
817.054504,340
817.173096,321
817.291748,323
817.4104,328
817.529053,327
817.647644,329
817.766235,320
817.884949,326
818.00354,321
818.122192,321
818.240845,327
818.359436,328
818.478088,335
818.59668,313
818.715271,335
818.833923,319
818.952515,318
819.071106,341
819.189758,323
819.30835,317
819.426941,319
819.545532,316
819.664124,319
819.782715,314
819.901306,327
820.019897,311
820.138489,330
820.25708,320
820.375671,320
820.494202,320
820.612732,332
820.731384,326
820.849915,327
820.968506,322
821.087097,327
821.205627,335
821.324158,309
821.442749,325
821.561279,319
821.679871,314
821.798401,332
821.916931,322
822.035461,315
822.154053,315
822.272583,322
822.391174,322
822.509583,312
822.628174,325
822.746704,319
822.865234,315
822.983765,336
823.102295,321
823.220825,314
823.339294,316
823.457825,329
823.576355,318
823.694824,321
823.813354,306
823.931885,329
824.050354,326
824.168884,325
824.287354,324
824.405823,322
824.524353,323
824.642822,319
824.761353,329
824.879822,329
824.998291,325
825.116699,328
825.235291,319
825.353699,332
825.472168,323
825.590637,326
825.709106,313
825.827576,327
825.946045,326
826.064453,326
826.182983,316
826.301392,317
826.4198,329
826.53833,323
826.656738,319
826.775208,323
826.893677,322
827.012024,332
827.130493,316
827.248962,329
827.36731,316
827.485779,313
827.604248,309
827.722595,323
827.841064,310
827.959412,323
828.077942,315
828.196289,318
828.314636,320
828.433105,313
828.551514,331
828.669861,315
828.78833,319
828.906677,315
829.025085,313
829.143433,313
829.261841,312
829.38031,329
829.498657,319
829.617004,313
829.735413,328
829.85376,311
829.972107,314
830.090515,324
830.208862,316
830.327209,308
830.445557,326
830.563904,323
830.682312,321
830.800659,312
830.919006,314
831.037354,314
831.155701,315
831.274048,311
831.392395,317
831.51062,317
831.629028,326
831.747314,328
831.865662,316
831.984009,324
832.102356,306
832.220642,328
832.338928,307
832.457275,326
832.575623,306
832.693909,331
832.812134,326
832.930481,317
833.048828,311
833.167114,318
833.2854,331
833.403687,323
833.521973,321
833.640259,310
833.758545,317
833.876831,315
833.995056,339
834.113281,306
834.231628,315
834.349915,324
834.468201,326
834.586426,319
834.704651,321
834.822998,324
834.941162,316
835.059448,311
835.177673,323
835.295959,310
835.414246,315
835.53241,330
835.650635,328
835.768921,317
835.887146,305
836.005371,306
836.123596,320
836.241821,323
836.360046,319
836.478271,322
836.596497,335
836.714722,309
836.832886,320
836.95105,318
837.069336,315
837.1875,320
837.305725,318
837.423889,327
837.542053,325
837.660339,323
837.778503,323
837.896667,328
838.014832,319
838.132996,321
838.25116,322
838.369385,311
838.487488,309
838.605713,318
838.723877,324
838.84198,312
838.960205,316
839.078308,314
839.196472,319
839.314636,320
839.4328,318
839.550964,325
839.669067,323
839.787231,322
839.905396,321
840.023499,314
840.141602,326
840.259766,316
840.377869,318
840.495972,327
840.614136,310
840.732239,323
840.850342,310
840.968445,318
841.086548,313
841.204651,318
841.322754,325
841.440918,318
841.55896,310
841.677002,333
841.795166,319
841.913208,332
842.031311,315
842.149353,329
842.267456,319
842.385498,313
842.503601,336
842.621643,315
842.739746,322
842.857788,324
842.97583,316
843.093933,326
843.211975,316
843.330017,316
843.44812,313
843.566101,310
843.684204,329
843.802246,331
843.920227,326
844.038269,327
844.156311,323
844.274292,333
844.392395,316
844.510376,325
844.628357,314
844.74646,321
844.864441,308
844.982422,318
845.100403,320
845.218384,322
845.336426,318
845.454468,329
845.572449,333
845.69043,329
845.808411,314
845.926453,313
846.044373,316
846.162354,320
846.280396,312
846.398315,324
846.516296,314
846.634216,316
846.752197,316
846.870178,329
846.988098,320
847.106079,330
847.22406,343
847.34198,320
847.4599,335
847.577881,320
847.695801,321
847.813782,330
847.931641,325
848.049561,322
848.167603,317
848.285461,321
848.403381,310
848.521362,321
848.639221,331
848.75708,314
848.875,326
848.99292,331
849.110901,317
849.22876,321
849.34668,322
849.464539,322
849.582458,321
849.700317,309
849.818176,326
849.936096,316
850.053955,330
850.171875,316
850.289673,329
850.407593,324
850.525452,307
850.643311,315
850.761169,331
850.878967,311
850.996887,320
851.114746,329
851.232544,310
851.350403,328
851.468262,319
851.58606,324
851.703979,319
851.821777,329
851.939636,337
852.057434,330
852.175232,324
852.293091,318
852.410889,320
852.528687,328
852.646545,328
852.764343,329
852.88208,315
852.999939,323
853.117676,324
853.235535,340
853.353271,323
853.471069,319
853.588928,317
853.706604,321
853.824402,319
853.9422,330
854.059998,322
854.177734,322
854.295532,320
854.413269,328
854.531006,327
854.648804,320
854.766541,306
854.884277,319
855.002014,307
855.119751,330
855.237549,313
855.355225,319
855.473022,322
855.590698,327
855.708435,325
855.826172,318
855.943848,318
856.061646,326
856.179321,307
856.296997,320
856.414795,323
856.53241,315
856.650085,325
856.767822,315
856.885559,322
857.003174,333
857.120911,314
857.238586,327
857.356201,318
857.473938,320
857.591614,309
857.709351,314
857.826965,306
857.944641,323
858.062317,319
858.179993,317
858.297668,309
858.415283,320
858.532959,331
858.650574,316
858.768188,329
858.885803,323
859.003479,312
859.121094,317
859.23877,312
859.356384,314
859.473999,319
859.591675,305
859.709229,321
859.826843,326
859.944458,334
860.062012,325
860.179626,329
860.297302,318
860.414856,320
860.532471,322
860.650024,324
860.767639,313
860.885193,316
861.002808,333
861.120361,317
861.237976,312
861.35553,327
861.473022,318
861.590698,319
861.708191,317
861.825745,328
861.943298,331
862.060852,312
862.178406,328
862.295959,310
862.413513,320
862.531006,309
862.64856,330
862.766113,317
862.883667,322
863.00116,321
863.118713,328
863.236206,312
863.353699,331
863.471252,322
863.588745,303
863.706177,315
863.82373,324
863.941162,322
864.058716,314
864.176208,329
864.29364,329
864.411194,326
864.528687,318
864.646118,320
864.763611,329
864.881042,320
864.998535,325
865.116028,320
865.233459,312
865.350891,324
865.468384,337
865.585754,305
865.703308,324
865.820679,314
865.938171,322
866.055542,318
866.173035,323
866.290466,317
866.407837,310
866.52533,314
866.6427,319
866.760071,326
866.877563,325
866.994934,332
867.112305,315
867.229736,321
867.347107,314
867.464539,306
867.58197,327
867.699341,322
867.81665,318
867.934082,316
868.051453,333
868.168823,321
868.286194,312
868.403564,321
868.520935,318
868.638306,326
868.755676,332
868.872986,308
868.990295,322
869.107727,320
869.225037,327
869.342346,312
869.459717,336
869.577026,314
869.694336,312
869.811707,331
869.929016,319
870.046326,312
870.163635,323
870.280945,324
870.398254,330
870.515564,322
870.632812,314
870.750183,325
870.867432,314
870.984741,323
871.102051,315
871.219299,312
871.336609,316
871.453918,323
871.571106,323
871.688416,315
871.805664,321
871.922852,326
872.040222,334
872.157471,322
872.274719,324
872.391968,326
872.509155,326
872.626465,308
872.743652,322
872.860962,326
872.978149,321
873.095337,325
873.212646,312
873.329834,318
873.44696,311
873.564209,324
873.681396,313
873.798645,316
873.915894,332
874.03302,307
874.150208,320
874.267456,299
874.384583,318
874.501831,316
874.618958,315
874.736145,317
874.853333,335
874.970459,315
875.087646,330
875.204834,321
875.32196,316
875.439148,299
875.556274,320
875.673401,324
875.790527,330
875.907715,317
876.024841,319
876.141968,320
876.259094,337
876.376282,328
876.493347,319
876.610474,318
876.7276,322
876.844727,319
876.961853,316
877.078918,318
877.195984,315
877.313171,320
877.430237,322
877.547302,327
877.664368,322
877.781433,316
877.898499,313
878.015625,318
878.13269,315
878.249695,313
878.366821,316
878.483887,314
878.600952,326
878.717957,328
878.834961,314
878.952087,313
879.069092,328
879.186157,321
879.303162,317
879.420227,332
879.537231,328
879.654236,315
879.77124,312
879.888306,311
880.005249,307
880.122314,325
880.239319,317
880.356323,311
880.473328,304
880.590271,315
880.707275,318
880.824341,324
880.941284,331
881.058228,326
881.175232,326
881.292236,312
881.40918,317
881.526123,315
881.643066,313
881.760071,303
881.877014,320
881.993958,321
882.11084,324
882.227783,328
882.344727,319
882.46167,319
882.578613,315
882.695618,317
882.812439,311
882.929382,316
883.046326,330
883.163208,311
883.280151,323
883.397034,329
883.513916,318
883.630798,318
883.747742,327
883.864563,312
883.981506,321
884.098389,324
884.21521,321
884.332153,331
884.448975,317
884.565796,337
884.682678,332
884.7995,313
884.916443,320
885.033264,334
885.150085,324
885.266968,305
885.383789,318
885.500671,312
885.617493,319
885.734314,311
885.851196,320
885.967896,326
886.084717,316
886.201599,322
886.318359,321
886.435181,316
886.552002,336
886.668762,319
886.785645,323
886.902344,313
887.019165,322
887.135925,330
887.252747,331
887.369446,316
887.486267,325
887.603027,320
887.719788,305
887.836548,306
887.953247,319
888.070068,303
888.186829,318
888.303528,315
888.420288,324
888.536987,307
888.653687,305
888.770447,306
888.887146,323
889.003967,315
889.120667,317
889.237305,317
889.354065,317
889.470703,308
889.587463,318
889.704163,318
889.820862,315
889.937561,309
890.054199,322
890.170837,312
890.287598,330
890.404236,315
890.520874,331
890.637634,324
890.754211,319
890.87085,305
890.987549,326
891.104187,318
891.220886,312
891.337463,314
891.454102,330
891.57074,328
891.687378,305
891.804077,335
891.920654,318
892.037231,309
892.15387,321
892.270447,317
892.387085,323
892.503723,311
892.6203,303
892.736877,314
892.853516,310
892.970032,331
893.08667,314
893.203186,321
893.319763,315
893.43634,315
893.552917,326
893.669556,308
893.786011,321
893.902588,326
894.019165,320
894.135681,311
894.252197,317
894.368835,319
894.485291,317
894.601868,308
894.718384,326
894.8349,307
894.951355,322
895.067932,321
895.184448,306
895.300964,329
895.417419,319
895.533936,326
895.650452,329
895.766907,312
895.883423,313
895.999878,317
896.116333,320
896.232849,319
896.349304,329
896.465759,307
896.582214,308
896.698669,312
896.815125,314
896.931641,309
897.048035,335
897.164551,312
897.280884,305
897.397339,323
897.513794,318
897.630249,305
897.746582,317
897.863098,322
897.979431,323
898.095886,315
898.212341,323
898.328674,310
898.445129,312
898.561462,323
898.677795,317
898.794312,325
898.910645,328
899.026978,314
899.143433,323
899.259766,321
899.37616,321
899.492493,321
899.608765,318
899.725159,320
899.841553,326
899.957947,325
900.07428,312
900.190552,315
900.306946,315
900.423157,311
900.53949,324
900.655884,321
900.772156,315
900.888489,308
901.004822,315
901.121033,322
901.237366,314
901.353699,321
901.46991,317
901.586304,316
901.702515,318
901.818787,316
901.93512,309
902.051331,334
902.167603,316
902.283875,307
902.400085,327
902.516418,322
902.632629,337
902.74884,315
902.865112,324
902.981384,325
903.097595,308
903.213867,329
903.330017,320
903.446289,326
903.5625,323
903.67865,324
903.794922,320
903.911072,321
904.027344,320
904.143494,312
904.259705,313
904.375916,330
904.492065,323
904.608215,324
904.724426,305
904.840576,334
904.956726,322
905.072876,321
905.189087,326
905.305176,318
905.421387,321
905.537537,309
905.653687,330
905.769775,307
905.885925,321
906.002014,318
906.118164,319
906.234314,316
906.350403,315
906.466492,318
906.582642,317
906.69873,318
906.814758,334
906.930908,303
907.046936,317
907.163086,324
907.279175,327
907.395264,302
907.511353,316
907.62738,322
907.743408,326
907.859497,309
907.975525,315
908.091553,308
908.207703,316
908.32373,319
908.439758,327
908.555786,318
908.671814,322
908.787842,309
908.90387,321
909.019775,312
909.135864,321
909.251892,305
909.367859,320
909.483826,311
909.599854,304
909.715881,312
909.831848,322
909.947815,324
910.063782,321
910.179749,317
910.295776,317
910.411743,319
910.527649,306
910.643616,321
910.759583,318
910.875488,323
910.991455,322
911.107361,311
911.223267,307
911.339294,331
911.4552,319
911.571106,320
911.687073,317
911.802979,324
911.918823,326
912.034729,320
912.150635,317
912.266602,315
912.382446,316
912.498352,314
912.614197,324
912.730103,299
912.846008,314
