792.44574,316
792.56488,356
792.68396,401
792.80304,387
792.92218,322
793.041199,321
793.160339,327
793.279419,329
793.398499,329
793.517578,311
793.636658,319
793.755737,336
793.874817,352
793.993896,348
794.112976,330
794.232056,332
794.351074,312
794.470215,338
794.589233,341
794.708313,327
794.827393,349
794.946411,329
795.065552,336
795.18457,350
795.303589,325
795.422668,328
795.541687,333
795.660767,334
795.779846,322
795.898865,316
796.017883,334
796.136963,332
796.255981,331
796.375061,327
796.49408,331
796.613037,322
796.732117,327
796.851135,334
796.970154,330
797.089233,328
797.208191,339
797.327271,320
797.446228,345
797.565186,320
797.684265,319
797.803223,332
797.922241,332
798.04126,330
798.160278,330
798.279297,326
798.398315,324
798.517273,332
798.636292,326
798.75531,325
798.874268,325
798.993286,344
799.112244,321
799.231323,329
799.350281,321
799.469238,330
799.588257,321
799.707153,337
799.826111,336
799.945129,321
800.064087,339
800.183044,333
800.302063,335
800.421021,329
800.539978,324
800.658936,316
800.777893,332
800.896912,332
801.015747,345
801.134705,322
801.253723,320
801.37262,316
801.491638,315
801.610535,330
801.729492,332
801.84845,316
801.967407,333
802.086243,315
802.205261,335
802.324158,322
802.443115,324
802.562073,338
802.680969,343
802.799927,327
802.918762,321
803.037659,332
803.156677,333
803.275574,324
803.39447,334
803.513428,341
803.632263,345
803.751221,316
803.870117,350
803.989014,321
804.107971,337
804.226746,331
804.345642,348
804.4646,327
804.583496,326
804.702393,334
804.821228,330
804.940125,327
805.059021,334
805.177917,326
805.296814,331
805.415649,324
805.534546,323
805.653442,335
805.772278,331
805.891113,339
806.01001,335
806.128906,319
806.247742,332
806.366577,336
806.485413,336
806.604309,331
806.723145,330
806.84198,321
806.960876,330
807.079712,339
807.198486,343
807.317383,334
807.436218,309
807.554993,332
807.673889,339
807.792725,338
807.91156,324
808.030396,324
808.14917,336
808.268005,334
808.386841,323
808.505676,334
808.624451,330
808.743286,322
808.862122,326
808.980896,313
809.099731,331
809.218506,327
809.337341,331
809.456116,352
809.57489,331
809.693726,331
809.8125,319
809.931274,316
810.050049,332
810.168884,324
810.287659,338
810.406372,330
810.525269,340
810.643982,338
810.762756,325
810.881531,331
811.000305,343
811.11908,320
811.237854,342
811.356567,310
811.475403,323
811.594116,314
811.71283,333
811.831604,344
811.950378,331
812.069153,326
812.187927,339
812.30658,326
812.425415,321
812.544128,331
812.662781,325
812.781616,337
812.900269,339
813.019043,336
813.137756,325
813.256531,334
813.375244,325
813.493896,338
813.612671,318
813.731384,331
813.850037,340
813.96875,328
814.087524,333
814.206238,332
814.324951,326
814.443604,330
814.562256,333
814.68103,329
814.799683,339
814.918335,335
815.037109,324
815.155762,321
815.274475,331
815.393188,324
815.511841,330
815.630554,330
815.749146,325
815.867859,320
815.986572,318
816.105164,335
816.223877,348
816.342529,324
816.461182,341
816.579895,324
816.698486,350
816.817139,334
816.935791,333
817.054504,338
817.173096,348
817.291748,327
817.4104,334
817.529053,340
817.647644,344
817.766235,325
817.884949,335
818.00354,323
818.122192,336
818.240845,327
818.359436,330
818.478088,318
818.59668,325
818.715271,314
818.833923,321
818.952515,322
819.071106,315
819.189758,312
819.30835,329
819.426941,321
819.545532,316
819.664124,318
819.782715,325
819.901306,319
820.019897,327
820.138489,319
820.25708,312
820.375671,309
820.494202,324
820.612732,304
820.731384,339
820.849915,310
820.968506,317
821.087097,318
821.205627,317
821.324158,326
821.442749,318
821.561279,326
821.679871,321
821.798401,312
821.916931,321
822.035461,309
822.154053,324
822.272583,325
822.391174,314
822.509583,321
822.628174,313
822.746704,315
822.865234,308
822.983765,324
823.102295,307
823.220825,310
823.339294,319
823.457825,310
823.576355,322
823.694824,309
823.813354,316
823.931885,315
824.050354,310
824.168884,318
824.287354,328
824.405823,311
824.524353,329
824.642822,313
824.761353,312
824.879822,318
824.998291,319
825.116699,324
825.235291,321
825.353699,312
825.472168,326
825.590637,324
825.709106,323
825.827576,305
825.946045,311
826.064453,321
826.182983,322
826.301392,330
826.4198,327
826.53833,331
826.656738,325
826.775208,310
826.893677,320
827.012024,325
827.130493,325
827.248962,312
827.36731,311
827.485779,320
827.604248,321
827.722595,331
827.841064,311
827.959412,318
828.077942,322
828.196289,309
828.314636,322
828.433105,305
828.551514,313
828.669861,318
828.78833,324
828.906677,313
829.025085,316
829.143433,313
829.261841,312
829.38031,323
829.498657,322
829.617004,316
829.735413,320
829.85376,319
829.972107,309
830.090515,320
830.208862,311
830.327209,309
830.445557,328
830.563904,306
830.682312,334
830.800659,310
830.919006,305
831.037354,317
831.155701,327
831.274048,311
831.392395,315
831.51062,322
831.629028,307
831.747314,315
831.865662,316
831.984009,309
832.102356,310
832.220642,315
832.338928,317
832.457275,307
832.575623,313
832.693909,310
832.812134,314
832.930481,310
833.048828,321
833.167114,307
833.2854,314
833.403687,320
833.521973,316
833.640259,325
833.758545,309
833.876831,310
833.995056,309
834.113281,319
834.231628,308
834.349915,305
834.468201,323
834.586426,309
834.704651,318
834.822998,323
834.941162,322
835.059448,313
835.177673,314
835.295959,311
835.414246,315
835.53241,294
835.650635,307
835.768921,313
835.887146,316
836.005371,318
836.123596,315
836.241821,310
836.360046,320
836.478271,316
836.596497,324
836.714722,305
836.832886,315
836.95105,312
837.069336,321
837.1875,303
837.305725,320
837.423889,310
837.542053,313
837.660339,310
837.778503,323
837.896667,315
838.014832,329
838.132996,304
838.25116,319
838.369385,319
838.487488,317
838.605713,309
838.723877,341
838.84198,324
838.960205,320
839.078308,303
839.196472,310
839.314636,320
839.4328,325
839.550964,320
839.669067,316
839.787231,312
839.905396,311
840.023499,316
840.141602,313
840.259766,320
840.377869,309
840.495972,315
840.614136,314
840.732239,320
840.850342,307
840.968445,318
841.086548,327
841.204651,321
841.322754,313
841.440918,320
841.55896,327
841.677002,318
841.795166,324
841.913208,319
842.031311,325
842.149353,308
842.267456,315
842.385498,308
842.503601,316
842.621643,319
842.739746,317
842.857788,317
842.97583,327
843.093933,308
843.211975,337
843.330017,310
843.44812,317
843.566101,311
843.684204,330
843.802246,310
843.920227,315
844.038269,309
844.156311,317
844.274292,316
844.392395,325
844.510376,302
844.628357,320
844.74646,301
844.864441,316
844.982422,313
845.100403,318
845.218384,306
845.336426,319
845.454468,327
845.572449,317
845.69043,308
845.808411,323
845.926453,313
846.044373,331
846.162354,315
846.280396,312
846.398315,315
846.516296,320
846.634216,314
846.752197,309
846.870178,298
846.988098,314
847.106079,310
847.22406,316
847.34198,306
847.4599,318
847.577881,310
847.695801,327
847.813782,312
847.931641,315
848.049561,298
848.167603,327
848.285461,307
848.403381,317
848.521362,305
848.639221,319
848.75708,306
848.875,318
848.99292,313
849.110901,318
849.22876,330
849.34668,306
849.464539,313
849.582458,313
849.700317,309
849.818176,308
849.936096,307
850.053955,327
850.171875,327
850.289673,314
850.407593,303
850.525452,306
850.643311,326
850.761169,312
850.878967,307
850.996887,304
851.114746,314
851.232544,305
851.350403,308
851.468262,337
851.58606,301
851.703979,306
851.821777,320
851.939636,310
852.057434,306
852.175232,313
852.293091,321
852.410889,308
852.528687,305
852.646545,325
852.764343,310
852.88208,313
852.999939,320
853.117676,310
853.235535,319
853.353271,330
853.471069,309
853.588928,318
853.706604,304
853.824402,313
853.9422,318
854.059998,324
854.177734,312
854.295532,316
854.413269,305
854.531006,323
854.648804,315
854.766541,318
854.884277,303
855.002014,319
855.119751,308
855.237549,321
855.355225,309
855.473022,320
855.590698,319
855.708435,302
855.826172,318
855.943848,323
856.061646,313
856.179321,309
856.296997,308
856.414795,319
856.53241,309
856.650085,309
856.767822,302
856.885559,315
857.003174,317
857.120911,313
857.238586,317
857.356201,330
857.473938,315
857.591614,322
857.709351,311
857.826965,308
857.944641,317
858.062317,310
858.179993,322
858.297668,310
858.415283,324
858.532959,318
858.650574,301
858.768188,311
858.885803,313
859.003479,308
859.121094,317
859.23877,312
859.356384,298
859.473999,327
859.591675,326
859.709229,308
859.826843,310
859.944458,316
860.062012,306
860.179626,323
860.297302,311
860.414856,313
860.532471,323
860.650024,316
860.767639,308
860.885193,324
861.002808,305
861.120361,310
861.237976,322
861.35553,310
861.473022,308
861.590698,305
861.708191,312
861.825745,315
861.943298,319
862.060852,312
862.178406,311
862.295959,318
862.413513,320
862.531006,312
862.64856,304
862.766113,306
862.883667,322
863.00116,312
863.118713,314
863.236206,326
863.353699,316
863.471252,325
863.588745,306
863.706177,324
863.82373,300
863.941162,312
864.058716,308
864.176208,325
864.29364,315
864.411194,325
864.528687,308
864.646118,317
864.763611,321
864.881042,308
864.998535,315
865.116028,312
865.233459,321
865.350891,319
865.468384,312
865.585754,318
865.703308,307
865.820679,318
865.938171,308
866.055542,318
866.173035,298
866.290466,303
866.407837,308
866.52533,312
866.6427,319
866.760071,315
866.877563,296
866.994934,310
867.112305,306
867.229736,319
867.347107,316
867.464539,322
867.58197,319
867.699341,323
867.81665,327
867.934082,322
868.051453,331
868.168823,322
868.286194,310
868.403564,316
868.520935,321
868.638306,306
868.755676,314
868.872986,326
868.990295,326
869.107727,320
869.225037,300
869.342346,314
869.459717,306
869.577026,306
869.694336,316
869.811707,319
869.929016,332
870.046326,306
870.163635,308
870.280945,327
870.398254,311
870.515564,315
870.632812,299
870.750183,315
870.867432,300
870.984741,314
871.102051,293
871.219299,324
871.336609,329
871.453918,306
871.571106,309
871.688416,304
871.805664,314
871.922852,317
872.040222,311
872.157471,315
872.274719,308
872.391968,325
872.509155,318
872.626465,323
872.743652,319
872.860962,317
872.978149,316
873.095337,317
873.212646,309
873.329834,313
873.44696,320
873.564209,306
873.681396,308
873.798645,313
873.915894,302
874.03302,327
874.150208,303
874.267456,303
874.384583,297
874.501831,322
874.618958,331
874.736145,325
874.853333,308
874.970459,328
875.087646,306
875.204834,318
875.32196,321
875.439148,323
875.556274,307
875.673401,319
875.790527,304
875.907715,305
876.024841,323
876.141968,309
876.259094,309
876.376282,320
876.493347,312
876.610474,315
876.7276,318
876.844727,314
876.961853,327
877.078918,318
877.195984,303
877.313171,329
877.430237,308
877.547302,322
877.664368,305
877.781433,323
877.898499,316
878.015625,315
878.13269,312
878.249695,316
878.366821,309
878.483887,314
878.600952,306
878.717957,309
878.834961,302
878.952087,331
879.069092,311
879.186157,328
879.303162,301
879.420227,308
879.537231,319
879.654236,318
879.77124,300
879.888306,315
880.005249,307
880.122314,318
880.239319,309
880.356323,328
880.473328,309
880.590271,329
880.707275,328
880.824341,311
880.941284,317
881.058228,317
881.175232,298
881.292236,320
881.40918,304
881.526123,319
881.643066,306
881.760071,324
881.877014,319
881.993958,314
882.11084,304
882.227783,306
882.344727,317
882.46167,328
882.578613,313
882.695618,305
882.812439,321
882.929382,323
883.046326,308
883.163208,315
883.280151,319
883.397034,334
883.513916,309
883.630798,319
883.747742,317
883.864563,319
883.981506,311
884.098389,313
884.21521,319
884.332153,327
884.448975,298
884.565796,323
884.682678,310
884.7995,313
884.916443,308
885.033264,307
885.150085,312
885.266968,321
885.383789,309
885.500671,326
885.617493,314
885.734314,320
885.851196,308
885.967896,306
886.084717,311
886.201599,315
886.318359,313
886.435181,318
886.552002,313
886.668762,330
886.785645,312
886.902344,321
887.019165,303
887.135925,315
887.252747,323
887.369446,309
887.486267,303
887.603027,327
887.719788,302
887.836548,298
887.953247,314
888.070068,313
888.186829,309
888.303528,310
888.420288,320
888.536987,318
888.653687,321
888.770447,315
888.887146,308
889.003967,306
889.120667,319
889.237305,317
889.354065,306
889.470703,324
889.587463,310
889.704163,306
889.820862,322
889.937561,315
890.054199,312
890.170837,321
890.287598,317
890.404236,325
890.520874,298
890.637634,318
890.754211,318
890.87085,306
890.987549,315
891.104187,308
891.220886,311
891.337463,322
891.454102,307
891.57074,327
891.687378,312
891.804077,330
891.920654,313
892.037231,315
892.15387,310
892.270447,319
892.387085,291
892.503723,330
892.6203,305
892.736877,314
892.853516,316
892.970032,322
893.08667,310
893.203186,319
893.319763,307
893.43634,318
893.552917,308
893.669556,320
893.786011,312
893.902588,318
894.019165,312
894.135681,325
894.252197,322
894.368835,317
894.485291,307
894.601868,314
894.718384,306
894.8349,310
894.951355,309
895.067932,313
895.184448,306
895.300964,320
895.417419,315
895.533936,319
895.650452,315
895.766907,320
895.883423,312
895.999878,308
896.116333,318
896.232849,325
896.349304,310
896.465759,320
896.582214,314
896.698669,319
896.815125,310
896.931641,310
897.048035,315
897.164551,327
897.280884,324
897.397339,317
897.513794,316
897.630249,315
897.746582,308
897.863098,313
897.979431,311
898.095886,319
898.212341,318
898.328674,312
898.445129,303
898.561462,310
898.677795,315
898.794312,326
898.910645,314
899.026978,329
899.143433,311
899.259766,311
899.37616,324
899.492493,327
899.608765,325
899.725159,334
899.841553,309
899.957947,322
900.07428,313
900.190552,312
900.306946,310
900.423157,323
900.53949,314
900.655884,315
900.772156,315
900.888489,324
901.004822,313
901.121033,321
901.237366,299
901.353699,324
901.46991,303
901.586304,321
901.702515,324
901.818787,311
901.93512,318
902.051331,332
902.167603,309
902.283875,303
902.400085,325
902.516418,317
902.632629,317
902.74884,316
902.865112,312
902.981384,321
903.097595,296
903.213867,321
903.330017,306
903.446289,316
903.5625,300
903.67865,319
903.794922,323
903.911072,308
904.027344,311
904.143494,322
904.259705,310
904.375916,318
904.492065,309
904.608215,311
904.724426,320
904.840576,321
904.956726,325
905.072876,302
905.189087,319
905.305176,313
905.421387,313
905.537537,324
905.653687,320
905.769775,313
905.885925,314
906.002014,307
906.118164,322
906.234314,317
906.350403,315
906.466492,319
906.582642,315
906.69873,317
906.814758,311
906.930908,318
907.046936,311
907.163086,308
907.279175,311
907.395264,319
907.511353,307
907.62738,302
907.743408,299
907.859497,323
907.975525,316
908.091553,318
908.207703,317
908.32373,312
908.439758,310
908.555786,331
908.671814,309
908.787842,320
908.90387,326
909.019775,315
909.135864,321
909.251892,325
909.367859,305
909.483826,310
909.599854,311
909.715881,311
909.831848,316
909.947815,311
910.063782,302
910.179749,314
910.295776,300
910.411743,324
910.527649,313
910.643616,320
910.759583,304
910.875488,316
910.991455,322
911.107361,326
911.223267,316
911.339294,320
911.4552,314
911.571106,314
911.687073,319
911.802979,321
911.918823,308
912.034729,305
912.150635,315
912.266602,323
912.382446,304
912.498352,318
912.614197,312
912.730103,318
912.846008,315
792.44574,329
792.56488,351
792.68396,396
792.80304,379
792.92218,344
793.041199,321
793.160339,314
793.279419,341
793.398499,349
793.517578,320
793.636658,317
793.755737,344
793.874817,358
793.993896,360
794.112976,341
794.232056,335
794.351074,324
794.470215,335
794.589233,333
794.708313,338
794.827393,340
794.946411,325
795.065552,339
795.18457,349
795.303589,333
795.422668,331
795.541687,335
795.660767,320
795.779846,324
795.898865,328
796.017883,333
796.136963,322
796.255981,327
796.375061,345
796.49408,330
796.613037,318
796.732117,331
796.851135,332
796.970154,323
797.089233,325
797.208191,337
797.327271,324
797.446228,338
797.565186,324
797.684265,336
797.803223,333
797.922241,328
798.04126,322
798.160278,313
798.279297,337
798.398315,325
798.517273,330
798.636292,328
798.75531,338
798.874268,333
798.993286,330
799.112244,327
799.231323,321
799.350281,339
799.469238,321
799.588257,318
799.707153,331
799.826111,337
799.945129,339
800.064087,333
800.183044,326
800.302063,336
800.421021,323
800.539978,338
800.658936,339
800.777893,321
800.896912,326
801.015747,329
801.134705,329
801.253723,330
801.37262,336
801.491638,334
801.610535,333
801.729492,322
801.84845,334
801.967407,319
802.086243,336
802.205261,331
802.324158,331
802.443115,328
802.562073,324
802.680969,328
802.799927,347
802.918762,319
803.037659,335
803.156677,336
803.275574,332
803.39447,323
803.513428,341
803.632263,329
803.751221,333
803.870117,326
803.989014,335
804.107971,345
804.226746,330
804.345642,343
804.4646,320
804.583496,334
804.702393,332
804.821228,331
804.940125,330
805.059021,317
805.177917,343
805.296814,341
805.415649,334
805.534546,322
805.653442,336
805.772278,330
805.891113,334
806.01001,336
806.128906,332
806.247742,322
806.366577,329
806.485413,330
806.604309,345
806.723145,326
806.84198,335
806.960876,337
807.079712,329
807.198486,331
807.317383,323
807.436218,341
807.554993,343
807.673889,325
807.792725,330
807.91156,326
808.030396,334
808.14917,325
808.268005,332
808.386841,336
808.505676,327
808.624451,332
808.743286,328
808.862122,328
808.980896,341
809.099731,329
809.218506,341
809.337341,343
809.456116,337
809.57489,329
809.693726,333
809.8125,340
809.931274,339
810.050049,332
810.168884,343
810.287659,323
810.406372,338
810.525269,337
810.643982,341
810.762756,332
810.881531,336
811.000305,339
811.11908,329
811.237854,359
811.356567,331
811.475403,340
811.594116,325
811.71283,332
811.831604,343
811.950378,338
812.069153,336
812.187927,335
812.30658,321
812.425415,341
812.544128,329
812.662781,329
812.781616,322
812.900269,333
813.019043,320
813.137756,333
813.256531,309
813.375244,336
813.493896,337
813.612671,324
813.731384,339
813.850037,321
813.96875,331
814.087524,320
814.206238,330
814.324951,320
814.443604,336
814.562256,334
814.68103,342
814.799683,335
814.918335,319
815.037109,333
815.155762,335
815.274475,323
815.393188,328
815.511841,340
815.630554,329
815.749146,340
815.867859,327
815.986572,320
816.105164,334
816.223877,329
816.342529,335
816.461182,321
816.579895,338
816.698486,336
816.817139,329
816.935791,340
817.054504,344
817.173096,337
817.291748,326
817.4104,332
817.529053,330
817.647644,333
817.766235,343
817.884949,330
818.00354,333
818.122192,315
818.240845,315
818.359436,324
818.478088,321
818.59668,324
818.715271,323
818.833923,317
818.952515,316
819.071106,330
819.189758,314
819.30835,324
819.426941,319
819.545532,323
819.664124,316
819.782715,316
819.901306,321
820.019897,309
820.138489,330
820.25708,315
820.375671,301
820.494202,319
820.612732,316
820.731384,321
820.849915,321
820.968506,323
821.087097,329
821.205627,317
821.324158,320
821.442749,319
821.561279,319
821.679871,322
821.798401,317
821.916931,320
822.035461,316
822.154053,323
822.272583,329
822.391174,321
822.509583,324
822.628174,318
822.746704,315
822.865234,321
822.983765,311
823.102295,315
823.220825,311
823.339294,318
823.457825,319
823.576355,322
823.694824,330
823.813354,320
823.931885,325
824.050354,320
824.168884,318
824.287354,320
824.405823,316
824.524353,300
824.642822,314
824.761353,317
824.879822,320
824.998291,328
825.116699,327
825.235291,317
825.353699,305
825.472168,311
825.590637,325
825.709106,328
825.827576,335
825.946045,314
826.064453,326
826.182983,312
826.301392,319
826.4198,319
826.53833,327
826.656738,321
826.775208,312
826.893677,312
827.012024,321
827.130493,330
827.248962,320
827.36731,322
827.485779,302
827.604248,329
827.722595,307
827.841064,313
827.959412,322
828.077942,313
828.196289,310
828.314636,315
828.433105,302
828.551514,314
828.669861,318
828.78833,302
828.906677,317
829.025085,315
829.143433,321
829.261841,306
829.38031,325
829.498657,312
829.617004,312
829.735413,315
829.85376,309
829.972107,315
830.090515,324
830.208862,325
830.327209,322
830.445557,322
830.563904,319
830.682312,318
830.800659,316
830.919006,327
831.037354,316
831.155701,318
831.274048,322
831.392395,312
831.51062,320
831.629028,308
831.747314,301
831.865662,302
831.984009,318
832.102356,306
832.220642,307
832.338928,324
832.457275,311
832.575623,328
832.693909,324
832.812134,327
832.930481,305
833.048828,328
833.167114,311
833.2854,319
833.403687,316
833.521973,314
833.640259,321
833.758545,302
833.876831,312
833.995056,308
834.113281,317
834.231628,321
834.349915,309
834.468201,306
834.586426,312
834.704651,325
834.822998,308
834.941162,318
835.059448,315
835.177673,309
835.295959,332
835.414246,319
835.53241,315
835.650635,314
835.768921,309
835.887146,311
836.005371,317
836.123596,318
836.241821,323
836.360046,316
836.478271,315
836.596497,300
836.714722,318
836.832886,297
836.95105,312
837.069336,306
837.1875,324
837.305725,316
837.423889,318
837.542053,316
837.660339,315
837.778503,313
837.896667,327
838.014832,309
838.132996,316
838.25116,329
838.369385,314
838.487488,325
838.605713,320
838.723877,321
838.84198,331
838.960205,328
839.078308,325
839.196472,318
839.314636,317
839.4328,331
839.550964,324
839.669067,312
839.787231,320
839.905396,318
840.023499,315
840.141602,319
840.259766,326
840.377869,316
840.495972,318
840.614136,305
840.732239,328
840.850342,325
840.968445,326
841.086548,334
841.204651,327
841.322754,300
841.440918,309
841.55896,320
841.677002,303
841.795166,322
841.913208,335
842.031311,307
842.149353,319
842.267456,312
842.385498,316
842.503601,310
842.621643,321
842.739746,310
842.857788,324
842.97583,322
843.093933,325
843.211975,322
843.330017,320
843.44812,322
843.566101,319
843.684204,307
843.802246,315
843.920227,324
844.038269,303
844.156311,308
844.274292,317
844.392395,309
844.510376,317
844.628357,313
844.74646,323
844.864441,311
844.982422,312
845.100403,318
845.218384,322
845.336426,320
845.454468,299
845.572449,314
845.69043,318
845.808411,311
845.926453,316
846.044373,313
846.162354,323
846.280396,314
846.398315,321
846.516296,310
846.634216,312
846.752197,308
846.870178,315
846.988098,296
847.106079,313
847.22406,306
847.34198,320
847.4599,315
847.577881,314
847.695801,321
847.813782,314
847.931641,321
848.049561,316
848.167603,319
848.285461,312
848.403381,320
848.521362,322
848.639221,327
848.75708,311
848.875,303
848.99292,310
849.110901,319
849.22876,310
849.34668,311
849.464539,319
849.582458,310
849.700317,330
849.818176,309
849.936096,316
850.053955,314
850.171875,313
850.289673,313
850.407593,325
850.525452,311
850.643311,323
850.761169,320
850.878967,307
850.996887,322
851.114746,315
851.232544,314
851.350403,314
851.468262,321
851.58606,310
851.703979,314
851.821777,309
851.939636,317
852.057434,320
852.175232,320
852.293091,309
852.410889,324
852.528687,313
852.646545,306
852.764343,316
852.88208,320
852.999939,312
853.117676,314
853.235535,324
853.353271,319
853.471069,321
853.588928,316
853.706604,295
853.824402,322
853.9422,309
854.059998,318
854.177734,307
854.295532,314
854.413269,300
854.531006,319
854.648804,312
854.766541,319
854.884277,324
855.002014,310
855.119751,318
855.237549,319
855.355225,319
855.473022,318
855.590698,323
855.708435,315
855.826172,309
855.943848,321
856.061646,312
856.179321,313
856.296997,310
856.414795,309
856.53241,312
856.650085,312
856.767822,327
856.885559,303
857.003174,300
857.120911,313
857.238586,322
857.356201,327
857.473938,317
857.591614,311
857.709351,318
857.826965,305
857.944641,316
858.062317,313
858.179993,329
858.297668,310
858.415283,313
858.532959,308
858.650574,306
858.768188,304
858.885803,327
859.003479,295
859.121094,323
859.23877,309
859.356384,317
859.473999,328
859.591675,310
859.709229,319
859.826843,323
859.944458,312
860.062012,329
860.179626,325
860.297302,309
860.414856,295
860.532471,311
860.650024,311
860.767639,316
860.885193,307
861.002808,298
861.120361,297
861.237976,313
861.35553,321
861.473022,311
861.590698,303
861.708191,319
861.825745,310
861.943298,322
862.060852,329
862.178406,309
862.295959,311
862.413513,326
862.531006,315
862.64856,327
862.766113,313
862.883667,312
863.00116,313
863.118713,322
863.236206,312
863.353699,309
863.471252,318
863.588745,308
863.706177,310
863.82373,310
863.941162,328
864.058716,324
864.176208,335
864.29364,311
864.411194,328
864.528687,319
864.646118,320
864.763611,321
864.881042,319
864.998535,313
865.116028,310
865.233459,323
865.350891,322
865.468384,314
865.585754,319
865.703308,312
865.820679,318
865.938171,314
866.055542,306
866.173035,333
866.290466,316
866.407837,309
866.52533,331
866.6427,330
866.760071,313
866.877563,316
866.994934,326
867.112305,314
867.229736,310
867.347107,321
867.464539,316
867.58197,320
867.699341,320
867.81665,315
867.934082,309
868.051453,321
868.168823,314
868.286194,305
868.403564,310
868.520935,309
868.638306,331
868.755676,320
868.872986,318
868.990295,328
869.107727,311
869.225037,331
869.342346,312
869.459717,325
869.577026,323
869.694336,332
869.811707,318
869.929016,331
870.046326,324
870.163635,313
870.280945,317
870.398254,314
870.515564,320
870.632812,324
870.750183,318
870.867432,311
870.984741,311
871.102051,309
871.219299,309
871.336609,322
871.453918,318
871.571106,316
871.688416,315
871.805664,321
871.922852,311
872.040222,326
872.157471,323
872.274719,310
872.391968,325
872.509155,306
872.626465,315
872.743652,316
872.860962,305
872.978149,321
873.095337,294
873.212646,330
873.329834,297
873.44696,311
873.564209,311
873.681396,307
873.798645,328
873.915894,328
874.03302,306
874.150208,316
874.267456,320
874.384583,322
874.501831,320
874.618958,301
874.736145,309
874.853333,305
874.970459,327
875.087646,321
875.204834,311
875.32196,307
875.439148,318
875.556274,325
875.673401,300
875.790527,311
875.907715,308
876.024841,302
876.141968,298
876.259094,318
876.376282,303
876.493347,320
876.610474,320
876.7276,324
876.844727,313
876.961853,308
877.078918,329
877.195984,316
877.313171,300
877.430237,317
877.547302,313
877.664368,317
877.781433,311
877.898499,322
878.015625,319
878.13269,321
878.249695,319
878.366821,317
878.483887,321
878.600952,318
878.717957,312
878.834961,312
878.952087,301
879.069092,317
879.186157,315
879.303162,304
879.420227,306
879.537231,310
879.654236,322
879.77124,311
879.888306,311
880.005249,313
880.122314,314
880.239319,303
880.356323,313
880.473328,316
880.590271,309
880.707275,312
880.824341,323
880.941284,309
881.058228,315
881.175232,327
881.292236,312
881.40918,315
881.526123,328
881.643066,310
881.760071,316
881.877014,316
881.993958,308
882.11084,305
882.227783,300
882.344727,312
882.46167,304
882.578613,315
882.695618,310
882.812439,321
882.929382,316
883.046326,320
883.163208,317
883.280151,310
883.397034,314
883.513916,315
883.630798,315
883.747742,331
883.864563,310
883.981506,315
884.098389,298
884.21521,324
884.332153,324
884.448975,311
884.565796,311
884.682678,317
884.7995,319
884.916443,321
885.033264,322
885.150085,306
885.266968,309
885.383789,317
885.500671,307
885.617493,316
885.734314,325
885.851196,312
885.967896,308
886.084717,316
886.201599,301
886.318359,312
886.435181,319
886.552002,312
886.668762,326
886.785645,321
886.902344,319
887.019165,324
887.135925,321
887.252747,319
887.369446,305
887.486267,318
887.603027,305
887.719788,318
887.836548,324
887.953247,314
888.070068,311
888.186829,327
888.303528,308
888.420288,316
888.536987,316
888.653687,326
888.770447,321
888.887146,301
889.003967,324
889.120667,313
889.237305,301
889.354065,312
889.470703,319
889.587463,317
889.704163,316
889.820862,309
889.937561,317
890.054199,329
890.170837,320
890.287598,316
890.404236,323
890.520874,321
890.637634,312
890.754211,320
890.87085,308
890.987549,310
891.104187,312
891.220886,312
891.337463,319
891.454102,324
891.57074,311
891.687378,328
891.804077,307
891.920654,318
892.037231,313
892.15387,310
892.270447,308
892.387085,316
892.503723,319
892.6203,323
892.736877,311
892.853516,313
892.970032,324
893.08667,310
893.203186,317
893.319763,325
893.43634,314
893.552917,314
893.669556,318
893.786011,316
893.902588,308
894.019165,322
894.135681,325
894.252197,314
894.368835,321
894.485291,315
894.601868,319
894.718384,318
894.8349,312
894.951355,304
895.067932,298
895.184448,316
895.300964,308
895.417419,324
895.533936,298
895.650452,317
895.766907,327
895.883423,328
895.999878,316
896.116333,320
896.232849,311
896.349304,314
896.465759,310
896.582214,319
896.698669,327
896.815125,309
896.931641,315
897.048035,312
897.164551,315
897.280884,324
897.397339,317
897.513794,317
897.630249,299
897.746582,320
897.863098,324
897.979431,311
898.095886,331
898.212341,312
898.328674,309
898.445129,319
898.561462,313
898.677795,324
898.794312,313
898.910645,317
899.026978,295
899.143433,321
899.259766,310
899.37616,321
899.492493,315
899.608765,330
899.725159,319
899.841553,319
899.957947,311
900.07428,321
900.190552,316
900.306946,311
900.423157,331
900.53949,302
900.655884,330
900.772156,329
900.888489,305
901.004822,321
901.121033,317
901.237366,308
901.353699,311
901.46991,315
901.586304,305
901.702515,321
901.818787,313
901.93512,315
902.051331,304
902.167603,322
902.283875,319
902.400085,324
902.516418,326
902.632629,318
902.74884,336
902.865112,325
902.981384,312
903.097595,325
903.213867,312
903.330017,322
903.446289,322
903.5625,318
903.67865,299
903.794922,312
903.911072,313
904.027344,323
904.143494,321
904.259705,332
904.375916,323
904.492065,314
904.608215,312
904.724426,320
904.840576,313
904.956726,306
905.072876,323
905.189087,321
905.305176,323
905.421387,314
905.537537,321
905.653687,322
905.769775,319
905.885925,320
906.002014,310
906.118164,313
906.234314,319
906.350403,317
906.466492,322
906.582642,311
906.69873,310
906.814758,310
906.930908,329
907.046936,339
907.163086,317
907.279175,316
907.395264,311
907.511353,305
907.62738,316
907.743408,321
907.859497,310
907.975525,323
908.091553,308
908.207703,322
908.32373,318
908.439758,322
908.555786,314
908.671814,320
908.787842,315
908.90387,320
909.019775,308
909.135864,324
909.251892,303
909.367859,324
909.483826,326
909.599854,311
909.715881,307
909.831848,316
909.947815,318
910.063782,305
910.179749,321
910.295776,304
910.411743,312
910.527649,312
910.643616,296
910.759583,304
910.875488,306
910.991455,322
911.107361,326
911.223267,316
911.339294,317
911.4552,309
911.571106,307
911.687073,323
911.802979,321
911.918823,309
912.034729,319
912.150635,318
912.266602,322
912.382446,316
912.498352,317
912.614197,315
912.730103,303
912.846008,318
792.44574,325
792.56488,364
792.68396,393
792.80304,382
792.92218,342
793.041199,306
793.160339,324
793.279419,348
793.398499,321
793.517578,322
793.636658,321
793.755737,323
793.874817,340
793.993896,343
794.112976,342
794.232056,323
794.351074,327
794.470215,332
794.589233,338
794.708313,326
794.827393,330
794.946411,330
795.065552,342
795.18457,328
795.303589,331
795.422668,332
795.541687,324
795.660767,317
795.779846,328
795.898865,330
796.017883,337
796.136963,348
796.255981,338
796.375061,334
796.49408,339
796.613037,324
796.732117,340
796.851135,334
796.970154,339
797.089233,335
797.208191,328
797.327271,325
797.446228,333
797.565186,328
797.684265,335
797.803223,333
797.922241,334
798.04126,333
798.160278,338
798.279297,321
798.398315,335
798.517273,329
798.636292,332
798.75531,317
798.874268,325
798.993286,337
799.112244,326
799.231323,332
799.350281,346
799.469238,334
799.588257,325
799.707153,336
799.826111,321
799.945129,333
800.064087,322
800.183044,329
800.302063,327
800.421021,343
800.539978,334
800.658936,323
800.777893,345
800.896912,342
801.015747,326
801.134705,319
801.253723,321
801.37262,325
801.491638,337
801.610535,324
801.729492,336
801.84845,324
801.967407,328
802.086243,313
802.205261,336
802.324158,342
802.443115,333
802.562073,336
802.680969,328
802.799927,332
802.918762,326
803.037659,331
803.156677,327
803.275574,332
803.39447,333
803.513428,332
803.632263,343
803.751221,329
803.870117,325
803.989014,321
804.107971,338
804.226746,324
804.345642,330
804.4646,330
804.583496,312
804.702393,334
804.821228,331
804.940125,321
805.059021,327
805.177917,344
805.296814,338
805.415649,304
805.534546,345
805.653442,332
805.772278,328
805.891113,335
806.01001,329
806.128906,333
806.247742,344
806.366577,328
806.485413,335
806.604309,331
806.723145,331
806.84198,331
806.960876,330
807.079712,315
807.198486,327
807.317383,332
807.436218,322
807.554993,339
807.673889,344
807.792725,327
807.91156,326
808.030396,337
808.14917,330
808.268005,332
808.386841,332
808.505676,327
808.624451,335
808.743286,330
808.862122,338
808.980896,334
809.099731,326
809.218506,350
809.337341,335
809.456116,330
809.57489,328
809.693726,344
809.8125,334
809.931274,340
810.050049,331
810.168884,338
810.287659,340
810.406372,329
810.525269,338
810.643982,320
810.762756,335
810.881531,343
811.000305,328
811.11908,338
811.237854,324
811.356567,338
811.475403,331
811.594116,335
811.71283,328
811.831604,334
811.950378,339
812.069153,327
812.187927,339
812.30658,327
812.425415,346
812.544128,339
812.662781,323
812.781616,317
812.900269,319
813.019043,325
813.137756,334
813.256531,332
813.375244,335
813.493896,324
813.612671,341
813.731384,335
813.850037,326
813.96875,329
814.087524,345
814.206238,343
814.324951,330
814.443604,329
814.562256,321
814.68103,336
814.799683,341
814.918335,333
815.037109,336
815.155762,333
815.274475,329
815.393188,344
815.511841,319
815.630554,325
815.749146,325
815.867859,325
815.986572,324
816.105164,328
816.223877,323
816.342529,325
816.461182,339
816.579895,341
816.698486,330
816.817139,335
816.935791,327
817.054504,310
817.173096,323
817.291748,318
817.4104,337
817.529053,330
817.647644,335
817.766235,334
817.884949,334
818.00354,327
818.122192,324
818.240845,321
818.359436,321
818.478088,322
818.59668,340
818.715271,317
818.833923,319
818.952515,317
819.071106,331
819.189758,322
819.30835,333
819.426941,311
819.545532,330
819.664124,327
819.782715,307
819.901306,312
820.019897,326
820.138489,317
820.25708,324
820.375671,323
820.494202,316
820.612732,315
820.731384,315
820.849915,334
820.968506,323
821.087097,319
821.205627,315
821.324158,306
821.442749,315
821.561279,333
821.679871,315
821.798401,324
821.916931,307
822.035461,321
822.154053,299
822.272583,311
822.391174,331
822.509583,321
822.628174,309
822.746704,314
822.865234,313
822.983765,305
823.102295,327
823.220825,323
823.339294,315
823.457825,309
823.576355,327
823.694824,329
823.813354,310
823.931885,304
824.050354,327
824.168884,321
824.287354,316
824.405823,322
824.524353,333
824.642822,326
824.761353,339
824.879822,319
824.998291,316
825.116699,315
825.235291,312
825.353699,311
825.472168,322
825.590637,320
825.709106,327
825.827576,332
825.946045,306
826.064453,304
826.182983,313
826.301392,314
826.4198,330
826.53833,306
826.656738,337
826.775208,325
826.893677,325
827.012024,308
827.130493,313
827.248962,329
827.36731,315
827.485779,321
827.604248,306
827.722595,321
827.841064,318
827.959412,325
828.077942,319
828.196289,317
828.314636,316
828.433105,313
828.551514,321
828.669861,319
828.78833,323
828.906677,311
829.025085,315
829.143433,317
829.261841,320
829.38031,316
829.498657,323
829.617004,312
829.735413,313
829.85376,318
829.972107,321
830.090515,311
830.208862,309
830.327209,318
830.445557,316
830.563904,322
830.682312,310
830.800659,307
830.919006,315
831.037354,319
831.155701,324
831.274048,322
831.392395,316
831.51062,313
831.629028,309
831.747314,317
831.865662,303
831.984009,320
832.102356,321
832.220642,315
832.338928,319
832.457275,329
832.575623,315
832.693909,321
832.812134,319
832.930481,315
833.048828,314
833.167114,317
833.2854,320
833.403687,315
833.521973,322
833.640259,313
833.758545,324
833.876831,318
833.995056,324
834.113281,322
834.231628,314
834.349915,316
834.468201,310
834.586426,320
834.704651,322
834.822998,318
834.941162,315
835.059448,323
835.177673,313
835.295959,312
835.414246,322
835.53241,314
835.650635,311
835.768921,304
835.887146,318
836.005371,319
836.123596,313
836.241821,325
836.360046,308
836.478271,317
836.596497,321
836.714722,317
836.832886,322
836.95105,323
837.069336,309
837.1875,327
837.305725,324
837.423889,307
837.542053,317
837.660339,314
837.778503,310
837.896667,332
838.014832,308
838.132996,316
838.25116,324
838.369385,318
838.487488,324
838.605713,315
838.723877,317
838.84198,309
838.960205,325
839.078308,309
839.196472,316
839.314636,316
839.4328,322
839.550964,315
839.669067,320
839.787231,313
839.905396,319
840.023499,305
840.141602,318
840.259766,324
840.377869,326
840.495972,303
840.614136,324
840.732239,318
840.850342,317
840.968445,311
841.086548,322
841.204651,304
841.322754,309
841.440918,312
841.55896,319
841.677002,313
841.795166,309
841.913208,308
842.031311,310
842.149353,299
842.267456,322
842.385498,316
842.503601,297
842.621643,324
842.739746,305
842.857788,320
842.97583,309
843.093933,327
843.211975,309
843.330017,323
843.44812,323
843.566101,312
843.684204,322
843.802246,314
843.920227,306
844.038269,310
844.156311,312
844.274292,328
844.392395,320
844.510376,321
844.628357,316
844.74646,320
844.864441,310
844.982422,314
845.100403,312
845.218384,307
845.336426,319
845.454468,304
845.572449,318
845.69043,331
845.808411,300
845.926453,316
846.044373,315
846.162354,302
846.280396,327
846.398315,316
846.516296,312
846.634216,312
846.752197,315
846.870178,317
846.988098,323
847.106079,311
847.22406,310
847.34198,315
847.4599,313
847.577881,305
847.695801,315
847.813782,305
847.931641,325
848.049561,304
848.167603,329
848.285461,317
848.403381,301
848.521362,310
848.639221,296
848.75708,327
848.875,328
848.99292,316
849.110901,307
849.22876,323
849.34668,312
849.464539,323
849.582458,315
849.700317,310
849.818176,322
849.936096,321
850.053955,318
850.171875,321
850.289673,312
850.407593,330
850.525452,305
850.643311,314
850.761169,311
850.878967,336
850.996887,309
851.114746,321
851.232544,309
851.350403,315
851.468262,312
851.58606,316
851.703979,316
851.821777,312
851.939636,313
852.057434,325
852.175232,308
852.293091,319
852.410889,304
852.528687,320
852.646545,315
852.764343,318
852.88208,310
852.999939,313
853.117676,333
853.235535,320
853.353271,317
853.471069,309
853.588928,310
853.706604,304
853.824402,318
853.9422,314
854.059998,322
854.177734,302
854.295532,299
854.413269,320
854.531006,315
854.648804,320
854.766541,318
854.884277,304
855.002014,294
855.119751,317
855.237549,317
855.355225,320
855.473022,323
855.590698,322
855.708435,311
855.826172,313
855.943848,317
856.061646,298
856.179321,333
856.296997,324
856.414795,314
856.53241,324
856.650085,300
856.767822,323
856.885559,323
857.003174,312
857.120911,318
857.238586,310
857.356201,315
857.473938,319
857.591614,311
857.709351,318
857.826965,300
857.944641,331
858.062317,312
858.179993,315
858.297668,312
858.415283,319
858.532959,328
858.650574,329
858.768188,307
858.885803,322
859.003479,313
859.121094,314
859.23877,312
859.356384,315
859.473999,325
859.591675,308
859.709229,324
859.826843,316
859.944458,314
860.062012,322
860.179626,305
860.297302,315
860.414856,306
860.532471,310
860.650024,303
860.767639,325
860.885193,312
861.002808,318
861.120361,322
861.237976,312
861.35553,308
861.473022,326
861.590698,309
861.708191,312
861.825745,317
861.943298,313
862.060852,311
862.178406,307
862.295959,316
862.413513,315
862.531006,322
862.64856,315
862.766113,314
862.883667,313
863.00116,312
863.118713,321
863.236206,310
863.353699,314
863.471252,320
863.588745,326
863.706177,311
863.82373,321
863.941162,314
864.058716,308
864.176208,321
864.29364,321
864.411194,329
864.528687,316
864.646118,315
864.763611,316
864.881042,325
864.998535,320
865.116028,317
865.233459,317
865.350891,316
865.468384,319
865.585754,314
865.703308,327
865.820679,315
865.938171,303
866.055542,316
866.173035,329
866.290466,325
866.407837,307
866.52533,316
866.6427,315
866.760071,309
866.877563,309
866.994934,319
867.112305,317
867.229736,311
867.347107,328
867.464539,307
867.58197,325
867.699341,317
867.81665,317
867.934082,311
868.051453,315
868.168823,320
868.286194,313
868.403564,307
868.520935,317
868.638306,303
868.755676,325
868.872986,309
868.990295,296
869.107727,325
869.225037,318
869.342346,321
869.459717,329
869.577026,313
869.694336,323
869.811707,324
869.929016,307
870.046326,302
870.163635,311
870.280945,325
870.398254,319
870.515564,315
870.632812,305
870.750183,299
870.867432,323
870.984741,325
871.102051,310
871.219299,314
871.336609,316
871.453918,307
871.571106,312
871.688416,303
871.805664,315
871.922852,315
872.040222,322
872.157471,308
872.274719,327
872.391968,305
872.509155,319
872.626465,311
872.743652,303
872.860962,323
872.978149,312
873.095337,303
873.212646,313
873.329834,319
873.44696,301
873.564209,314
873.681396,317
873.798645,321
873.915894,320
874.03302,320
874.150208,317
874.267456,311
874.384583,319
874.501831,319
874.618958,316
874.736145,308
874.853333,310
874.970459,324
875.087646,318
875.204834,321
875.32196,316
875.439148,315
875.556274,325
875.673401,317
875.790527,321
875.907715,307
876.024841,322
876.141968,314
876.259094,317
876.376282,308
876.493347,324
876.610474,314
876.7276,305
876.844727,317
876.961853,320
877.078918,299
877.195984,318
877.313171,324
877.430237,332
877.547302,311
877.664368,314
877.781433,309
877.898499,325
878.015625,319
878.13269,324
878.249695,311
878.366821,311
878.483887,317
878.600952,320
878.717957,327
878.834961,322
878.952087,330
879.069092,318
879.186157,318
879.303162,315
879.420227,312
879.537231,319
879.654236,312
879.77124,315
879.888306,315
880.005249,307
880.122314,309
880.239319,337
880.356323,307
880.473328,322
880.590271,316
880.707275,327
880.824341,315
880.941284,316
881.058228,310
881.175232,310
881.292236,312
881.40918,327
881.526123,308
881.643066,319
881.760071,307
881.877014,326
881.993958,320
882.11084,307
882.227783,305
882.344727,326
882.46167,309
882.578613,316
882.695618,308
882.812439,310
882.929382,320
883.046326,309
883.163208,317
883.280151,320
883.397034,327
883.513916,320
883.630798,318
883.747742,310
883.864563,308
883.981506,310
884.098389,310
884.21521,303
884.332153,322
884.448975,302
884.565796,308
884.682678,311
884.7995,315
884.916443,317
885.033264,308
885.150085,318
885.266968,313
885.383789,313
885.500671,323
885.617493,320
885.734314,317
885.851196,328
885.967896,315
886.084717,339
886.201599,310
886.318359,324
886.435181,323
886.552002,325
886.668762,316
886.785645,304
886.902344,319
887.019165,319
887.135925,312
887.252747,319
887.369446,329
887.486267,325
887.603027,314
887.719788,313
887.836548,318
887.953247,316
888.070068,325
888.186829,313
888.303528,322
888.420288,318
888.536987,313
888.653687,322
888.770447,301
888.887146,306
889.003967,317
889.120667,321
889.237305,308
889.354065,313
889.470703,315
889.587463,334
889.704163,309
889.820862,306
889.937561,314
890.054199,315
890.170837,314
890.287598,311
890.404236,315
890.520874,331
890.637634,306
890.754211,317
890.87085,323
890.987549,320
891.104187,316
891.220886,315
891.337463,326
891.454102,310
891.57074,322
891.687378,310
891.804077,321
891.920654,314
892.037231,317
892.15387,318
892.270447,322
892.387085,312
892.503723,310
892.6203,319
892.736877,309
892.853516,310
892.970032,313
893.08667,313
893.203186,303
893.319763,321
893.43634,326
893.552917,316
893.669556,308
893.786011,324
893.902588,306
894.019165,332
894.135681,315
894.252197,312
894.368835,311
894.485291,305
894.601868,328
894.718384,320
894.8349,304
894.951355,322
895.067932,326
895.184448,319
895.300964,318
895.417419,317
895.533936,320
895.650452,307
895.766907,314
895.883423,305
895.999878,302
896.116333,304
896.232849,319
896.349304,316
896.465759,308
896.582214,325
896.698669,318
896.815125,308
896.931641,306
897.048035,305
897.164551,327
897.280884,323
897.397339,316
897.513794,317
897.630249,331
897.746582,317
897.863098,322
897.979431,328
898.095886,311
898.212341,320
898.328674,310
898.445129,314
898.561462,315
898.677795,301
898.794312,311
898.910645,308
899.026978,300
899.143433,313
899.259766,314
899.37616,314
899.492493,298
899.608765,309
899.725159,303
899.841553,319
899.957947,317
900.07428,322
900.190552,322
900.306946,321
900.423157,316
900.53949,308
900.655884,324
900.772156,326
900.888489,312
901.004822,322
901.121033,310
901.237366,323
901.353699,300
901.46991,311
901.586304,318
901.702515,326
901.818787,314
901.93512,313
902.051331,316
902.167603,318
902.283875,299
902.400085,324
902.516418,303
902.632629,314
902.74884,318
902.865112,313
902.981384,323
903.097595,318
903.213867,329
903.330017,316
903.446289,300
903.5625,327
903.67865,317
903.794922,311
903.911072,316
904.027344,323
904.143494,322
904.259705,322
904.375916,326
904.492065,304
904.608215,309
904.724426,309
904.840576,289
904.956726,314
905.072876,313
905.189087,321
905.305176,305
905.421387,311
905.537537,319
905.653687,310
905.769775,317
905.885925,309
906.002014,310
906.118164,319
906.234314,313
906.350403,320
906.466492,307
906.582642,313
906.69873,315
906.814758,313
906.930908,316
907.046936,308
907.163086,331
907.279175,302
907.395264,300
907.511353,313
907.62738,324
907.743408,314
907.859497,321
907.975525,319
908.091553,309
908.207703,310
908.32373,320
908.439758,327
908.555786,314
908.671814,314
908.787842,312
908.90387,328
909.019775,312
909.135864,320
909.251892,317
909.367859,323
909.483826,316
909.599854,309
909.715881,312
909.831848,327
909.947815,311
910.063782,309
910.179749,297
910.295776,308
910.411743,302
910.527649,312
910.643616,315
910.759583,308
910.875488,327
910.991455,314
911.107361,314
911.223267,326
911.339294,313
911.4552,307
911.571106,319
911.687073,325
911.802979,319
911.918823,320
912.034729,326
912.150635,313
912.266602,310
912.382446,315
912.498352,300
912.614197,319
912.730103,311
912.846008,321
