792.44574,365
792.56488,395
792.68396,433
792.80304,428
792.92218,380
793.041199,351
793.160339,367
793.279419,380
793.398499,381
793.517578,326
793.636658,358
793.755737,368
793.874817,378
793.993896,359
794.112976,367
794.232056,364
794.351074,360
794.470215,355
794.589233,350
794.708313,359
794.827393,354
794.946411,348
795.065552,355
795.18457,345
795.303589,339
795.422668,353
795.541687,361
795.660767,332
795.779846,350
795.898865,342
796.017883,353
796.136963,340
796.255981,339
796.375061,347
796.49408,341
796.613037,343
796.732117,339
796.851135,335
796.970154,348
797.089233,340
797.208191,345
797.327271,349
797.446228,355
797.565186,328
797.684265,342
797.803223,340
797.922241,341
798.04126,333
798.160278,345
798.279297,348
798.398315,333
798.517273,335
798.636292,335
798.75531,325
798.874268,339
798.993286,342
799.112244,343
799.231323,326
799.350281,335
799.469238,331
799.588257,336
799.707153,338
799.826111,333
799.945129,323
800.064087,352
800.183044,331
800.302063,328
800.421021,336
800.539978,328
800.658936,327
800.777893,322
800.896912,329
801.015747,323
801.134705,330
801.253723,343
801.37262,314
801.491638,337
801.610535,322
801.729492,348
801.84845,324
801.967407,347
802.086243,331
802.205261,329
802.324158,343
802.443115,333
802.562073,339
802.680969,325
802.799927,318
802.918762,324
803.037659,326
803.156677,333
803.275574,327
803.39447,328
803.513428,333
803.632263,325
803.751221,335
803.870117,328
803.989014,321
804.107971,335
804.226746,321
804.345642,324
804.4646,329
804.583496,343
804.702393,332
804.821228,322
804.940125,332
805.059021,331
805.177917,326
805.296814,326
805.415649,329
805.534546,329
805.653442,329
805.772278,337
805.891113,329
806.01001,347
806.128906,333
806.247742,343
806.366577,336
806.485413,334
806.604309,308
806.723145,331
806.84198,327
806.960876,318
807.079712,328
807.198486,335
807.317383,327
807.436218,326
807.554993,323
807.673889,341
807.792725,328
807.91156,324
808.030396,331
808.14917,324
808.268005,343
808.386841,335
808.505676,313
808.624451,327
808.743286,321
808.862122,327
808.980896,333
809.099731,333
809.218506,322
809.337341,329
809.456116,318
809.57489,330
809.693726,317
809.8125,330
809.931274,318
810.050049,335
810.168884,334
810.287659,325
810.406372,329
810.525269,319
810.643982,320
810.762756,328
810.881531,328
811.000305,333
811.11908,322
811.237854,329
811.356567,317
811.475403,323
811.594116,323
811.71283,337
811.831604,329
811.950378,323
812.069153,321
812.187927,326
812.30658,324
812.425415,327
812.544128,327
812.662781,332
812.781616,323
812.900269,326
813.019043,325
813.137756,332
813.256531,317
813.375244,333
813.493896,312
813.612671,339
813.731384,317
813.850037,331
813.96875,326
814.087524,330
814.206238,320
814.324951,315
814.443604,326
814.562256,330
814.68103,322
814.799683,333
814.918335,312
815.037109,323
815.155762,327
815.274475,322
815.393188,317
815.511841,324
815.630554,322
815.749146,321
815.867859,334
815.986572,331
816.105164,321
816.223877,335
816.342529,319
816.461182,322
816.579895,332
816.698486,329
816.817139,320
816.935791,340
817.054504,322
817.173096,332
817.291748,326
817.4104,325
817.529053,331
817.647644,320
817.766235,335
817.884949,318
818.00354,307
818.122192,329
818.240845,320
818.359436,327
818.478088,321
818.59668,329
818.715271,320
818.833923,320
818.952515,327
819.071106,334
819.189758,322
819.30835,329
819.426941,331
819.545532,329
819.664124,326
819.782715,323
819.901306,327
820.019897,320
820.138489,324
820.25708,317
820.375671,317
820.494202,319
820.612732,327
820.731384,327
820.849915,321
820.968506,325
821.087097,316
821.205627,320
821.324158,333
821.442749,328
821.561279,324
821.679871,325
821.798401,327
821.916931,329
822.035461,312
822.154053,323
822.272583,313
822.391174,317
822.509583,328
822.628174,328
822.746704,311
822.865234,325
822.983765,319
823.102295,327
823.220825,317
823.339294,317
823.457825,315
823.576355,333
823.694824,325
823.813354,324
823.931885,325
824.050354,321
824.168884,309
824.287354,330
824.405823,331
824.524353,308
824.642822,316
824.761353,307
824.879822,323
824.998291,323
825.116699,320
825.235291,316
825.353699,320
825.472168,324
825.590637,334
825.709106,327
825.827576,337
825.946045,323
826.064453,327
826.182983,319
826.301392,316
826.4198,317
826.53833,331
826.656738,314
826.775208,325
826.893677,307
827.012024,320
827.130493,330
827.248962,329
827.36731,314
827.485779,306
827.604248,336
827.722595,330
827.841064,325
827.959412,314
828.077942,318
828.196289,320
828.314636,333
828.433105,319
828.551514,318
828.669861,323
828.78833,312
828.906677,333
829.025085,329
829.143433,321
829.261841,319
829.38031,320
829.498657,321
829.617004,314
829.735413,314
829.85376,311
829.972107,330
830.090515,306
830.208862,316
830.327209,328
830.445557,312
830.563904,328
830.682312,314
830.800659,324
830.919006,330
831.037354,326
831.155701,330
831.274048,317
831.392395,329
831.51062,313
831.629028,323
831.747314,315
831.865662,319
831.984009,322
832.102356,330
832.220642,328
832.338928,329
832.457275,310
832.575623,325
832.693909,317
832.812134,326
832.930481,323
833.048828,313
833.167114,320
833.2854,311
833.403687,321
833.521973,325
833.640259,332
833.758545,337
833.876831,318
833.995056,335
834.113281,309
834.231628,321
834.349915,326
834.468201,321
834.586426,325
834.704651,338
834.822998,319
834.941162,311
835.059448,310
835.177673,321
835.295959,315
835.414246,330
835.53241,317
835.650635,320
835.768921,327
835.887146,333
836.005371,303
836.123596,337
836.241821,313
836.360046,334
836.478271,330
836.596497,330
836.714722,305
836.832886,313
836.95105,325
837.069336,328
837.1875,327
837.305725,299
837.423889,320
837.542053,317
837.660339,331
837.778503,331
837.896667,320
838.014832,321
838.132996,324
838.25116,319
838.369385,329
838.487488,324
838.605713,325
838.723877,319
838.84198,310
838.960205,323
839.078308,324
839.196472,329
839.314636,317
839.4328,323
839.550964,321
839.669067,325
839.787231,321
839.905396,314
840.023499,326
840.141602,309
840.259766,328
840.377869,326
840.495972,325
840.614136,318
840.732239,328
840.850342,332
840.968445,325
841.086548,332
841.204651,307
841.322754,329
841.440918,319
841.55896,323
841.677002,320
841.795166,322
841.913208,316
842.031311,329
842.149353,334
842.267456,314
842.385498,327
842.503601,324
842.621643,326
842.739746,315
842.857788,320
842.97583,323
843.093933,326
843.211975,329
843.330017,326
843.44812,328
843.566101,318
843.684204,318
843.802246,325
843.920227,329
844.038269,324
844.156311,326
844.274292,323
844.392395,328
844.510376,320
844.628357,332
844.74646,310
844.864441,339
844.982422,325
845.100403,328
845.218384,313
845.336426,325
845.454468,325
845.572449,323
845.69043,313
845.808411,321
845.926453,309
846.044373,330
846.162354,309
846.280396,328
846.398315,325
846.516296,316
846.634216,311
846.752197,328
846.870178,332
846.988098,314
847.106079,332
847.22406,324
847.34198,328
847.4599,320
847.577881,323
847.695801,319
847.813782,324
847.931641,329
848.049561,330
848.167603,332
848.285461,313
848.403381,321
848.521362,320
848.639221,324
848.75708,327
848.875,329
848.99292,322
849.110901,341
849.22876,312
849.34668,323
849.464539,320
849.582458,313
849.700317,329
849.818176,336
849.936096,328
850.053955,340
850.171875,323
850.289673,332
850.407593,300
850.525452,321
850.643311,310
850.761169,326
850.878967,329
850.996887,325
851.114746,314
851.232544,319
851.350403,317
851.468262,331
851.58606,318
851.703979,318
851.821777,328
851.939636,321
852.057434,324
852.175232,328
852.293091,326
852.410889,340
852.528687,330
852.646545,338
852.764343,332
852.88208,340
852.999939,323
853.117676,320
853.235535,317
853.353271,322
853.471069,332
853.588928,330
853.706604,314
853.824402,332
853.9422,328
854.059998,326
854.177734,317
854.295532,320
854.413269,324
854.531006,320
854.648804,335
854.766541,324
854.884277,321
855.002014,326
855.119751,319
855.237549,333
855.355225,324
855.473022,328
855.590698,317
855.708435,315
855.826172,313
855.943848,336
856.061646,326
856.179321,331
856.296997,322
856.414795,330
856.53241,334
856.650085,336
856.767822,339
856.885559,330
857.003174,327
857.120911,327
857.238586,327
857.356201,331
857.473938,319
857.591614,324
857.709351,319
857.826965,318
857.944641,332
858.062317,324
858.179993,325
858.297668,329
858.415283,320
858.532959,330
858.650574,328
858.768188,333
858.885803,323
859.003479,340
859.121094,324
859.23877,328
859.356384,315
859.473999,327
859.591675,325
859.709229,332
859.826843,328
859.944458,319
860.062012,319
860.179626,325
860.297302,332
860.414856,333
860.532471,313
860.650024,321
860.767639,319
860.885193,334
861.002808,319
861.120361,330
861.237976,326
861.35553,331
861.473022,326
861.590698,305
861.708191,310
861.825745,322
861.943298,318
862.060852,331
862.178406,297
862.295959,333
862.413513,319
862.531006,309
862.64856,312
862.766113,317
862.883667,333
863.00116,310
863.118713,335
863.236206,325
863.353699,318
863.471252,331
863.588745,324
863.706177,319
863.82373,330
863.941162,318
864.058716,308
864.176208,318
864.29364,325
864.411194,330
864.528687,337
864.646118,309
864.763611,317
864.881042,324
864.998535,317
865.116028,327
865.233459,323
865.350891,319
865.468384,318
865.585754,333
865.703308,316
865.820679,315
865.938171,315
866.055542,321
866.173035,320
866.290466,314
866.407837,328
866.52533,332
866.6427,314
866.760071,330
866.877563,319
866.994934,333
867.112305,319
867.229736,328
867.347107,323
867.464539,317
867.58197,321
867.699341,325
867.81665,320
867.934082,331
868.051453,310
868.168823,314
868.286194,309
868.403564,326
868.520935,301
868.638306,324
868.755676,317
868.872986,334
868.990295,310
869.107727,324
869.225037,317
869.342346,324
869.459717,323
869.577026,321
869.694336,321
869.811707,331
869.929016,323
870.046326,325
870.163635,335
870.280945,319
870.398254,329
870.515564,309
870.632812,321
870.750183,319
870.867432,334
870.984741,322
871.102051,314
871.219299,337
871.336609,324
871.453918,344
871.571106,318
871.688416,328
871.805664,315
871.922852,326
872.040222,324
872.157471,320
872.274719,304
872.391968,321
872.509155,320
872.626465,333
872.743652,331
872.860962,334
872.978149,327
873.095337,332
873.212646,327
873.329834,317
873.44696,320
873.564209,312
873.681396,331
873.798645,316
873.915894,321
874.03302,316
874.150208,328
874.267456,325
874.384583,321
874.501831,336
874.618958,317
874.736145,324
874.853333,326
874.970459,327
875.087646,315
875.204834,330
875.32196,316
875.439148,333
875.556274,313
875.673401,321
875.790527,331
875.907715,325
876.024841,312
876.141968,318
876.259094,312
876.376282,328
876.493347,303
876.610474,316
876.7276,325
876.844727,340
876.961853,315
877.078918,332
877.195984,328
877.313171,339
877.430237,325
877.547302,331
877.664368,318
877.781433,333
877.898499,322
878.015625,315
878.13269,324
878.249695,317
878.366821,323
878.483887,317
878.600952,334
878.717957,319
878.834961,329
878.952087,329
879.069092,324
879.186157,320
879.303162,322
879.420227,313
879.537231,307
879.654236,326
879.77124,321
879.888306,318
880.005249,325
880.122314,319
880.239319,341
880.356323,322
880.473328,313
880.590271,317
880.707275,331
880.824341,324
880.941284,326
881.058228,313
881.175232,316
881.292236,328
881.40918,318
881.526123,307
881.643066,318
881.760071,317
881.877014,318
881.993958,325
882.11084,327
882.227783,328
882.344727,318
882.46167,327
882.578613,328
882.695618,315
882.812439,316
882.929382,316
883.046326,318
883.163208,327
883.280151,303
883.397034,323
883.513916,306
883.630798,334
883.747742,324
883.864563,320
883.981506,321
884.098389,328
884.21521,310
884.332153,320
884.448975,309
884.565796,333
884.682678,325
884.7995,327
884.916443,336
885.033264,331
885.150085,328
885.266968,334
885.383789,323
885.500671,336
885.617493,331
885.734314,331
885.851196,341
885.967896,327
886.084717,322
886.201599,330
886.318359,326
886.435181,337
886.552002,319
886.668762,332
886.785645,325
886.902344,319
887.019165,333
887.135925,322
887.252747,324
887.369446,323
887.486267,326
887.603027,329
887.719788,326
887.836548,331
887.953247,325
888.070068,327
888.186829,326
888.303528,330
888.420288,321
888.536987,314
888.653687,317
888.770447,311
888.887146,327
889.003967,326
889.120667,324
889.237305,319
889.354065,307
889.470703,323
889.587463,310
889.704163,325
889.820862,315
889.937561,326
890.054199,306
890.170837,318
890.287598,307
890.404236,333
890.520874,317
890.637634,323
890.754211,318
890.87085,323
890.987549,329
891.104187,320
891.220886,300
891.337463,318
891.454102,312
891.57074,317
891.687378,329
891.804077,308
891.920654,320
892.037231,307
892.15387,315
892.270447,327
892.387085,313
892.503723,327
892.6203,312
892.736877,326
892.853516,319
892.970032,322
893.08667,315
893.203186,325
893.319763,328
893.43634,306
893.552917,314
893.669556,332
893.786011,317
893.902588,308
894.019165,317
894.135681,319
894.252197,317
894.368835,319
894.485291,312
894.601868,313
894.718384,313
894.8349,322
894.951355,310
895.067932,328
895.184448,304
895.300964,326
895.417419,313
895.533936,314
895.650452,316
895.766907,311
895.883423,309
895.999878,333
896.116333,314
896.232849,322
896.349304,324
896.465759,317
896.582214,316
896.698669,316
896.815125,316
896.931641,345
897.048035,300
897.164551,324
897.280884,323
897.397339,312
897.513794,318
897.630249,324
897.746582,300
897.863098,325
897.979431,318
898.095886,322
898.212341,329
898.328674,322
898.445129,306
898.561462,317
898.677795,330
898.794312,334
898.910645,307
899.026978,324
899.143433,319
899.259766,328
899.37616,316
899.492493,334
899.608765,324
899.725159,314
899.841553,312
899.957947,315
900.07428,315
900.190552,331
900.306946,335
900.423157,317
900.53949,311
900.655884,323
900.772156,324
900.888489,316
901.004822,330
901.121033,321
901.237366,304
901.353699,326
901.46991,318
901.586304,313
901.702515,322
901.818787,326
901.93512,325
902.051331,322
902.167603,323
902.283875,319
902.400085,333
902.516418,325
902.632629,320
902.74884,333
902.865112,314
902.981384,342
903.097595,322
903.213867,342
903.330017,317
903.446289,324
903.5625,311
903.67865,323
903.794922,312
903.911072,314
904.027344,303
904.143494,323
904.259705,324
904.375916,324
904.492065,319
904.608215,316
904.724426,310
904.840576,321
904.956726,323
905.072876,321
905.189087,299
905.305176,321
905.421387,312
905.537537,317
905.653687,320
905.769775,314
905.885925,317
906.002014,316
906.118164,308
906.234314,318
906.350403,313
906.466492,315
906.582642,309
906.69873,319
906.814758,315
906.930908,321
907.046936,323
907.163086,326
907.279175,312
907.395264,319
907.511353,305
907.62738,315
907.743408,305
907.859497,326
907.975525,303
908.091553,318
908.207703,317
908.32373,326
908.439758,327
908.555786,310
908.671814,320
908.787842,312
908.90387,307
909.019775,320
909.135864,321
909.251892,314
909.367859,311
909.483826,315
909.599854,306
909.715881,334
909.831848,313
909.947815,318
910.063782,316
910.179749,317
910.295776,307
910.411743,309
910.527649,313
910.643616,314
910.759583,302
910.875488,322
910.991455,310
911.107361,324
911.223267,313
911.339294,327
911.4552,315
911.571106,311
911.687073,316
911.802979,325
911.918823,319
912.034729,321
912.150635,315
912.266602,314
912.382446,316
912.498352,322
912.614197,308
912.730103,315
912.846008,312
792.44574,365
792.56488,390
792.68396,441
792.80304,429
792.92218,382
793.041199,349
793.160339,364
793.279419,371
793.398499,356
793.517578,353
793.636658,342
793.755737,366
793.874817,370
793.993896,367
794.112976,357
794.232056,358
794.351074,366
794.470215,363
794.589233,357
794.708313,338
794.827393,351
794.946411,340
795.065552,353
795.18457,362
795.303589,354
795.422668,366
795.541687,327
795.660767,349
795.779846,338
795.898865,338
796.017883,343
796.136963,361
796.255981,346
796.375061,341
796.49408,337
796.613037,338
796.732117,340
796.851135,343
796.970154,349
797.089233,345
797.208191,348
797.327271,337
797.446228,357
797.565186,338
797.684265,337
797.803223,334
797.922241,335
798.04126,336
798.160278,321
798.279297,325
798.398315,337
798.517273,347
798.636292,316
798.75531,326
798.874268,339
798.993286,346
799.112244,332
799.231323,322
799.350281,347
799.469238,345
799.588257,349
799.707153,333
799.826111,331
799.945129,350
800.064087,334
800.183044,349
800.302063,335
800.421021,340
800.539978,334
800.658936,332
800.777893,332
800.896912,331
801.015747,327
801.134705,329
801.253723,341
801.37262,340
801.491638,325
801.610535,341
801.729492,336
801.84845,351
801.967407,314
802.086243,338
802.205261,330
802.324158,325
802.443115,343
802.562073,330
802.680969,330
802.799927,320
802.918762,333
803.037659,326
803.156677,328
803.275574,317
803.39447,326
803.513428,319
803.632263,326
803.751221,329
803.870117,334
803.989014,334
804.107971,336
804.226746,316
804.345642,325
804.4646,325
804.583496,313
804.702393,343
804.821228,323
804.940125,334
805.059021,329
805.177917,325
805.296814,332
805.415649,339
805.534546,334
805.653442,328
805.772278,339
805.891113,317
806.01001,334
806.128906,328
806.247742,322
806.366577,331
806.485413,326
806.604309,317
806.723145,322
806.84198,323
806.960876,315
807.079712,330
807.198486,318
807.317383,324
807.436218,333
807.554993,335
807.673889,328
807.792725,328
807.91156,320
808.030396,323
808.14917,319
808.268005,327
808.386841,320
808.505676,333
808.624451,329
808.743286,318
808.862122,337
808.980896,317
809.099731,327
809.218506,332
809.337341,329
809.456116,324
809.57489,333
809.693726,321
809.8125,323
809.931274,330
810.050049,324
810.168884,317
810.287659,321
810.406372,335
810.525269,330
810.643982,327
810.762756,327
810.881531,315
811.000305,325
811.11908,330
811.237854,330
811.356567,320
811.475403,319
811.594116,325
811.71283,330
811.831604,330
811.950378,322
812.069153,330
812.187927,336
812.30658,326
812.425415,326
812.544128,339
812.662781,331
812.781616,324
812.900269,330
813.019043,321
813.137756,328
813.256531,328
813.375244,328
813.493896,316
813.612671,333
813.731384,314
813.850037,316
813.96875,327
814.087524,320
814.206238,329
814.324951,325
814.443604,328
814.562256,334
814.68103,328
814.799683,323
814.918335,323
815.037109,329
815.155762,333
815.274475,328
815.393188,322
815.511841,321
815.630554,331
815.749146,323
815.867859,328
815.986572,315
816.105164,331
816.223877,335
816.342529,329
816.461182,322
816.579895,324
816.698486,317
816.817139,314
816.935791,340
817.054504,314
817.173096,315
817.291748,334
817.4104,318
817.529053,325
817.647644,311
817.766235,318
817.884949,333
818.00354,318
818.122192,340
818.240845,320
818.359436,330
818.478088,321
818.59668,316
818.715271,328
818.833923,332
818.952515,325
819.071106,331
819.189758,330
819.30835,319
819.426941,321
819.545532,324
819.664124,313
819.782715,334
819.901306,320
820.019897,321
820.138489,323
820.25708,330
820.375671,317
820.494202,326
820.612732,321
820.731384,327
820.849915,330
820.968506,319
821.087097,321
821.205627,319
821.324158,324
821.442749,325
821.561279,316
821.679871,325
821.798401,323
821.916931,334
822.035461,325
822.154053,307
822.272583,320
822.391174,321
822.509583,315
822.628174,315
822.746704,324
822.865234,329
822.983765,322
823.102295,331
823.220825,319
823.339294,324
823.457825,314
823.576355,324
823.694824,321
823.813354,331
823.931885,312
824.050354,317
824.168884,322
824.287354,320
824.405823,311
824.524353,317
824.642822,335
824.761353,308
824.879822,328
824.998291,325
825.116699,325
825.235291,324
825.353699,310
825.472168,331
825.590637,335
825.709106,329
825.827576,323
825.946045,322
826.064453,322
826.182983,317
826.301392,320
826.4198,318
826.53833,319
826.656738,320
826.775208,318
826.893677,317
827.012024,318
827.130493,323
827.248962,331
827.36731,330
827.485779,319
827.604248,332
827.722595,327
827.841064,327
827.959412,303
828.077942,320
828.196289,327
828.314636,322
828.433105,319
828.551514,320
828.669861,324
828.78833,311
828.906677,315
829.025085,317
829.143433,325
829.261841,316
829.38031,322
829.498657,316
829.617004,321
829.735413,301
829.85376,318
829.972107,319
830.090515,316
830.208862,312
830.327209,328
830.445557,310
830.563904,314
830.682312,312
830.800659,319
830.919006,313
831.037354,328
831.155701,327
831.274048,329
831.392395,324
831.51062,318
831.629028,327
831.747314,330
831.865662,330
831.984009,313
832.102356,333
832.220642,314
832.338928,320
832.457275,325
832.575623,313
832.693909,325
832.812134,307
832.930481,324
833.048828,325
833.167114,330
833.2854,334
833.403687,318
833.521973,324
833.640259,324
833.758545,315
833.876831,319
833.995056,310
834.113281,323
834.231628,308
834.349915,322
834.468201,320
834.586426,323
834.704651,313
834.822998,323
834.941162,320
835.059448,320
835.177673,330
835.295959,314
835.414246,328
835.53241,323
835.650635,326
835.768921,307
835.887146,314
836.005371,336
836.123596,332
836.241821,305
836.360046,329
836.478271,333
836.596497,315
836.714722,325
836.832886,312
836.95105,325
837.069336,329
837.1875,322
837.305725,319
837.423889,321
837.542053,316
837.660339,329
837.778503,303
837.896667,315
838.014832,328
838.132996,311
838.25116,320
838.369385,326
838.487488,312
838.605713,328
838.723877,313
838.84198,309
838.960205,328
839.078308,321
839.196472,321
839.314636,321
839.4328,318
839.550964,319
839.669067,325
839.787231,314
839.905396,329
840.023499,328
840.141602,335
840.259766,315
840.377869,328
840.495972,324
840.614136,325
840.732239,329
840.850342,319
840.968445,334
841.086548,312
841.204651,329
841.322754,329
841.440918,332
841.55896,331
841.677002,319
841.795166,323
841.913208,323
842.031311,325
842.149353,316
842.267456,326
842.385498,339
842.503601,326
842.621643,326
842.739746,322
842.857788,327
842.97583,327
843.093933,320
843.211975,323
843.330017,327
843.44812,323
843.566101,320
843.684204,320
843.802246,322
843.920227,326
844.038269,317
844.156311,325
844.274292,333
844.392395,311
844.510376,327
844.628357,323
844.74646,326
844.864441,332
844.982422,326
845.100403,325
845.218384,313
845.336426,330
845.454468,329
845.572449,318
845.69043,325
845.808411,322
845.926453,315
846.044373,326
846.162354,317
846.280396,323
846.398315,333
846.516296,317
846.634216,323
846.752197,317
846.870178,323
846.988098,329
847.106079,319
847.22406,325
847.34198,336
847.4599,329
847.577881,319
847.695801,330
847.813782,343
847.931641,320
848.049561,330
848.167603,324
848.285461,336
848.403381,332
848.521362,328
848.639221,331
848.75708,325
848.875,328
848.99292,319
849.110901,329
849.22876,323
849.34668,319
849.464539,332
849.582458,320
849.700317,332
849.818176,317
849.936096,319
850.053955,324
850.171875,330
850.289673,314
850.407593,332
850.525452,327
850.643311,313
850.761169,318
850.878967,324
850.996887,315
851.114746,328
851.232544,318
851.350403,304
851.468262,321
851.58606,327
851.703979,321
851.821777,326
851.939636,312
852.057434,322
852.175232,330
852.293091,307
852.410889,345
852.528687,328
852.646545,322
852.764343,328
852.88208,325
852.999939,318
853.117676,327
853.235535,327
853.353271,329
853.471069,320
853.588928,325
853.706604,332
853.824402,323
853.9422,331
854.059998,326
854.177734,325
854.295532,318
854.413269,332
854.531006,325
854.648804,325
854.766541,319
854.884277,333
855.002014,305
855.119751,320
855.237549,333
855.355225,315
855.473022,308
855.590698,328
855.708435,321
855.826172,327
855.943848,321
856.061646,316
856.179321,327
856.296997,321
856.414795,307
856.53241,320
856.650085,313
856.767822,327
856.885559,326
857.003174,335
857.120911,335
857.238586,326
857.356201,335
857.473938,339
857.591614,331
857.709351,327
857.826965,330
857.944641,341
858.062317,339
858.179993,319
858.297668,323
858.415283,314
858.532959,323
858.650574,309
858.768188,326
858.885803,325
859.003479,326
859.121094,331
859.23877,321
859.356384,328
859.473999,327
859.591675,327
859.709229,328
859.826843,336
859.944458,324
860.062012,330
860.179626,323
860.297302,321
860.414856,319
860.532471,323
860.650024,320
860.767639,324
860.885193,329
861.002808,314
861.120361,314
861.237976,324
861.35553,318
861.473022,328
861.590698,321
861.708191,323
861.825745,315
861.943298,323
862.060852,309
862.178406,325
862.295959,331
862.413513,332
862.531006,317
862.64856,325
862.766113,315
862.883667,315
863.00116,319
863.118713,329
863.236206,320
863.353699,332
863.471252,309
863.588745,325
863.706177,302
863.82373,326
863.941162,325
864.058716,321
864.176208,317
864.29364,318
864.411194,328
864.528687,318
864.646118,323
864.763611,320
864.881042,312
864.998535,334
865.116028,317
865.233459,322
865.350891,315
865.468384,329
865.585754,313
865.703308,323
865.820679,311
865.938171,320
866.055542,322
866.173035,322
866.290466,321
866.407837,312
866.52533,317
866.6427,310
866.760071,330
866.877563,328
866.994934,323
867.112305,317
867.229736,321
867.347107,336
867.464539,326
867.58197,318
867.699341,310
867.81665,323
867.934082,308
868.051453,311
868.168823,322
868.286194,322
868.403564,321
868.520935,329
868.638306,325
868.755676,315
868.872986,325
868.990295,311
869.107727,313
869.225037,321
869.342346,316
869.459717,322
869.577026,317
869.694336,320
869.811707,325
869.929016,320
870.046326,331
870.163635,339
870.280945,332
870.398254,326
870.515564,312
870.632812,323
870.750183,333
870.867432,317
870.984741,314
871.102051,334
871.219299,334
871.336609,345
871.453918,317
871.571106,330
871.688416,319
871.805664,326
871.922852,326
872.040222,327
872.157471,333
872.274719,323
872.391968,327
872.509155,317
872.626465,334
872.743652,324
872.860962,318
872.978149,334
873.095337,329
873.212646,326
873.329834,316
873.44696,320
873.564209,329
873.681396,320
873.798645,324
873.915894,320
874.03302,325
874.150208,332
874.267456,316
874.384583,327
874.501831,311
874.618958,322
874.736145,330
874.853333,330
874.970459,323
875.087646,333
875.204834,321
875.32196,331
875.439148,314
875.556274,322
875.673401,314
875.790527,318
875.907715,319
876.024841,333
876.141968,314
876.259094,323
876.376282,318
876.493347,330
876.610474,311
876.7276,323
876.844727,325
876.961853,315
877.078918,339
877.195984,322
877.313171,320
877.430237,330
877.547302,315
877.664368,331
877.781433,318
877.898499,325
878.015625,318
878.13269,337
878.249695,306
878.366821,328
878.483887,323
878.600952,307
878.717957,309
878.834961,333
878.952087,318
879.069092,329
879.186157,314
879.303162,314
879.420227,323
879.537231,317
879.654236,311
879.77124,309
879.888306,322
880.005249,328
880.122314,313
880.239319,326
880.356323,306
880.473328,312
880.590271,327
880.707275,329
880.824341,318
880.941284,329
881.058228,326
881.175232,320
881.292236,324
881.40918,331
881.526123,324
881.643066,310
881.760071,316
881.877014,332
881.993958,325
882.11084,328
882.227783,308
882.344727,326
882.46167,312
882.578613,319
882.695618,320
882.812439,339
882.929382,317
883.046326,323
883.163208,326
883.280151,309
883.397034,319
883.513916,321
883.630798,313
883.747742,324
883.864563,321
883.981506,319
884.098389,327
884.21521,311
884.332153,322
884.448975,321
884.565796,319
884.682678,320
884.7995,324
884.916443,346
885.033264,317
885.150085,325
885.266968,324
885.383789,332
885.500671,329
885.617493,337
885.734314,325
885.851196,336
885.967896,320
886.084717,327
886.201599,327
886.318359,319
886.435181,333
886.552002,321
886.668762,333
886.785645,332
886.902344,326
887.019165,318
887.135925,318
887.252747,323
887.369446,319
887.486267,323
887.603027,344
887.719788,326
887.836548,332
887.953247,329
888.070068,318
888.186829,319
888.303528,307
888.420288,321
888.536987,320
888.653687,317
888.770447,320
888.887146,314
889.003967,314
889.120667,324
889.237305,299
889.354065,320
889.470703,310
889.587463,311
889.704163,319
889.820862,324
889.937561,305
890.054199,328
890.170837,325
890.287598,310
890.404236,324
890.520874,325
890.637634,314
890.754211,323
890.87085,309
890.987549,317
891.104187,309
891.220886,312
891.337463,322
891.454102,324
891.57074,322
891.687378,324
891.804077,315
891.920654,323
892.037231,330
892.15387,305
892.270447,318
892.387085,314
892.503723,329
892.6203,317
892.736877,312
892.853516,323
892.970032,316
893.08667,329
893.203186,322
893.319763,305
893.43634,324
893.552917,317
893.669556,316
893.786011,323
893.902588,309
894.019165,314
894.135681,326
894.252197,330
894.368835,315
894.485291,317
894.601868,322
894.718384,310
894.8349,313
894.951355,323
895.067932,309
895.184448,326
895.300964,328
895.417419,330
895.533936,314
895.650452,310
895.766907,315
895.883423,322
895.999878,308
896.116333,338
896.232849,312
896.349304,307
896.465759,316
896.582214,318
896.698669,313
896.815125,323
896.931641,312
897.048035,315
897.164551,322
897.280884,337
897.397339,319
897.513794,331
897.630249,306
897.746582,320
897.863098,318
897.979431,324
898.095886,318
898.212341,314
898.328674,321
898.445129,332
898.561462,317
898.677795,318
898.794312,310
898.910645,330
899.026978,316
899.143433,312
899.259766,310
899.37616,322
899.492493,319
899.608765,322
899.725159,319
899.841553,324
899.957947,310
900.07428,319
900.190552,307
900.306946,316
900.423157,320
900.53949,322
900.655884,303
900.772156,317
900.888489,314
901.004822,321
901.121033,319
901.237366,337
901.353699,326
901.46991,317
901.586304,305
901.702515,317
901.818787,311
901.93512,321
902.051331,315
902.167603,335
902.283875,313
902.400085,328
902.516418,324
902.632629,314
902.74884,328
902.865112,324
902.981384,311
903.097595,332
903.213867,327
903.330017,330
903.446289,334
903.5625,317
903.67865,328
903.794922,315
903.911072,313
904.027344,332
904.143494,315
904.259705,306
904.375916,334
904.492065,329
904.608215,319
904.724426,330
904.840576,320
904.956726,312
905.072876,330
905.189087,323
905.305176,321
905.421387,315
905.537537,321
905.653687,320
905.769775,309
905.885925,305
906.002014,327
906.118164,319
906.234314,305
906.350403,324
906.466492,317
906.582642,326
906.69873,312
906.814758,315
906.930908,321
907.046936,315
907.163086,303
907.279175,319
907.395264,319
907.511353,312
907.62738,330
907.743408,326
907.859497,316
907.975525,329
908.091553,323
908.207703,336
908.32373,314
908.439758,311
908.555786,313
908.671814,318
908.787842,321
908.90387,312
909.019775,304
909.135864,327
909.251892,324
909.367859,323
909.483826,314
909.599854,329
909.715881,312
909.831848,319
909.947815,326
910.063782,324
910.179749,313
910.295776,328
910.411743,313
910.527649,319
910.643616,313
910.759583,322
910.875488,315
910.991455,322
911.107361,323
911.223267,313
911.339294,316
911.4552,312
911.571106,321
911.687073,320
911.802979,318
911.918823,323
912.034729,313
912.150635,316
912.266602,320
912.382446,316
912.498352,318
912.614197,315
912.730103,309
912.846008,317
792.44574,365
792.56488,394
792.68396,441
792.80304,415
792.92218,383
793.041199,365
793.160339,346
793.279419,364
793.398499,370
793.517578,362
793.636658,339
793.755737,366
793.874817,383
793.993896,368
794.112976,361
794.232056,348
794.351074,335
794.470215,359
794.589233,364
794.708313,342
794.827393,342
794.946411,346
795.065552,354
795.18457,372
795.303589,362
795.422668,354
795.541687,353
795.660767,352
795.779846,342
795.898865,360
796.017883,342
796.136963,335
796.255981,348
796.375061,345
796.49408,367
796.613037,347
796.732117,342
796.851135,336
796.970154,348
797.089233,344
797.208191,345
797.327271,339
797.446228,339
797.565186,351
797.684265,334
797.803223,352
797.922241,333
798.04126,349
798.160278,344
798.279297,347
798.398315,332
798.517273,327
798.636292,333
798.75531,344
798.874268,341
798.993286,344
799.112244,345
799.231323,341
799.350281,341
799.469238,324
799.588257,335
799.707153,334
799.826111,337
799.945129,339
800.064087,332
800.183044,328
800.302063,325
800.421021,342
800.539978,327
800.658936,325
800.777893,344
800.896912,326
801.015747,342
801.134705,332
801.253723,342
801.37262,340
801.491638,330
801.610535,320
801.729492,332
801.84845,326
801.967407,337
802.086243,322
802.205261,331
802.324158,336
802.443115,342
802.562073,325
802.680969,332
802.799927,327
802.918762,337
803.037659,328
803.156677,334
803.275574,325
803.39447,333
803.513428,314
803.632263,332
803.751221,335
803.870117,324
803.989014,336
804.107971,328
804.226746,341
804.345642,325
804.4646,337
804.583496,319
804.702393,335
804.821228,319
804.940125,338
805.059021,322
805.177917,332
805.296814,336
805.415649,339
805.534546,331
805.653442,338
805.772278,314
805.891113,323
806.01001,338
806.128906,326
806.247742,323
806.366577,334
806.485413,330
806.604309,323
806.723145,327
806.84198,305
806.960876,334
807.079712,330
807.198486,330
807.317383,332
807.436218,330
807.554993,332
807.673889,321
807.792725,335
807.91156,336
808.030396,320
808.14917,330
808.268005,320
808.386841,330
808.505676,331
808.624451,338
808.743286,325
808.862122,320
808.980896,318
809.099731,327
809.218506,326
809.337341,347
809.456116,312
809.57489,328
809.693726,333
809.8125,321
809.931274,330
810.050049,326
810.168884,340
810.287659,322
810.406372,322
810.525269,334
810.643982,335
810.762756,327
810.881531,336
811.000305,333
811.11908,323
811.237854,323
811.356567,329
811.475403,326
811.594116,331
811.71283,325
811.831604,339
811.950378,323
812.069153,320
812.187927,329
812.30658,338
812.425415,340
812.544128,318
812.662781,308
812.781616,333
812.900269,315
813.019043,318
813.137756,326
813.256531,322
813.375244,326
813.493896,334
813.612671,330
813.731384,332
813.850037,328
813.96875,313
814.087524,322
814.206238,312
814.324951,322
814.443604,320
814.562256,322
814.68103,329
814.799683,315
814.918335,316
815.037109,335
815.155762,325
815.274475,329
815.393188,328
815.511841,322
815.630554,330
815.749146,324
815.867859,321
815.986572,334
816.105164,312
816.223877,337
816.342529,324
816.461182,324
816.579895,332
816.698486,323
816.817139,330
816.935791,325
817.054504,330
817.173096,322
817.291748,327
817.4104,323
817.529053,318
817.647644,317
817.766235,323
817.884949,312
818.00354,339
818.122192,328
818.240845,319
818.359436,334
818.478088,321
818.59668,318
818.715271,317
818.833923,324
818.952515,316
819.071106,328
819.189758,320
819.30835,315
819.426941,336
819.545532,315
819.664124,331
819.782715,320
819.901306,322
820.019897,326
820.138489,317
820.25708,338
820.375671,320
820.494202,317
820.612732,336
820.731384,315
820.849915,310
820.968506,326
821.087097,319
821.205627,324
821.324158,314
821.442749,328
821.561279,314
821.679871,313
821.798401,317
821.916931,319
822.035461,324
822.154053,313
822.272583,319
822.391174,323
822.509583,324
822.628174,325
822.746704,325
822.865234,332
822.983765,320
823.102295,303
823.220825,312
823.339294,327
823.457825,320
823.576355,324
823.694824,328
823.813354,310
823.931885,320
824.050354,324
824.168884,320
824.287354,323
824.405823,320
824.524353,332
824.642822,327
824.761353,334
824.879822,321
824.998291,317
825.116699,319
825.235291,329
825.353699,318
825.472168,315
825.590637,310
825.709106,323
825.827576,318
825.946045,319
826.064453,324
826.182983,316
826.301392,322
826.4198,315
826.53833,320
826.656738,308
826.775208,317
826.893677,317
827.012024,330
827.130493,315
827.248962,320
827.36731,316
827.485779,319
827.604248,327
827.722595,328
827.841064,325
827.959412,315
828.077942,326
828.196289,309
828.314636,325
828.433105,309
828.551514,332
828.669861,310
828.78833,320
828.906677,329
829.025085,319
829.143433,328
829.261841,323
829.38031,321
829.498657,314
829.617004,322
829.735413,321
829.85376,310
829.972107,324
830.090515,307
830.208862,313
830.327209,317
830.445557,314
830.563904,337
830.682312,320
830.800659,312
830.919006,323
831.037354,327
831.155701,319
831.274048,321
831.392395,322
831.51062,328
831.629028,328
831.747314,319
831.865662,329
831.984009,321
832.102356,316
832.220642,322
832.338928,313
832.457275,322
832.575623,318
832.693909,331
832.812134,328
832.930481,326
833.048828,323
833.167114,332
833.2854,317
833.403687,307
833.521973,336
833.640259,315
833.758545,310
833.876831,329
833.995056,332
834.113281,323
834.231628,339
834.349915,314
834.468201,316
834.586426,314
834.704651,319
834.822998,322
834.941162,318
835.059448,334
835.177673,317
835.295959,320
835.414246,323
835.53241,321
835.650635,314
835.768921,323
835.887146,318
836.005371,316
836.123596,315
836.241821,331
836.360046,327
836.478271,318
836.596497,320
836.714722,320
836.832886,324
836.95105,315
837.069336,319
837.1875,312
837.305725,325
837.423889,333
837.542053,326
837.660339,323
837.778503,330
837.896667,316
838.014832,323
838.132996,323
838.25116,333
838.369385,321
838.487488,321
838.605713,332
838.723877,322
838.84198,320
838.960205,308
839.078308,312
839.196472,316
839.314636,320
839.4328,329
839.550964,323
839.669067,321
839.787231,320
839.905396,324
840.023499,325
840.141602,312
840.259766,330
840.377869,314
840.495972,318
840.614136,324
840.732239,326
840.850342,313
840.968445,318
841.086548,329
841.204651,330
841.322754,329
841.440918,317
841.55896,323
841.677002,330
841.795166,326
841.913208,316
842.031311,332
842.149353,327
842.267456,317
842.385498,326
842.503601,319
842.621643,307
842.739746,329
842.857788,333
842.97583,325
843.093933,311
843.211975,314
843.330017,336
843.44812,328
843.566101,320
843.684204,315
843.802246,324
843.920227,326
844.038269,333
844.156311,301
844.274292,328
844.392395,324
844.510376,324
844.628357,328
844.74646,327
844.864441,313
844.982422,320
845.100403,324
845.218384,319
845.336426,323
845.454468,308
845.572449,310
845.69043,317
845.808411,330
845.926453,319
846.044373,310
846.162354,319
846.280396,329
846.398315,316
846.516296,322
846.634216,327
846.752197,330
846.870178,336
846.988098,323
847.106079,313
847.22406,328
847.34198,300
847.4599,330
847.577881,325
847.695801,318
847.813782,320
847.931641,335
848.049561,329
848.167603,317
848.285461,330
848.403381,319
848.521362,321
848.639221,322
848.75708,322
848.875,319
848.99292,331
849.110901,324
849.22876,332
849.34668,319
849.464539,326
849.582458,311
849.700317,324
849.818176,315
849.936096,335
850.053955,312
850.171875,327
850.289673,322
850.407593,316
850.525452,338
850.643311,328
850.761169,322
850.878967,313
850.996887,319
851.114746,325
851.232544,317
851.350403,322
851.468262,324
851.58606,325
851.703979,319
851.821777,328
851.939636,314
852.057434,312
852.175232,325
852.293091,325
852.410889,319
852.528687,336
852.646545,315
852.764343,324
852.88208,320
852.999939,334
853.117676,322
853.235535,332
853.353271,321
853.471069,321
853.588928,310
853.706604,324
853.824402,323
853.9422,330
854.059998,324
854.177734,311
854.295532,319
854.413269,334
854.531006,320
854.648804,311
854.766541,320
854.884277,330
855.002014,318
855.119751,331
855.237549,319
855.355225,322
855.473022,318
855.590698,332
855.708435,330
855.826172,317
855.943848,316
856.061646,314
856.179321,316
856.296997,325
856.414795,296
856.53241,322
856.650085,337
856.767822,318
856.885559,327
857.003174,335
857.120911,309
857.238586,339
857.356201,337
857.473938,326
857.591614,323
857.709351,321
857.826965,316
857.944641,307
858.062317,329
858.179993,326
858.297668,320
858.415283,327
858.532959,333
858.650574,321
858.768188,327
858.885803,333
859.003479,334
859.121094,335
859.23877,321
859.356384,315
859.473999,322
859.591675,333
859.709229,337
859.826843,316
859.944458,317
860.062012,325
860.179626,322
860.297302,316
860.414856,325
860.532471,320
860.650024,320
860.767639,317
860.885193,320
861.002808,309
861.120361,320
861.237976,318
861.35553,314
861.473022,318
861.590698,324
861.708191,323
861.825745,309
861.943298,331
862.060852,313
862.178406,317
862.295959,327
862.413513,327
862.531006,306
862.64856,310
862.766113,322
862.883667,323
863.00116,332
863.118713,329
863.236206,314
863.353699,325
863.471252,321
863.588745,327
863.706177,318
863.82373,334
863.941162,319
864.058716,320
864.176208,314
864.29364,323
864.411194,318
864.528687,321
864.646118,302
864.763611,320
864.881042,302
864.998535,316
865.116028,315
865.233459,326
865.350891,310
865.468384,329
865.585754,323
865.703308,322
865.820679,318
865.938171,311
866.055542,327
866.173035,320
866.290466,313
866.407837,318
866.52533,320
866.6427,325
866.760071,318
866.877563,319
866.994934,340
867.112305,308
867.229736,322
867.347107,325
867.464539,313
867.58197,322
867.699341,337
867.81665,320
867.934082,320
868.051453,325
868.168823,335
868.286194,309
868.403564,326
868.520935,332
868.638306,317
868.755676,309
868.872986,320
868.990295,326
869.107727,317
869.225037,315
869.342346,326
869.459717,315
869.577026,332
869.694336,316
869.811707,329
869.929016,330
870.046326,335
870.163635,322
870.280945,327
870.398254,331
870.515564,326
870.632812,330
870.750183,324
870.867432,307
870.984741,325
871.102051,341
871.219299,327
871.336609,328
871.453918,317
871.571106,334
871.688416,322
871.805664,325
871.922852,333
872.040222,322
872.157471,327
872.274719,323
872.391968,320
872.509155,337
872.626465,324
872.743652,329
872.860962,318
872.978149,313
873.095337,321
873.212646,337
873.329834,325
873.44696,319
873.564209,331
873.681396,331
873.798645,322
873.915894,323
874.03302,334
874.150208,315
874.267456,329
874.384583,323
874.501831,331
874.618958,325
874.736145,327
874.853333,325
874.970459,315
875.087646,324
875.204834,316
875.32196,325
875.439148,327
875.556274,316
875.673401,315
875.790527,316
875.907715,324
876.024841,332
876.141968,325
876.259094,309
876.376282,315
876.493347,335
876.610474,325
876.7276,333
876.844727,315
876.961853,317
877.078918,318
877.195984,330
877.313171,313
877.430237,335
877.547302,333
877.664368,317
877.781433,322
877.898499,326
878.015625,330
878.13269,320
878.249695,329
878.366821,323
878.483887,324
878.600952,315
878.717957,319
878.834961,321
878.952087,310
879.069092,324
879.186157,327
879.303162,317
879.420227,308
879.537231,329
879.654236,320
879.77124,322
879.888306,317
880.005249,331
880.122314,333
880.239319,317
880.356323,321
880.473328,341
880.590271,312
880.707275,313
880.824341,322
880.941284,331
881.058228,322
881.175232,317
881.292236,317
881.40918,336
881.526123,304
881.643066,310
881.760071,320
881.877014,328
881.993958,321
882.11084,318
882.227783,312
882.344727,301
882.46167,313
882.578613,319
882.695618,316
882.812439,329
882.929382,319
883.046326,323
883.163208,314
883.280151,330
883.397034,319
883.513916,329
883.630798,312
883.747742,303
883.864563,323
883.981506,321
884.098389,308
884.21521,314
884.332153,323
884.448975,326
884.565796,331
884.682678,322
884.7995,333
884.916443,318
885.033264,321
885.150085,319
885.266968,322
885.383789,337
885.500671,323
885.617493,327
885.734314,335
885.851196,339
885.967896,325
886.084717,331
886.201599,342
886.318359,330
886.435181,317
886.552002,336
886.668762,307
886.785645,323
886.902344,324
887.019165,320
887.135925,338
887.252747,330
887.369446,331
887.486267,323
887.603027,313
887.719788,320
887.836548,334
887.953247,346
888.070068,330
888.186829,335
888.303528,327
888.420288,333
888.536987,326
888.653687,310
888.770447,315
888.887146,328
889.003967,310
889.120667,314
889.237305,328
889.354065,324
889.470703,309
889.587463,322
889.704163,326
889.820862,307
889.937561,323
890.054199,320
890.170837,307
890.287598,308
890.404236,310
890.520874,332
890.637634,313
890.754211,319
890.87085,314
890.987549,315
891.104187,313
891.220886,330
891.337463,305
891.454102,314
891.57074,306
891.687378,320
891.804077,315
891.920654,319
892.037231,307
892.15387,319
892.270447,312
892.387085,323
892.503723,322
892.6203,334
892.736877,315
892.853516,315
892.970032,315
893.08667,319
893.203186,314
893.319763,312
893.43634,315
893.552917,312
893.669556,314
893.786011,321
893.902588,316
894.019165,324
894.135681,330
894.252197,309
894.368835,325
894.485291,325
894.601868,324
894.718384,307
894.8349,318
894.951355,321
895.067932,324
895.184448,315
895.300964,321
895.417419,320
895.533936,327
895.650452,329
895.766907,317
895.883423,317
895.999878,304
896.116333,324
896.232849,302
896.349304,313
896.465759,317
896.582214,316
896.698669,318
896.815125,314
896.931641,308
897.048035,326
897.164551,317
897.280884,309
897.397339,317
897.513794,308
897.630249,332
897.746582,318
897.863098,314
897.979431,318
898.095886,320
898.212341,322
898.328674,322
898.445129,333
898.561462,310
898.677795,312
898.794312,324
898.910645,312
899.026978,318
899.143433,314
899.259766,319
899.37616,322
899.492493,315
899.608765,320
899.725159,315
899.841553,315
899.957947,312
900.07428,307
900.190552,331
900.306946,324
900.423157,307
900.53949,322
900.655884,315
900.772156,329
900.888489,315
901.004822,326
901.121033,317
901.237366,310
901.353699,329
901.46991,322
901.586304,317
901.702515,324
901.818787,325
901.93512,316
902.051331,318
902.167603,330
902.283875,311
902.400085,324
902.516418,304
902.632629,340
902.74884,323
902.865112,336
902.981384,324
903.097595,328
903.213867,339
903.330017,307
903.446289,336
903.5625,315
903.67865,320
903.794922,321
903.911072,317
904.027344,322
904.143494,315
904.259705,325
904.375916,324
904.492065,313
904.608215,321
904.724426,325
904.840576,331
904.956726,307
905.072876,316
905.189087,326
905.305176,316
905.421387,322
905.537537,324
905.653687,316
905.769775,313
905.885925,313
906.002014,309
906.118164,326
906.234314,320
906.350403,324
906.466492,323
906.582642,315
906.69873,303
906.814758,316
906.930908,330
907.046936,321
907.163086,316
907.279175,307
907.395264,302
907.511353,337
907.62738,313
907.743408,327
907.859497,330
907.975525,320
908.091553,304
908.207703,317
908.32373,329
908.439758,307
908.555786,310
908.671814,325
908.787842,324
908.90387,320
909.019775,311
909.135864,313
909.251892,319
909.367859,325
909.483826,320
909.599854,320
909.715881,320
909.831848,310
909.947815,320
910.063782,317
910.179749,320
910.295776,314
910.411743,329
910.527649,302
910.643616,322
910.759583,337
910.875488,315
910.991455,307
911.107361,317
911.223267,326
911.339294,314
911.4552,315
911.571106,329
911.687073,317
911.802979,321
911.918823,335
912.034729,300
912.150635,320
912.266602,326
912.382446,321
912.498352,318
912.614197,311
912.730103,324
912.846008,308
