792.44574,326
792.56488,358
792.68396,403
792.80304,393
792.92218,344
793.041199,323
793.160339,333
793.279419,343
793.398499,345
793.517578,319
793.636658,318
793.755737,348
793.874817,366
793.993896,340
794.112976,328
794.232056,322
794.351074,329
794.470215,337
794.589233,329
794.708313,326
794.827393,333
794.946411,322
795.065552,339
795.18457,323
795.303589,327
795.422668,325
795.541687,325
795.660767,332
795.779846,343
795.898865,327
796.017883,326
796.136963,344
796.255981,328
796.375061,334
796.49408,320
796.613037,338
796.732117,324
796.851135,330
796.970154,339
797.089233,320
797.208191,347
797.327271,315
797.446228,335
797.565186,327
797.684265,324
797.803223,322
797.922241,331
798.04126,324
798.160278,324
798.279297,321
798.398315,329
798.517273,327
798.636292,336
798.75531,322
798.874268,329
798.993286,307
799.112244,328
799.231323,321
799.350281,338
799.469238,325
799.588257,321
799.707153,328
799.826111,328
799.945129,331
800.064087,327
800.183044,331
800.302063,322
800.421021,321
800.539978,343
800.658936,331
800.777893,338
800.896912,320
801.015747,319
801.134705,334
801.253723,326
801.37262,334
801.491638,324
801.610535,328
801.729492,325
801.84845,319
801.967407,326
802.086243,328
802.205261,335
802.324158,325
802.443115,315
802.562073,317
802.680969,319
802.799927,330
802.918762,339
803.037659,314
803.156677,328
803.275574,322
803.39447,321
803.513428,316
803.632263,332
803.751221,305
803.870117,340
803.989014,315
804.107971,332
804.226746,309
804.345642,335
804.4646,320
804.583496,339
804.702393,322
804.821228,313
804.940125,332
805.059021,325
805.177917,316
805.296814,334
805.415649,320
805.534546,330
805.653442,322
805.772278,310
805.891113,323
806.01001,328
806.128906,330
806.247742,311
806.366577,320
806.485413,319
806.604309,317
806.723145,324
806.84198,321
806.960876,325
807.079712,334
807.198486,330
807.317383,328
807.436218,331
807.554993,337
807.673889,334
807.792725,330
807.91156,307
808.030396,319
808.14917,324
808.268005,318
808.386841,318
808.505676,328
808.624451,327
808.743286,313
808.862122,317
808.980896,323
809.099731,319
809.218506,317
809.337341,331
809.456116,326
809.57489,321
809.693726,326
809.8125,325
809.931274,323
810.050049,333
810.168884,327
810.287659,322
810.406372,315
810.525269,325
810.643982,321
810.762756,324
810.881531,335
811.000305,334
811.11908,325
811.237854,316
811.356567,321
811.475403,327
811.594116,317
811.71283,337
811.831604,328
811.950378,330
812.069153,322
812.187927,323
812.30658,329
812.425415,330
812.544128,320
812.662781,312
812.781616,313
812.900269,328
813.019043,317
813.137756,325
813.256531,310
813.375244,319
813.493896,317
813.612671,334
813.731384,336
813.850037,332
813.96875,323
814.087524,320
814.206238,306
814.324951,326
814.443604,303
814.562256,310
814.68103,312
814.799683,337
814.918335,314
815.037109,332
815.155762,323
815.274475,323
815.393188,311
815.511841,310
815.630554,343
815.749146,326
815.867859,319
815.986572,332
816.105164,308
816.223877,334
816.342529,330
816.461182,328
816.579895,322
816.698486,320
816.817139,316
816.935791,322
817.054504,323
817.173096,323
817.291748,319
817.4104,337
817.529053,313
817.647644,314
817.766235,313
817.884949,315
818.00354,326
818.122192,303
818.240845,326
818.359436,328
818.478088,319
818.59668,316
818.715271,315
818.833923,330
818.952515,311
819.071106,327
819.189758,314
819.30835,320
819.426941,316
819.545532,326
819.664124,319
819.782715,321
819.901306,326
820.019897,317
820.138489,309
820.25708,318
820.375671,306
820.494202,320
820.612732,319
820.731384,321
820.849915,320
820.968506,331
821.087097,333
821.205627,316
821.324158,327
821.442749,320
821.561279,316
821.679871,334
821.798401,324
821.916931,317
822.035461,300
822.154053,325
822.272583,317
822.391174,321
822.509583,322
822.628174,317
822.746704,313
822.865234,318
822.983765,318
823.102295,328
823.220825,332
823.339294,321
823.457825,316
823.576355,330
823.694824,314
823.813354,327
823.931885,325
824.050354,322
824.168884,322
824.287354,326
824.405823,304
824.524353,311
824.642822,316
824.761353,323
824.879822,320
824.998291,317
825.116699,313
825.235291,317
825.353699,322
825.472168,317
825.590637,319
825.709106,321
825.827576,306
825.946045,331
826.064453,319
826.182983,322
826.301392,318
826.4198,324
826.53833,317
826.656738,321
826.775208,307
826.893677,331
827.012024,321
827.130493,325
827.248962,317
827.36731,321
827.485779,333
827.604248,309
827.722595,317
827.841064,309
827.959412,317
828.077942,332
828.196289,309
828.314636,321
828.433105,304
828.551514,320
828.669861,310
828.78833,323
828.906677,315
829.025085,329
829.143433,302
829.261841,328
829.38031,314
829.498657,319
829.617004,323
829.735413,325
829.85376,309
829.972107,317
830.090515,304
830.208862,325
830.327209,307
830.445557,323
830.563904,308
830.682312,327
830.800659,326
830.919006,308
831.037354,321
831.155701,324
831.274048,327
831.392395,323
831.51062,316
831.629028,315
831.747314,316
831.865662,322
831.984009,306
832.102356,333
832.220642,327
832.338928,307
832.457275,318
832.575623,313
832.693909,310
832.812134,313
832.930481,315
833.048828,327
833.167114,321
833.2854,320
833.403687,314
833.521973,307
833.640259,326
833.758545,318
833.876831,305
833.995056,319
834.113281,320
834.231628,324
834.349915,309
834.468201,330
834.586426,319
834.704651,328
834.822998,313
834.941162,305
835.059448,308
835.177673,330
835.295959,312
835.414246,317
835.53241,321
835.650635,329
835.768921,318
835.887146,322
836.005371,328
836.123596,323
836.241821,326
836.360046,312
836.478271,325
836.596497,326
836.714722,318
836.832886,313
836.95105,309
837.069336,332
837.1875,323
837.305725,317
837.423889,311
837.542053,314
837.660339,330
837.778503,321
837.896667,307
838.014832,324
838.132996,325
838.25116,318
838.369385,320
838.487488,330
838.605713,309
838.723877,321
838.84198,318
838.960205,312
839.078308,319
839.196472,334
839.314636,308
839.4328,322
839.550964,319
839.669067,319
839.787231,301
839.905396,332
840.023499,300
840.141602,328
840.259766,328
840.377869,331
840.495972,306
840.614136,316
840.732239,320
840.850342,320
840.968445,313
841.086548,315
841.204651,325
841.322754,318
841.440918,317
841.55896,308
841.677002,322
841.795166,319
841.913208,324
842.031311,306
842.149353,317
842.267456,321
842.385498,310
842.503601,322
842.621643,331
842.739746,320
842.857788,306
842.97583,312
843.093933,325
843.211975,315
843.330017,329
843.44812,321
843.566101,308
843.684204,325
843.802246,322
843.920227,324
844.038269,312
844.156311,314
844.274292,302
844.392395,332
844.510376,304
844.628357,328
844.74646,311
844.864441,329
844.982422,322
845.100403,332
845.218384,321
845.336426,319
845.454468,320
845.572449,325
845.69043,311
845.808411,325
845.926453,319
846.044373,322
846.162354,329
846.280396,316
846.398315,314
846.516296,322
846.634216,314
846.752197,315
846.870178,307
846.988098,315
847.106079,327
847.22406,324
847.34198,316
847.4599,323
847.577881,319
847.695801,327
847.813782,307
847.931641,309
848.049561,312
848.167603,320
848.285461,310
848.403381,318
848.521362,313
848.639221,325
848.75708,315
848.875,315
848.99292,319
849.110901,329
849.22876,324
849.34668,306
849.464539,317
849.582458,320
849.700317,324
849.818176,321
849.936096,327
850.053955,316
850.171875,318
850.289673,308
850.407593,309
850.525452,313
850.643311,321
850.761169,328
850.878967,318
850.996887,322
851.114746,300
851.232544,324
851.350403,332
851.468262,330
851.58606,305
851.703979,325
851.821777,329
851.939636,313
852.057434,325
852.175232,318
852.293091,311
852.410889,323
852.528687,321
852.646545,328
852.764343,310
852.88208,338
852.999939,300
853.117676,321
853.235535,322
853.353271,317
853.471069,321
853.588928,311
853.706604,319
853.824402,329
853.9422,326
854.059998,318
854.177734,327
854.295532,330
854.413269,312
854.531006,308
854.648804,319
854.766541,320
854.884277,315
855.002014,327
855.119751,318
855.237549,324
855.355225,309
855.473022,323
855.590698,318
855.708435,309
855.826172,332
855.943848,335
856.061646,321
856.179321,325
856.296997,316
856.414795,312
856.53241,318
856.650085,324
856.767822,326
856.885559,315
857.003174,317
857.120911,310
857.238586,302
857.356201,328
857.473938,325
857.591614,324
857.709351,314
857.826965,306
857.944641,314
858.062317,322
858.179993,318
858.297668,324
858.415283,316
858.532959,335
858.650574,312
858.768188,318
858.885803,328
859.003479,323
859.121094,309
859.23877,317
859.356384,303
859.473999,314
859.591675,328
859.709229,330
859.826843,310
859.944458,316
860.062012,305
860.179626,321
860.297302,312
860.414856,324
860.532471,312
860.650024,320
860.767639,315
860.885193,313
861.002808,309
861.120361,320
861.237976,309
861.35553,317
861.473022,318
861.590698,322
861.708191,309
861.825745,321
861.943298,316
862.060852,319
862.178406,326
862.295959,322
862.413513,315
862.531006,312
862.64856,316
862.766113,312
862.883667,322
863.00116,322
863.118713,332
863.236206,311
863.353699,309
863.471252,327
863.588745,308
863.706177,325
863.82373,304
863.941162,317
864.058716,320
864.176208,321
864.29364,301
864.411194,334
864.528687,315
864.646118,315
864.763611,310
864.881042,323
864.998535,311
865.116028,318
865.233459,316
865.350891,315
865.468384,312
865.585754,329
865.703308,315
865.820679,320
865.938171,323
866.055542,319
866.173035,322
866.290466,322
866.407837,310
866.52533,326
866.6427,312
866.760071,327
866.877563,317
866.994934,318
867.112305,317
867.229736,322
867.347107,308
867.464539,313
867.58197,321
867.699341,301
867.81665,315
867.934082,313
868.051453,317
868.168823,317
868.286194,316
868.403564,340
868.520935,317
868.638306,326
868.755676,316
868.872986,320
868.990295,320
869.107727,317
869.225037,307
869.342346,314
869.459717,315
869.577026,311
869.694336,329
869.811707,329
869.929016,320
870.046326,321
870.163635,312
870.280945,312
870.398254,320
870.515564,326
870.632812,315
870.750183,310
870.867432,318
870.984741,313
871.102051,328
871.219299,322
871.336609,322
871.453918,327
871.571106,307
871.688416,327
871.805664,304
871.922852,329
872.040222,305
872.157471,330
872.274719,327
872.391968,323
872.509155,314
872.626465,313
872.743652,321
872.860962,333
872.978149,315
873.095337,322
873.212646,320
873.329834,306
873.44696,311
873.564209,326
873.681396,320
873.798645,322
873.915894,315
874.03302,324
874.150208,322
874.267456,317
874.384583,314
874.501831,316
874.618958,321
874.736145,313
874.853333,333
874.970459,313
875.087646,312
875.204834,333
875.32196,316
875.439148,330
875.556274,316
875.673401,323
875.790527,312
875.907715,311
876.024841,318
876.141968,322
876.259094,329
876.376282,325
876.493347,309
876.610474,321
876.7276,318
876.844727,302
876.961853,325
877.078918,316
877.195984,316
877.313171,332
877.430237,305
877.547302,311
877.664368,323
877.781433,329
877.898499,327
878.015625,309
878.13269,327
878.249695,329
878.366821,324
878.483887,320
878.600952,300
878.717957,328
878.834961,318
878.952087,303
879.069092,315
879.186157,321
879.303162,319
879.420227,315
879.537231,312
879.654236,325
879.77124,311
879.888306,336
880.005249,310
880.122314,328
880.239319,314
880.356323,323
880.473328,315
880.590271,313
880.707275,309
880.824341,321
880.941284,303
881.058228,313
881.175232,311
881.292236,328
881.40918,316
881.526123,309
881.643066,316
881.760071,321
881.877014,316
881.993958,322
882.11084,318
882.227783,331
882.344727,321
882.46167,315
882.578613,325
882.695618,309
882.812439,320
882.929382,316
883.046326,318
883.163208,326
883.280151,309
883.397034,321
883.513916,310
883.630798,325
883.747742,319
883.864563,322
883.981506,310
884.098389,325
884.21521,325
884.332153,319
884.448975,317
884.565796,314
884.682678,312
884.7995,320
884.916443,328
885.033264,326
885.150085,323
885.266968,333
885.383789,311
885.500671,330
885.617493,317
885.734314,332
885.851196,322
885.967896,342
886.084717,326
886.201599,316
886.318359,323
886.435181,314
886.552002,323
886.668762,312
886.785645,331
886.902344,325
887.019165,311
887.135925,317
887.252747,328
887.369446,328
887.486267,299
887.603027,318
887.719788,325
887.836548,316
887.953247,320
888.070068,313
888.186829,304
888.303528,315
888.420288,312
888.536987,309
888.653687,307
888.770447,327
888.887146,322
889.003967,318
889.120667,320
889.237305,309
889.354065,327
889.470703,319
889.587463,303
889.704163,313
889.820862,320
889.937561,313
890.054199,308
890.170837,327
890.287598,317
890.404236,329
890.520874,320
890.637634,314
890.754211,319
890.87085,315
890.987549,313
891.104187,323
891.220886,309
891.337463,318
891.454102,311
891.57074,316
891.687378,317
891.804077,310
891.920654,307
892.037231,316
892.15387,314
892.270447,329
892.387085,319
892.503723,316
892.6203,315
892.736877,319
892.853516,325
892.970032,328
893.08667,312
893.203186,314
893.319763,315
893.43634,312
893.552917,311
893.669556,316
893.786011,325
893.902588,326
894.019165,317
894.135681,328
894.252197,319
894.368835,325
894.485291,309
894.601868,324
894.718384,317
894.8349,310
894.951355,308
895.067932,323
895.184448,317
895.300964,322
895.417419,308
895.533936,316
895.650452,313
895.766907,316
895.883423,326
895.999878,324
896.116333,321
896.232849,329
896.349304,304
896.465759,328
896.582214,311
896.698669,318
896.815125,312
896.931641,314
897.048035,321
897.164551,317
897.280884,301
897.397339,322
897.513794,319
897.630249,325
897.746582,319
897.863098,306
897.979431,306
898.095886,323
898.212341,310
898.328674,324
898.445129,317
898.561462,325
898.677795,305
898.794312,321
898.910645,325
899.026978,326
899.143433,321
899.259766,324
899.37616,324
899.492493,309
899.608765,317
899.725159,322
899.841553,298
899.957947,316
900.07428,309
900.190552,321
900.306946,314
900.423157,320
900.53949,324
900.655884,327
900.772156,317
900.888489,321
901.004822,317
901.121033,321
901.237366,318
901.353699,315
901.46991,322
901.586304,313
901.702515,323
901.818787,323
901.93512,305
902.051331,328
902.167603,311
902.283875,331
902.400085,326
902.516418,311
902.632629,326
902.74884,336
902.865112,322
902.981384,319
903.097595,319
903.213867,318
903.330017,316
903.446289,329
903.5625,314
903.67865,316
903.794922,307
903.911072,305
904.027344,327
904.143494,325
904.259705,322
904.375916,323
904.492065,300
904.608215,314
904.724426,321
904.840576,312
904.956726,323
905.072876,323
905.189087,320
905.305176,320
905.421387,310
905.537537,315
905.653687,316
905.769775,321
905.885925,320
906.002014,307
906.118164,311
906.234314,316
906.350403,325
906.466492,318
906.582642,314
906.69873,328
906.814758,316
906.930908,325
907.046936,318
907.163086,313
907.279175,317
907.395264,330
907.511353,315
907.62738,320
907.743408,301
907.859497,316
907.975525,324
908.091553,325
908.207703,312
908.32373,321
908.439758,329
908.555786,308
908.671814,321
908.787842,327
908.90387,310
909.019775,313
909.135864,317
909.251892,315
909.367859,315
909.483826,315
909.599854,323
909.715881,306
909.831848,325
909.947815,323
910.063782,310
910.179749,318
910.295776,310
910.411743,322
910.527649,330
910.643616,307
910.759583,316
910.875488,315
910.991455,302
911.107361,330
911.223267,316
911.339294,316
911.4552,307
911.571106,332
911.687073,315
911.802979,320
911.918823,326
912.034729,322
912.150635,323
912.266602,324
912.382446,311
912.498352,325
912.614197,303
912.730103,326
912.846008,322
792.44574,329
792.56488,371
792.68396,411
792.80304,393
792.92218,343
793.041199,335
793.160339,319
793.279419,340
793.398499,333
793.517578,319
793.636658,317
793.755737,339
793.874817,340
793.993896,351
794.112976,322
794.232056,333
794.351074,319
794.470215,338
794.589233,330
794.708313,324
794.827393,336
794.946411,318
795.065552,354
795.18457,348
795.303589,328
795.422668,338
795.541687,325
795.660767,334
795.779846,326
795.898865,323
796.017883,339
796.136963,328
796.255981,333
796.375061,327
796.49408,338
796.613037,343
796.732117,337
796.851135,328
796.970154,317
797.089233,325
797.208191,319
797.327271,336
797.446228,335
797.565186,325
797.684265,341
797.803223,327
797.922241,325
798.04126,319
798.160278,330
798.279297,339
798.398315,331
798.517273,333
798.636292,323
798.75531,329
798.874268,322
798.993286,326
799.112244,326
799.231323,321
799.350281,328
799.469238,316
799.588257,325
799.707153,317
799.826111,323
799.945129,324
800.064087,324
800.183044,327
800.302063,320
800.421021,327
800.539978,329
800.658936,327
800.777893,320
800.896912,333
801.015747,329
801.134705,316
801.253723,327
801.37262,329
801.491638,323
801.610535,324
801.729492,324
801.84845,334
801.967407,320
802.086243,323
802.205261,323
802.324158,332
802.443115,326
802.562073,319
802.680969,319
802.799927,320
802.918762,337
803.037659,330
803.156677,328
803.275574,308
803.39447,339
803.513428,331
803.632263,320
803.751221,313
803.870117,321
803.989014,338
804.107971,327
804.226746,321
804.345642,319
804.4646,317
804.583496,331
804.702393,331
804.821228,318
804.940125,321
805.059021,321
805.177917,330
805.296814,320
805.415649,327
805.534546,341
805.653442,316
805.772278,329
805.891113,332
806.01001,326
806.128906,331
806.247742,328
806.366577,334
806.485413,316
806.604309,308
806.723145,328
806.84198,340
806.960876,326
807.079712,316
807.198486,335
807.317383,327
807.436218,315
807.554993,331
807.673889,321
807.792725,321
807.91156,313
808.030396,321
808.14917,318
808.268005,326
808.386841,315
808.505676,318
808.624451,323
808.743286,327
808.862122,323
808.980896,332
809.099731,339
809.218506,310
809.337341,327
809.456116,322
809.57489,313
809.693726,317
809.8125,323
809.931274,328
810.050049,313
810.168884,312
810.287659,334
810.406372,315
810.525269,325
810.643982,334
810.762756,320
810.881531,317
811.000305,316
811.11908,327
811.237854,336
811.356567,314
811.475403,317
811.594116,315
811.71283,326
811.831604,319
811.950378,313
812.069153,317
812.187927,320
812.30658,318
812.425415,336
812.544128,304
812.662781,330
812.781616,317
812.900269,328
813.019043,323
813.137756,324
813.256531,324
813.375244,322
813.493896,323
813.612671,331
813.731384,306
813.850037,310
813.96875,328
814.087524,316
814.206238,314
814.324951,316
814.443604,311
814.562256,324
814.68103,328
814.799683,314
814.918335,324
815.037109,318
815.155762,318
815.274475,316
815.393188,317
815.511841,322
815.630554,322
815.749146,321
815.867859,319
815.986572,318
816.105164,322
816.223877,322
816.342529,325
816.461182,310
816.579895,323
816.698486,322
816.817139,312
816.935791,322
817.054504,318
817.173096,322
817.291748,320
817.4104,318
817.529053,322
817.647644,323
817.766235,322
817.884949,312
818.00354,323
818.122192,318
818.240845,317
818.359436,327
818.478088,309
818.59668,320
818.715271,318
818.833923,311
818.952515,322
819.071106,319
819.189758,306
819.30835,310
819.426941,315
819.545532,317
819.664124,306
819.782715,317
819.901306,295
820.019897,325
820.138489,329
820.25708,311
820.375671,330
820.494202,316
820.612732,314
820.731384,313
820.849915,329
820.968506,324
821.087097,309
821.205627,321
821.324158,311
821.442749,311
821.561279,321
821.679871,312
821.798401,334
821.916931,310
822.035461,338
822.154053,319
822.272583,314
822.391174,309
822.509583,336
822.628174,322
822.746704,330
822.865234,314
822.983765,308
823.102295,319
823.220825,312
823.339294,320
823.457825,310
823.576355,314
823.694824,310
823.813354,319
823.931885,313
824.050354,316
824.168884,302
824.287354,314
824.405823,320
824.524353,320
824.642822,325
824.761353,319
824.879822,316
824.998291,315
825.116699,320
825.235291,324
825.353699,308
825.472168,317
825.590637,316
825.709106,318
825.827576,306
825.946045,314
826.064453,305
826.182983,323
826.301392,314
826.4198,325
826.53833,325
826.656738,314
826.775208,313
826.893677,320
827.012024,294
827.130493,322
827.248962,322
827.36731,326
827.485779,305
827.604248,304
827.722595,313
827.841064,316
827.959412,310
828.077942,326
828.196289,325
828.314636,315
828.433105,319
828.551514,328
828.669861,322
828.78833,327
828.906677,317
829.025085,326
829.143433,323
829.261841,321
829.38031,316
829.498657,322
829.617004,308
829.735413,306
829.85376,322
829.972107,313
830.090515,321
830.208862,316
830.327209,311
830.445557,319
830.563904,308
830.682312,312
830.800659,319
830.919006,311
831.037354,310
831.155701,316
831.274048,303
831.392395,310
831.51062,316
831.629028,313
831.747314,328
831.865662,323
831.984009,323
832.102356,309
832.220642,315
832.338928,316
832.457275,318
832.575623,319
832.693909,309
832.812134,319
832.930481,318
833.048828,311
833.167114,309
833.2854,325
833.403687,319
833.521973,305
833.640259,308
833.758545,319
833.876831,316
833.995056,329
834.113281,308
834.231628,316
834.349915,312
834.468201,310
834.586426,320
834.704651,312
834.822998,327
834.941162,327
835.059448,311
835.177673,318
835.295959,321
835.414246,318
835.53241,323
835.650635,303
835.768921,319
835.887146,323
836.005371,317
836.123596,319
836.241821,326
836.360046,314
836.478271,313
836.596497,321
836.714722,313
836.832886,324
836.95105,334
837.069336,317
837.1875,319
837.305725,313
837.423889,305
837.542053,316
837.660339,322
837.778503,318
837.896667,314
838.014832,320
838.132996,312
838.25116,323
838.369385,337
838.487488,316
838.605713,322
838.723877,328
838.84198,314
838.960205,317
839.078308,312
839.196472,326
839.314636,320
839.4328,325
839.550964,323
839.669067,311
839.787231,316
839.905396,305
840.023499,307
840.141602,314
840.259766,311
840.377869,326
840.495972,324
840.614136,310
840.732239,317
840.850342,325
840.968445,312
841.086548,327
841.204651,297
841.322754,311
841.440918,316
841.55896,319
841.677002,309
841.795166,311
841.913208,325
842.031311,325
842.149353,309
842.267456,313
842.385498,316
842.503601,307
842.621643,327
842.739746,317
842.857788,315
842.97583,320
843.093933,314
843.211975,324
843.330017,305
843.44812,313
843.566101,319
843.684204,309
843.802246,330
843.920227,328
844.038269,308
844.156311,311
844.274292,306
844.392395,327
844.510376,318
844.628357,312
844.74646,332
844.864441,321
844.982422,318
845.100403,306
845.218384,314
845.336426,326
845.454468,317
845.572449,313
845.69043,320
845.808411,322
845.926453,320
846.044373,307
846.162354,330
846.280396,316
846.398315,308
846.516296,315
846.634216,318
846.752197,322
846.870178,321
846.988098,324
847.106079,316
847.22406,304
847.34198,313
847.4599,312
847.577881,314
847.695801,316
847.813782,328
847.931641,319
848.049561,328
848.167603,321
848.285461,328
848.403381,311
848.521362,324
848.639221,313
848.75708,322
848.875,318
848.99292,325
849.110901,315
849.22876,310
849.34668,324
849.464539,324
849.582458,317
849.700317,334
849.818176,311
849.936096,323
850.053955,327
850.171875,317
850.289673,322
850.407593,307
850.525452,307
850.643311,314
850.761169,317
850.878967,311
850.996887,309
851.114746,309
851.232544,322
851.350403,321
851.468262,316
851.58606,308
851.703979,313
851.821777,321
851.939636,316
852.057434,311
852.175232,318
852.293091,332
852.410889,306
852.528687,332
852.646545,322
852.764343,320
852.88208,325
852.999939,317
853.117676,328
853.235535,325
853.353271,321
853.471069,322
853.588928,321
853.706604,325
853.824402,317
853.9422,321
854.059998,314
854.177734,333
854.295532,302
854.413269,314
854.531006,319
854.648804,334
854.766541,312
854.884277,332
855.002014,329
855.119751,314
855.237549,324
855.355225,320
855.473022,329
855.590698,331
855.708435,323
855.826172,325
855.943848,322
856.061646,325
856.179321,317
856.296997,309
856.414795,325
856.53241,328
856.650085,304
856.767822,320
856.885559,324
857.003174,310
857.120911,324
857.238586,325
857.356201,311
857.473938,321
857.591614,309
857.709351,311
857.826965,308
857.944641,323
858.062317,314
858.179993,321
858.297668,323
858.415283,322
858.532959,316
858.650574,316
858.768188,324
858.885803,316
859.003479,310
859.121094,320
859.23877,309
859.356384,330
859.473999,316
859.591675,319
859.709229,306
859.826843,315
859.944458,316
860.062012,319
860.179626,315
860.297302,325
860.414856,324
860.532471,305
860.650024,312
860.767639,312
860.885193,299
861.002808,330
861.120361,322
861.237976,314
861.35553,322
861.473022,308
861.590698,316
861.708191,333
861.825745,315
861.943298,313
862.060852,319
862.178406,321
862.295959,322
862.413513,313
862.531006,322
862.64856,312
862.766113,309
862.883667,326
863.00116,326
863.118713,337
863.236206,308
863.353699,324
863.471252,319
863.588745,312
863.706177,314
863.82373,318
863.941162,320
864.058716,309
864.176208,320
864.29364,314
864.411194,331
864.528687,306
864.646118,317
864.763611,325
864.881042,322
864.998535,318
865.116028,312
865.233459,327
865.350891,307
865.468384,323
865.585754,314
865.703308,324
865.820679,325
865.938171,324
866.055542,324
866.173035,311
866.290466,311
866.407837,316
866.52533,308
866.6427,316
866.760071,325
866.877563,317
866.994934,317
867.112305,314
867.229736,313
867.347107,325
867.464539,316
867.58197,333
867.699341,309
867.81665,320
867.934082,313
868.051453,309
868.168823,311
868.286194,312
868.403564,315
868.520935,324
868.638306,324
868.755676,313
868.872986,313
868.990295,323
869.107727,317
869.225037,319
869.342346,337
869.459717,312
869.577026,327
869.694336,325
869.811707,309
869.929016,324
870.046326,322
870.163635,334
870.280945,324
870.398254,323
870.515564,307
870.632812,319
870.750183,307
870.867432,312
870.984741,313
871.102051,312
871.219299,310
871.336609,336
871.453918,322
871.571106,326
871.688416,314
871.805664,320
871.922852,329
872.040222,318
872.157471,306
872.274719,321
872.391968,312
872.509155,325
872.626465,324
872.743652,309
872.860962,317
872.978149,313
873.095337,324
873.212646,324
873.329834,329
873.44696,333
873.564209,325
873.681396,334
873.798645,317
873.915894,307
874.03302,312
874.150208,331
874.267456,309
874.384583,310
874.501831,313
874.618958,314
874.736145,308
874.853333,319
874.970459,322
875.087646,318
875.204834,314
875.32196,321
875.439148,325
875.556274,313
875.673401,318
875.790527,311
875.907715,311
876.024841,314
876.141968,311
876.259094,309
876.376282,324
876.493347,323
876.610474,317
876.7276,319
876.844727,306
876.961853,309
877.078918,315
877.195984,322
877.313171,322
877.430237,320
877.547302,313
877.664368,326
877.781433,318
877.898499,321
878.015625,311
878.13269,316
878.249695,322
878.366821,311
878.483887,317
878.600952,325
878.717957,321
878.834961,316
878.952087,327
879.069092,309
879.186157,310
879.303162,316
879.420227,320
879.537231,327
879.654236,321
879.77124,309
879.888306,314
880.005249,312
880.122314,331
880.239319,323
880.356323,309
880.473328,310
880.590271,303
880.707275,325
880.824341,313
880.941284,325
881.058228,319
881.175232,305
881.292236,319
881.40918,323
881.526123,308
881.643066,311
881.760071,296
881.877014,317
881.993958,330
882.11084,311
882.227783,311
882.344727,308
882.46167,319
882.578613,313
882.695618,308
882.812439,322
882.929382,328
883.046326,326
883.163208,311
883.280151,314
883.397034,310
883.513916,324
883.630798,327
883.747742,325
883.864563,309
883.981506,325
884.098389,320
884.21521,319
884.332153,304
884.448975,312
884.565796,320
884.682678,311
884.7995,314
884.916443,330
885.033264,304
885.150085,325
885.266968,306
885.383789,332
885.500671,318
885.617493,329
885.734314,318
885.851196,330
885.967896,328
886.084717,317
886.201599,320
886.318359,337
886.435181,315
886.552002,326
886.668762,323
886.785645,320
886.902344,318
887.019165,322
887.135925,319
887.252747,319
887.369446,316
887.486267,325
887.603027,323
887.719788,323
887.836548,322
887.953247,309
888.070068,321
888.186829,314
888.303528,317
888.420288,312
888.536987,309
888.653687,315
888.770447,324
888.887146,312
889.003967,323
889.120667,318
889.237305,316
889.354065,316
889.470703,318
889.587463,319
889.704163,309
889.820862,316
889.937561,320
890.054199,319
890.170837,314
890.287598,316
890.404236,320
890.520874,319
890.637634,335
890.754211,317
890.87085,311
890.987549,308
891.104187,304
891.220886,311
891.337463,307
891.454102,308
891.57074,307
891.687378,322
891.804077,322
891.920654,303
892.037231,329
892.15387,330
892.270447,306
892.387085,323
892.503723,311
892.6203,319
892.736877,318
892.853516,322
892.970032,317
893.08667,316
893.203186,308
893.319763,319
893.43634,315
893.552917,311
893.669556,320
893.786011,308
893.902588,309
894.019165,323
894.135681,315
894.252197,315
894.368835,311
894.485291,321
894.601868,320
894.718384,318
894.8349,317
894.951355,312
895.067932,323
895.184448,313
895.300964,315
895.417419,319
895.533936,328
895.650452,311
895.766907,316
895.883423,312
895.999878,309
896.116333,303
896.232849,329
896.349304,339
896.465759,300
896.582214,318
896.698669,310
896.815125,312
896.931641,325
897.048035,318
897.164551,316
897.280884,311
897.397339,324
897.513794,311
897.630249,317
897.746582,328
897.863098,310
897.979431,328
898.095886,311
898.212341,320
898.328674,311
898.445129,309
898.561462,311
898.677795,320
898.794312,307
898.910645,308
899.026978,332
899.143433,304
899.259766,300
899.37616,325
899.492493,314
899.608765,313
899.725159,309
899.841553,312
899.957947,336
900.07428,310
900.190552,320
900.306946,329
900.423157,304
900.53949,308
900.655884,314
900.772156,317
900.888489,318
901.004822,305
901.121033,326
901.237366,317
901.353699,319
901.46991,310
901.586304,311
901.702515,318
901.818787,331
901.93512,320
902.051331,318
902.167603,312
902.283875,303
902.400085,320
902.516418,318
902.632629,320
902.74884,301
902.865112,322
902.981384,308
903.097595,323
903.213867,318
903.330017,322
903.446289,322
903.5625,324
903.67865,327
903.794922,331
903.911072,314
904.027344,321
904.143494,311
904.259705,323
904.375916,323
904.492065,312
904.608215,308
904.724426,321
904.840576,301
904.956726,317
905.072876,323
905.189087,323
905.305176,316
905.421387,310
905.537537,311
905.653687,298
905.769775,320
905.885925,319
906.002014,300
906.118164,333
906.234314,302
906.350403,318
906.466492,315
906.582642,303
906.69873,321
906.814758,307
906.930908,316
907.046936,329
907.163086,308
907.279175,325
907.395264,308
907.511353,313
907.62738,305
907.743408,317
907.859497,322
907.975525,330
908.091553,329
908.207703,314
908.32373,307
908.439758,325
908.555786,297
908.671814,315
908.787842,312
908.90387,316
909.019775,319
909.135864,323
909.251892,308
909.367859,319
909.483826,317
909.599854,324
909.715881,313
909.831848,317
909.947815,314
910.063782,311
910.179749,323
910.295776,317
910.411743,311
910.527649,317
910.643616,309
910.759583,318
910.875488,325
910.991455,320
911.107361,320
911.223267,304
911.339294,314
911.4552,308
911.571106,332
911.687073,322
911.802979,321
911.918823,306
912.034729,325
912.150635,320
912.266602,305
912.382446,312
912.498352,317
912.614197,302
912.730103,323
912.846008,324
792.44574,327
792.56488,367
792.68396,405
792.80304,394
792.92218,334
793.041199,324
793.160339,314
793.279419,354
793.398499,327
793.517578,315
793.636658,337
793.755737,343
793.874817,348
793.993896,344
794.112976,325
794.232056,330
794.351074,336
794.470215,338
794.589233,334
794.708313,336
794.827393,331
794.946411,332
795.065552,353
795.18457,349
795.303589,339
795.422668,327
795.541687,342
795.660767,327
795.779846,337
795.898865,318
796.017883,342
796.136963,319
796.255981,338
796.375061,317
796.49408,336
796.613037,331
796.732117,317
796.851135,323
796.970154,339
797.089233,321
797.208191,312
797.327271,314
797.446228,328
797.565186,327
797.684265,327
797.803223,333
797.922241,314
798.04126,338
798.160278,337
798.279297,335
798.398315,330
798.517273,329
798.636292,324
798.75531,333
798.874268,328
798.993286,326
799.112244,328
799.231323,342
799.350281,329
799.469238,329
799.588257,315
799.707153,341
799.826111,319
799.945129,321
800.064087,342
800.183044,328
800.302063,334
800.421021,327
800.539978,321
800.658936,332
800.777893,328
800.896912,325
801.015747,329
801.134705,325
801.253723,324
801.37262,337
801.491638,333
801.610535,323
801.729492,308
801.84845,327
801.967407,322
802.086243,327
802.205261,327
802.324158,315
802.443115,332
802.562073,326
802.680969,322
802.799927,335
802.918762,328
803.037659,343
803.156677,314
803.275574,338
803.39447,316
803.513428,323
803.632263,326
803.751221,320
803.870117,324
803.989014,336
804.107971,322
804.226746,326
804.345642,314
804.4646,325
804.583496,327
804.702393,325
804.821228,333
804.940125,333
805.059021,316
805.177917,317
805.296814,324
805.415649,316
805.534546,318
805.653442,316
805.772278,326
805.891113,309
806.01001,321
806.128906,324
806.247742,320
806.366577,323
806.485413,322
806.604309,319
806.723145,327
806.84198,323
806.960876,329
807.079712,309
807.198486,330
807.317383,311
807.436218,324
807.554993,324
807.673889,323
807.792725,308
807.91156,328
808.030396,332
808.14917,323
808.268005,330
808.386841,323
808.505676,326
808.624451,328
808.743286,307
808.862122,316
808.980896,317
809.099731,323
809.218506,327
809.337341,323
809.456116,315
809.57489,318
809.693726,323
809.8125,321
809.931274,332
810.050049,323
810.168884,320
810.287659,320
810.406372,334
810.525269,309
810.643982,326
810.762756,324
810.881531,315
811.000305,329
811.11908,323
811.237854,317
811.356567,318
811.475403,325
811.594116,339
811.71283,315
811.831604,326
811.950378,319
812.069153,313
812.187927,319
812.30658,327
812.425415,335
812.544128,321
812.662781,332
812.781616,328
812.900269,310
813.019043,319
813.137756,315
813.256531,322
813.375244,312
813.493896,318
813.612671,308
813.731384,332
813.850037,317
813.96875,336
814.087524,329
814.206238,324
814.324951,305
814.443604,323
814.562256,328
814.68103,313
814.799683,332
814.918335,320
815.037109,326
815.155762,323
815.274475,311
815.393188,315
815.511841,325
815.630554,319
815.749146,323
815.867859,328
815.986572,330
816.105164,311
816.223877,316
816.342529,324
816.461182,309
816.579895,325
816.698486,315
816.817139,319
816.935791,327
817.054504,312
817.173096,321
817.291748,323
817.4104,307
817.529053,329
817.647644,324
817.766235,313
817.884949,318
818.00354,318
818.122192,322
818.240845,315
818.359436,313
818.478088,325
818.59668,321
818.715271,317
818.833923,322
818.952515,307
819.071106,331
819.189758,312
819.30835,323
819.426941,325
819.545532,322
819.664124,312
819.782715,312
819.901306,312
820.019897,331
820.138489,322
820.25708,312
820.375671,312
820.494202,323
820.612732,321
820.731384,312
820.849915,310
820.968506,310
821.087097,307
821.205627,333
821.324158,310
821.442749,326
821.561279,311
821.679871,326
821.798401,315
821.916931,308
822.035461,315
822.154053,310
822.272583,317
822.391174,320
822.509583,321
822.628174,319
822.746704,316
822.865234,318
822.983765,336
823.102295,331
823.220825,319
823.339294,314
823.457825,307
823.576355,311
823.694824,308
823.813354,318
823.931885,313
824.050354,324
824.168884,313
824.287354,321
824.405823,328
824.524353,317
824.642822,332
824.761353,314
824.879822,319
824.998291,324
825.116699,314
825.235291,332
825.353699,319
825.472168,318
825.590637,314
825.709106,318
825.827576,315
825.946045,320
826.064453,313
826.182983,309
826.301392,311
826.4198,327
826.53833,297
826.656738,327
826.775208,319
826.893677,328
827.012024,327
827.130493,318
827.248962,321
827.36731,336
827.485779,322
827.604248,302
827.722595,310
827.841064,312
827.959412,321
828.077942,309
828.196289,308
828.314636,310
828.433105,309
828.551514,306
828.669861,316
828.78833,302
828.906677,324
829.025085,309
829.143433,313
829.261841,320
829.38031,326
829.498657,327
829.617004,312
829.735413,308
829.85376,317
829.972107,316
830.090515,323
830.208862,327
830.327209,323
830.445557,330
830.563904,308
830.682312,325
830.800659,302
830.919006,309
831.037354,323
831.155701,330
831.274048,311
831.392395,328
831.51062,321
831.629028,324
831.747314,320
831.865662,316
831.984009,329
832.102356,326
832.220642,315
832.338928,325
832.457275,323
832.575623,320
832.693909,325
832.812134,321
832.930481,322
833.048828,324
833.167114,319
833.2854,325
833.403687,305
833.521973,320
833.640259,310
833.758545,311
833.876831,318
833.995056,311
834.113281,314
834.231628,318
834.349915,303
834.468201,317
834.586426,320
834.704651,309
834.822998,318
834.941162,313
835.059448,311
835.177673,320
835.295959,304
835.414246,332
835.53241,312
835.650635,317
835.768921,326
835.887146,326
836.005371,314
836.123596,318
836.241821,303
836.360046,323
836.478271,326
836.596497,324
836.714722,309
836.832886,306
836.95105,324
837.069336,336
837.1875,308
837.305725,310
837.423889,315
837.542053,324
837.660339,315
837.778503,309
837.896667,310
838.014832,320
838.132996,312
838.25116,317
838.369385,324
838.487488,300
838.605713,323
838.723877,306
838.84198,335
838.960205,317
839.078308,311
839.196472,309
839.314636,307
839.4328,321
839.550964,318
839.669067,323
839.787231,305
839.905396,326
840.023499,298
840.141602,314
840.259766,326
840.377869,304
840.495972,318
840.614136,315
840.732239,318
840.850342,329
840.968445,312
841.086548,314
841.204651,320
841.322754,327
841.440918,314
841.55896,328
841.677002,319
841.795166,324
841.913208,320
842.031311,317
842.149353,304
842.267456,321
842.385498,327
842.503601,319
842.621643,323
842.739746,322
842.857788,305
842.97583,324
843.093933,302
843.211975,335
843.330017,317
843.44812,321
843.566101,316
843.684204,315
843.802246,322
843.920227,325
844.038269,323
844.156311,321
844.274292,309
844.392395,324
844.510376,304
844.628357,323
844.74646,317
844.864441,326
844.982422,313
845.100403,321
845.218384,313
845.336426,332
845.454468,316
845.572449,320
845.69043,313
845.808411,318
845.926453,297
846.044373,330
846.162354,311
846.280396,331
846.398315,318
846.516296,319
846.634216,320
846.752197,314
846.870178,321
846.988098,311
847.106079,320
847.22406,319
847.34198,317
847.4599,323
847.577881,331
847.695801,319
847.813782,311
847.931641,315
848.049561,303
848.167603,323
848.285461,333
848.403381,320
848.521362,309
848.639221,309
848.75708,318
848.875,308
848.99292,318
849.110901,318
849.22876,316
849.34668,292
849.464539,331
849.582458,309
849.700317,319
849.818176,322
849.936096,325
850.053955,322
850.171875,325
850.289673,309
850.407593,315
850.525452,331
850.643311,327
850.761169,312
850.878967,316
850.996887,318
851.114746,315
851.232544,320
851.350403,317
851.468262,328
851.58606,314
851.703979,330
851.821777,311
851.939636,319
852.057434,321
852.175232,326
852.293091,312
852.410889,317
852.528687,321
852.646545,324
852.764343,317
852.88208,333
852.999939,317
853.117676,309
853.235535,311
853.353271,316
853.471069,312
853.588928,309
853.706604,324
853.824402,317
853.9422,312
854.059998,316
854.177734,308
854.295532,310
854.413269,319
854.531006,325
854.648804,318
854.766541,323
854.884277,329
855.002014,318
855.119751,322
855.237549,331
855.355225,308
855.473022,329
855.590698,314
855.708435,322
855.826172,305
855.943848,326
856.061646,317
856.179321,321
856.296997,316
856.414795,324
856.53241,322
856.650085,321
856.767822,313
856.885559,322
857.003174,320
857.120911,319
857.238586,316
857.356201,316
857.473938,317
857.591614,327
857.709351,312
857.826965,312
857.944641,307
858.062317,322
858.179993,302
858.297668,313
858.415283,315
858.532959,321
858.650574,317
858.768188,330
858.885803,324
859.003479,320
859.121094,317
859.23877,315
859.356384,307
859.473999,337
859.591675,314
859.709229,306
859.826843,320
859.944458,331
860.062012,333
860.179626,320
860.297302,315
860.414856,322
860.532471,298
860.650024,319
860.767639,319
860.885193,317
861.002808,330
861.120361,315
861.237976,310
861.35553,312
861.473022,304
861.590698,309
861.708191,318
861.825745,326
861.943298,307
862.060852,327
862.178406,323
862.295959,311
862.413513,313
862.531006,321
862.64856,301
862.766113,330
862.883667,303
863.00116,337
863.118713,315
863.236206,320
863.353699,312
863.471252,319
863.588745,323
863.706177,325
863.82373,304
863.941162,312
864.058716,316
864.176208,319
864.29364,310
864.411194,318
864.528687,314
864.646118,320
864.763611,322
864.881042,318
864.998535,315
865.116028,308
865.233459,304
865.350891,313
865.468384,308
865.585754,318
865.703308,313
865.820679,320
865.938171,306
866.055542,327
866.173035,288
866.290466,319
866.407837,312
866.52533,311
866.6427,310
866.760071,320
866.877563,311
866.994934,330
867.112305,315
867.229736,331
867.347107,299
867.464539,331
867.58197,306
867.699341,312
867.81665,310
867.934082,313
868.051453,314
868.168823,310
868.286194,324
868.403564,324
868.520935,305
868.638306,326
868.755676,322
868.872986,320
868.990295,319
869.107727,323
869.225037,313
869.342346,336
869.459717,306
869.577026,321
869.694336,305
869.811707,306
869.929016,319
870.046326,313
870.163635,313
870.280945,309
870.398254,315
870.515564,315
870.632812,316
870.750183,331
870.867432,318
870.984741,316
871.102051,310
871.219299,314
871.336609,309
871.453918,327
871.571106,313
871.688416,327
871.805664,317
871.922852,328
872.040222,302
872.157471,313
872.274719,311
872.391968,317
872.509155,319
872.626465,311
872.743652,315
872.860962,318
872.978149,329
873.095337,322
873.212646,317
873.329834,308
873.44696,310
873.564209,315
873.681396,323
873.798645,321
873.915894,316
874.03302,329
874.150208,314
874.267456,325
874.384583,320
874.501831,333
874.618958,309
874.736145,312
874.853333,300
874.970459,322
875.087646,319
875.204834,306
875.32196,322
875.439148,312
875.556274,323
875.673401,331
875.790527,319
875.907715,313
876.024841,323
876.141968,318
876.259094,320
876.376282,318
876.493347,323
876.610474,315
876.7276,307
876.844727,318
876.961853,312
877.078918,323
877.195984,327
877.313171,324
877.430237,293
877.547302,320
877.664368,307
877.781433,306
877.898499,321
878.015625,317
878.13269,312
878.249695,319
878.366821,316
878.483887,321
878.600952,317
878.717957,322
878.834961,306
878.952087,310
879.069092,320
879.186157,316
879.303162,307
879.420227,312
879.537231,322
879.654236,310
879.77124,321
879.888306,313
880.005249,303
880.122314,324
880.239319,313
880.356323,328
880.473328,308
880.590271,327
880.707275,315
880.824341,319
880.941284,310
881.058228,318
881.175232,314
881.292236,334
881.40918,310
881.526123,327
881.643066,302
881.760071,327
881.877014,308
881.993958,305
882.11084,308
882.227783,315
882.344727,311
882.46167,325
882.578613,315
882.695618,323
882.812439,309
882.929382,324
883.046326,321
883.163208,306
883.280151,316
883.397034,316
883.513916,316
883.630798,324
883.747742,311
883.864563,331
883.981506,319
884.098389,319
884.21521,320
884.332153,324
884.448975,314
884.565796,330
884.682678,322
884.7995,312
884.916443,311
885.033264,312
885.150085,317
885.266968,331
885.383789,311
885.500671,324
885.617493,322
885.734314,318
885.851196,322
885.967896,317
886.084717,321
886.201599,331
886.318359,311
886.435181,324
886.552002,320
886.668762,324
886.785645,326
886.902344,318
887.019165,315
887.135925,328
887.252747,309
887.369446,317
887.486267,312
887.603027,313
887.719788,318
887.836548,331
887.953247,308
888.070068,326
888.186829,315
888.303528,323
888.420288,315
888.536987,313
888.653687,314
888.770447,324
888.887146,316
889.003967,311
889.120667,328
889.237305,325
889.354065,322
889.470703,329
889.587463,326
889.704163,331
889.820862,314
889.937561,317
890.054199,316
890.170837,312
890.287598,306
890.404236,316
890.520874,298
890.637634,311
890.754211,318
890.87085,319
890.987549,313
891.104187,321
891.220886,323
891.337463,297
891.454102,323
891.57074,316
891.687378,304
891.804077,315
891.920654,324
892.037231,322
892.15387,309
892.270447,319
892.387085,312
892.503723,306
892.6203,313
892.736877,321
892.853516,309
892.970032,309
893.08667,304
893.203186,322
893.319763,318
893.43634,326
893.552917,310
893.669556,319
893.786011,313
893.902588,314
894.019165,305
894.135681,321
894.252197,313
894.368835,323
894.485291,321
894.601868,317
894.718384,323
894.8349,316
894.951355,317
895.067932,306
895.184448,315
895.300964,304
895.417419,306
895.533936,320
895.650452,311
895.766907,316
895.883423,309
895.999878,319
896.116333,317
896.232849,309
896.349304,318
896.465759,312
896.582214,336
896.698669,338
896.815125,307
896.931641,317
897.048035,304
897.164551,314
897.280884,304
897.397339,319
897.513794,322
897.630249,321
897.746582,308
897.863098,335
897.979431,291
898.095886,321
898.212341,314
898.328674,332
898.445129,324
898.561462,319
898.677795,317
898.794312,301
898.910645,299
899.026978,314
899.143433,318
899.259766,311
899.37616,313
899.492493,310
899.608765,319
899.725159,320
899.841553,306
899.957947,319
900.07428,313
900.190552,319
900.306946,324
900.423157,330
900.53949,307
900.655884,329
900.772156,326
900.888489,318
901.004822,321
901.121033,324
901.237366,325
901.353699,326
901.46991,310
901.586304,326
901.702515,306
901.818787,308
901.93512,304
902.051331,305
902.167603,311
902.283875,320
902.400085,315
902.516418,320
902.632629,307
902.74884,307
902.865112,326
902.981384,319
903.097595,330
903.213867,313
903.330017,319
903.446289,318
903.5625,320
903.67865,314
903.794922,308
903.911072,316
904.027344,311
904.143494,312
904.259705,318
904.375916,327
904.492065,310
904.608215,321
904.724426,310
904.840576,311
904.956726,317
905.072876,320
905.189087,321
905.305176,321
905.421387,296
905.537537,319
905.653687,328
905.769775,320
905.885925,320
906.002014,325
906.118164,300
906.234314,325
906.350403,321
906.466492,328
906.582642,315
906.69873,326
906.814758,312
906.930908,330
907.046936,308
907.163086,321
907.279175,320
907.395264,340
907.511353,325
907.62738,317
907.743408,320
907.859497,311
907.975525,320
908.091553,330
908.207703,319
908.32373,319
908.439758,303
908.555786,318
908.671814,318
908.787842,305
908.90387,315
909.019775,310
909.135864,316
909.251892,318
909.367859,326
909.483826,321
909.599854,304
909.715881,317
909.831848,306
909.947815,325
910.063782,316
910.179749,321
910.295776,312
910.411743,321
910.527649,314
910.643616,309
910.759583,320
910.875488,333
910.991455,307
911.107361,314
911.223267,317
911.339294,314
911.4552,322
911.571106,320
911.687073,318
911.802979,330
911.918823,317
912.034729,318
912.150635,321
912.266602,306
912.382446,304
912.498352,319
912.614197,321
912.730103,318
912.846008,316
