792.44574,324
792.56488,355
792.68396,410
792.80304,370
792.92218,343
793.041199,319
793.160339,324
793.279419,359
793.398499,325
793.517578,329
793.636658,319
793.755737,325
793.874817,344
793.993896,339
794.112976,330
794.232056,318
794.351074,329
794.470215,326
794.589233,329
794.708313,333
794.827393,331
794.946411,326
795.065552,333
795.18457,334
795.303589,332
795.422668,317
795.541687,336
795.660767,331
795.779846,335
795.898865,333
796.017883,324
796.136963,330
796.255981,339
796.375061,334
796.49408,345
796.613037,329
796.732117,324
796.851135,323
796.970154,331
797.089233,338
797.208191,325
797.327271,340
797.446228,343
797.565186,334
797.684265,326
797.803223,333
797.922241,324
798.04126,332
798.160278,335
798.279297,320
798.398315,331
798.517273,336
798.636292,326
798.75531,330
798.874268,342
798.993286,329
799.112244,342
799.231323,328
799.350281,336
799.469238,328
799.588257,325
799.707153,325
799.826111,335
799.945129,318
800.064087,340
800.183044,331
800.302063,341
800.421021,338
800.539978,335
800.658936,331
800.777893,327
800.896912,325
801.015747,316
801.134705,329
801.253723,328
801.37262,330
801.491638,325
801.610535,332
801.729492,337
801.84845,324
801.967407,336
802.086243,329
802.205261,326
802.324158,333
802.443115,318
802.562073,332
802.680969,325
802.799927,319
802.918762,333
803.037659,337
803.156677,332
803.275574,338
803.39447,335
803.513428,327
803.632263,321
803.751221,332
803.870117,332
803.989014,331
804.107971,333
804.226746,334
804.345642,341
804.4646,335
804.583496,324
804.702393,327
804.821228,330
804.940125,342
805.059021,324
805.177917,329
805.296814,328
805.415649,339
805.534546,336
805.653442,336
805.772278,325
805.891113,332
806.01001,343
806.128906,331
806.247742,339
806.366577,337
806.485413,340
806.604309,323
806.723145,346
806.84198,329
806.960876,326
807.079712,320
807.198486,324
807.317383,320
807.436218,328
807.554993,331
807.673889,333
807.792725,345
807.91156,344
808.030396,329
808.14917,323
808.268005,339
808.386841,342
808.505676,320
808.624451,354
808.743286,327
808.862122,345
808.980896,317
809.099731,339
809.218506,316
809.337341,322
809.456116,343
809.57489,326
809.693726,334
809.8125,331
809.931274,324
810.050049,338
810.168884,324
810.287659,328
810.406372,338
810.525269,326
810.643982,324
810.762756,343
810.881531,335
811.000305,338
811.11908,335
811.237854,337
811.356567,329
811.475403,338
811.594116,335
811.71283,337
811.831604,335
811.950378,338
812.069153,332
812.187927,330
812.30658,325
812.425415,330
812.544128,328
812.662781,328
812.781616,342
812.900269,353
813.019043,332
813.137756,338
813.256531,330
813.375244,339
813.493896,336
813.612671,353
813.731384,323
813.850037,334
813.96875,339
814.087524,343
814.206238,341
814.324951,333
814.443604,337
814.562256,330
814.68103,317
814.799683,343
814.918335,332
815.037109,341
815.155762,340
815.274475,319
815.393188,335
815.511841,341
815.630554,324
815.749146,328
815.867859,337
815.986572,340
816.105164,321
816.223877,333
816.342529,330
816.461182,316
816.579895,334
816.698486,330
816.817139,321
816.935791,334
817.054504,330
817.173096,322
817.291748,339
817.4104,349
817.529053,311
817.647644,328
817.766235,330
817.884949,328
818.00354,336
818.122192,328
818.240845,325
818.359436,325
818.478088,339
818.59668,335
818.715271,311
818.833923,331
818.952515,327
819.071106,323
819.189758,306
819.30835,332
819.426941,322
819.545532,328
819.664124,328
819.782715,322
819.901306,321
820.019897,333
820.138489,316
820.25708,325
820.375671,315
820.494202,318
820.612732,320
820.731384,324
820.849915,332
820.968506,322
821.087097,322
821.205627,308
821.324158,327
821.442749,316
821.561279,325
821.679871,321
821.798401,327
821.916931,318
822.035461,315
822.154053,329
822.272583,334
822.391174,311
822.509583,330
822.628174,310
822.746704,334
822.865234,314
822.983765,310
823.102295,324
823.220825,311
823.339294,321
823.457825,305
823.576355,320
823.694824,327
823.813354,322
823.931885,312
824.050354,329
824.168884,320
824.287354,308
824.405823,311
824.524353,314
824.642822,325
824.761353,301
824.879822,320
824.998291,313
825.116699,332
825.235291,313
825.353699,318
825.472168,325
825.590637,325
825.709106,315
825.827576,320
825.946045,313
826.064453,320
826.182983,326
826.301392,307
826.4198,328
826.53833,304
826.656738,320
826.775208,311
826.893677,315
827.012024,324
827.130493,323
827.248962,318
827.36731,321
827.485779,312
827.604248,319
827.722595,295
827.841064,310
827.959412,334
828.077942,323
828.196289,316
828.314636,317
828.433105,318
828.551514,316
828.669861,312
828.78833,319
828.906677,312
829.025085,309
829.143433,312
829.261841,310
829.38031,318
829.498657,322
829.617004,309
829.735413,315
829.85376,325
829.972107,317
830.090515,303
830.208862,330
830.327209,307
830.445557,316
830.563904,315
830.682312,318
830.800659,320
830.919006,311
831.037354,330
831.155701,321
831.274048,320
831.392395,319
831.51062,317
831.629028,319
831.747314,310
831.865662,323
831.984009,318
832.102356,325
832.220642,329
832.338928,321
832.457275,305
832.575623,331
832.693909,317
832.812134,317
832.930481,322
833.048828,320
833.167114,325
833.2854,315
833.403687,308
833.521973,323
833.640259,324
833.758545,308
833.876831,316
833.995056,324
834.113281,304
834.231628,320
834.349915,314
834.468201,318
834.586426,310
834.704651,313
834.822998,321
834.941162,309
835.059448,314
835.177673,319
835.295959,324
835.414246,319
835.53241,305
835.650635,321
835.768921,337
835.887146,318
836.005371,315
836.123596,316
836.241821,307
836.360046,310
836.478271,309
836.596497,327
836.714722,308
836.832886,312
836.95105,335
837.069336,308
837.1875,312
837.305725,320
837.423889,316
837.542053,332
837.660339,320
837.778503,306
837.896667,307
838.014832,322
838.132996,319
838.25116,320
838.369385,319
838.487488,319
838.605713,320
838.723877,317
838.84198,311
838.960205,328
839.078308,325
839.196472,302
839.314636,304
839.4328,332
839.550964,322
839.669067,309
839.787231,314
839.905396,336
840.023499,315
840.141602,311
840.259766,325
840.377869,321
840.495972,314
840.614136,316
840.732239,304
840.850342,324
840.968445,320
841.086548,321
841.204651,312
841.322754,310
841.440918,313
841.55896,317
841.677002,325
841.795166,334
841.913208,329
842.031311,323
842.149353,325
842.267456,318
842.385498,318
842.503601,316
842.621643,319
842.739746,322
842.857788,311
842.97583,315
843.093933,322
843.211975,325
843.330017,304
843.44812,319
843.566101,325
843.684204,332
843.802246,311
843.920227,321
844.038269,318
844.156311,320
844.274292,317
844.392395,319
844.510376,323
844.628357,303
844.74646,310
844.864441,307
844.982422,328
845.100403,326
845.218384,323
845.336426,321
845.454468,308
845.572449,323
845.69043,325
845.808411,312
845.926453,312
846.044373,313
846.162354,317
846.280396,315
846.398315,318
846.516296,323
846.634216,312
846.752197,318
846.870178,313
846.988098,317
847.106079,326
847.22406,323
847.34198,313
847.4599,302
847.577881,318
847.695801,319
847.813782,314
847.931641,322
848.049561,312
848.167603,317
848.285461,315
848.403381,323
848.521362,324
848.639221,311
848.75708,308
848.875,321
848.99292,307
849.110901,309
849.22876,316
849.34668,331
849.464539,319
849.582458,316
849.700317,320
849.818176,323
849.936096,319
850.053955,299
850.171875,316
850.289673,310
850.407593,305
850.525452,320
850.643311,312
850.761169,311
850.878967,313
850.996887,324
851.114746,317
851.232544,317
851.350403,320
851.468262,321
851.58606,316
851.703979,341
851.821777,316
851.939636,314
852.057434,309
852.175232,317
852.293091,315
852.410889,322
852.528687,309
852.646545,312
852.764343,317
852.88208,322
852.999939,311
853.117676,328
853.235535,311
853.353271,315
853.471069,323
853.588928,316
853.706604,318
853.824402,321
853.9422,318
854.059998,318
854.177734,306
854.295532,325
854.413269,326
854.531006,306
854.648804,322
854.766541,331
854.884277,305
855.002014,331
855.119751,315
855.237549,304
855.355225,319
855.473022,334
855.590698,319
855.708435,326
855.826172,307
855.943848,314
856.061646,310
856.179321,330
856.296997,308
856.414795,321
856.53241,311
856.650085,319
856.767822,311
856.885559,328
857.003174,314
857.120911,314
857.238586,313
857.356201,319
857.473938,306
857.591614,318
857.709351,313
857.826965,313
857.944641,310
858.062317,314
858.179993,317
858.297668,307
858.415283,314
858.532959,321
858.650574,310
858.768188,318
858.885803,317
859.003479,323
859.121094,317
859.23877,305
859.356384,315
859.473999,318
859.591675,314
859.709229,319
859.826843,308
859.944458,317
860.062012,322
860.179626,323
860.297302,308
860.414856,326
860.532471,313
860.650024,323
860.767639,315
860.885193,326
861.002808,321
861.120361,329
861.237976,318
861.35553,317
861.473022,335
861.590698,331
861.708191,314
861.825745,319
861.943298,311
862.060852,320
862.178406,318
862.295959,320
862.413513,324
862.531006,311
862.64856,322
862.766113,309
862.883667,314
863.00116,321
863.118713,321
863.236206,322
863.353699,320
863.471252,339
863.588745,313
863.706177,320
863.82373,318
863.941162,319
864.058716,306
864.176208,312
864.29364,313
864.411194,314
864.528687,316
864.646118,314
864.763611,316
864.881042,315
864.998535,313
865.116028,316
865.233459,313
865.350891,329
865.468384,313
865.585754,316
865.703308,313
865.820679,310
865.938171,319
866.055542,319
866.173035,303
866.290466,319
866.407837,324
866.52533,320
866.6427,299
866.760071,314
866.877563,324
866.994934,314
867.112305,317
867.229736,323
867.347107,316
867.464539,318
867.58197,313
867.699341,321
867.81665,306
867.934082,320
868.051453,308
868.168823,330
868.286194,322
868.403564,329
868.520935,314
868.638306,323
868.755676,315
868.872986,332
868.990295,315
869.107727,317
869.225037,316
869.342346,318
869.459717,313
869.577026,328
869.694336,309
869.811707,323
869.929016,328
870.046326,313
870.163635,320
870.280945,306
870.398254,320
870.515564,315
870.632812,314
870.750183,320
870.867432,316
870.984741,320
871.102051,314
871.219299,312
871.336609,308
871.453918,321
871.571106,322
871.688416,317
871.805664,319
871.922852,325
872.040222,318
872.157471,306
872.274719,308
872.391968,317
872.509155,313
872.626465,313
872.743652,309
872.860962,313
872.978149,318
873.095337,331
873.212646,312
873.329834,315
873.44696,326
873.564209,308
873.681396,323
873.798645,312
873.915894,324
874.03302,308
874.150208,311
874.267456,309
874.384583,300
874.501831,311
874.618958,312
874.736145,317
874.853333,323
874.970459,302
875.087646,312
875.204834,317
875.32196,323
875.439148,312
875.556274,318
875.673401,328
875.790527,318
875.907715,331
876.024841,313
876.141968,311
876.259094,308
876.376282,322
876.493347,318
876.610474,318
876.7276,310
876.844727,318
876.961853,325
877.078918,315
877.195984,309
877.313171,308
877.430237,299
877.547302,327
877.664368,311
877.781433,320
877.898499,317
878.015625,317
878.13269,321
878.249695,323
878.366821,329
878.483887,324
878.600952,301
878.717957,326
878.834961,312
878.952087,315
879.069092,323
879.186157,328
879.303162,312
879.420227,324
879.537231,309
879.654236,311
879.77124,295
879.888306,331
880.005249,312
880.122314,331
880.239319,317
880.356323,332
880.473328,298
880.590271,336
880.707275,297
880.824341,328
880.941284,313
881.058228,320
881.175232,317
881.292236,325
881.40918,313
881.526123,316
881.643066,305
881.760071,306
881.877014,318
881.993958,321
882.11084,319
882.227783,320
882.344727,315
882.46167,323
882.578613,320
882.695618,313
882.812439,293
882.929382,331
883.046326,314
883.163208,313
883.280151,310
883.397034,320
883.513916,317
883.630798,318
883.747742,309
883.864563,314
883.981506,320
884.098389,313
884.21521,313
884.332153,328
884.448975,305
884.565796,307
884.682678,306
884.7995,328
884.916443,304
885.033264,313
885.150085,319
885.266968,327
885.383789,317
885.500671,331
885.617493,301
885.734314,324
885.851196,322
885.967896,307
886.084717,320
886.201599,331
886.318359,321
886.435181,330
886.552002,327
886.668762,328
886.785645,302
886.902344,324
887.019165,315
887.135925,310
887.252747,311
887.369446,310
887.486267,325
887.603027,322
887.719788,319
887.836548,325
887.953247,314
888.070068,329
888.186829,316
888.303528,319
888.420288,306
888.536987,309
888.653687,308
888.770447,328
888.887146,312
889.003967,308
889.120667,313
889.237305,320
889.354065,316
889.470703,325
889.587463,310
889.704163,318
889.820862,311
889.937561,324
890.054199,320
890.170837,316
890.287598,313
890.404236,308
890.520874,319
890.637634,327
890.754211,312
890.87085,321
890.987549,322
891.104187,318
891.220886,303
891.337463,324
891.454102,317
891.57074,332
891.687378,309
891.804077,314
891.920654,307
892.037231,317
892.15387,310
892.270447,312
892.387085,313
892.503723,324
892.6203,315
892.736877,320
892.853516,326
892.970032,315
893.08667,321
893.203186,313
893.319763,333
893.43634,327
893.552917,307
893.669556,321
893.786011,322
893.902588,307
894.019165,316
894.135681,312
894.252197,312
894.368835,314
894.485291,310
894.601868,320
894.718384,314
894.8349,326
894.951355,305
895.067932,322
895.184448,320
895.300964,309
895.417419,322
895.533936,316
895.650452,318
895.766907,330
895.883423,310
895.999878,322
896.116333,320
896.232849,315
896.349304,308
896.465759,314
896.582214,313
896.698669,318
896.815125,316
896.931641,332
897.048035,316
897.164551,312
897.280884,321
897.397339,320
897.513794,319
897.630249,317
897.746582,324
897.863098,327
897.979431,318
898.095886,312
898.212341,307
898.328674,309
898.445129,302
898.561462,323
898.677795,321
898.794312,326
898.910645,313
899.026978,329
899.143433,316
899.259766,310
899.37616,310
899.492493,319
899.608765,307
899.725159,327
899.841553,307
899.957947,310
900.07428,309
900.190552,301
900.306946,324
900.423157,318
900.53949,325
900.655884,335
900.772156,306
900.888489,320
901.004822,316
901.121033,328
901.237366,336
901.353699,329
901.46991,332
901.586304,318
901.702515,323
901.818787,320
901.93512,305
902.051331,319
902.167603,323
902.283875,311
902.400085,315
902.516418,320
902.632629,311
902.74884,332
902.865112,312
902.981384,322
903.097595,321
903.213867,323
903.330017,320
903.446289,307
903.5625,304
903.67865,311
903.794922,329
903.911072,336
904.027344,322
904.143494,313
904.259705,308
904.375916,327
904.492065,323
904.608215,326
904.724426,305
904.840576,326
904.956726,321
905.072876,331
905.189087,305
905.305176,330
905.421387,308
905.537537,318
905.653687,315
905.769775,326
905.885925,323
906.002014,330
906.118164,296
906.234314,323
906.350403,323
906.466492,318
906.582642,318
906.69873,320
906.814758,305
906.930908,319
907.046936,301
907.163086,335
907.279175,322
907.395264,324
907.511353,317
907.62738,318
907.743408,326
907.859497,321
907.975525,318
908.091553,317
908.207703,321
908.32373,311
908.439758,309
908.555786,333
908.671814,335
908.787842,319
908.90387,323
909.019775,329
909.135864,319
909.251892,323
909.367859,309
909.483826,324
909.599854,310
909.715881,322
909.831848,311
909.947815,322
910.063782,316
910.179749,323
910.295776,312
910.411743,312
910.527649,318
910.643616,318
910.759583,331
910.875488,328
910.991455,316
911.107361,332
911.223267,310
911.339294,318
911.4552,310
911.571106,321
911.687073,312
911.802979,312
911.918823,320
912.034729,322
912.150635,315
912.266602,328
912.382446,317
912.498352,322
912.614197,329
912.730103,313
912.846008,303
792.44574,321
792.56488,361
792.68396,403
792.80304,373
792.92218,343
793.041199,304
793.160339,328
793.279419,327
793.398499,335
793.517578,314
793.636658,323
793.755737,359
793.874817,363
793.993896,339
794.112976,337
794.232056,345
794.351074,343
794.470215,320
794.589233,326
794.708313,331
794.827393,319
794.946411,336
795.065552,337
795.18457,340
795.303589,335
795.422668,328
795.541687,337
795.660767,342
795.779846,336
795.898865,342
796.017883,317
796.136963,332
796.255981,339
796.375061,332
796.49408,342
796.613037,326
796.732117,345
796.851135,323
796.970154,315
797.089233,333
797.208191,328
797.327271,312
797.446228,342
797.565186,324
797.684265,327
797.803223,335
797.922241,349
798.04126,326
798.160278,327
798.279297,329
798.398315,327
798.517273,330
798.636292,312
798.75531,339
798.874268,333
798.993286,323
799.112244,329
799.231323,329
799.350281,312
799.469238,324
799.588257,325
799.707153,324
799.826111,334
799.945129,348
800.064087,324
800.183044,322
800.302063,326
800.421021,317
800.539978,330
800.658936,327
800.777893,334
800.896912,325
801.015747,333
801.134705,333
801.253723,333
801.37262,326
801.491638,324
801.610535,342
801.729492,325
801.84845,337
801.967407,335
802.086243,329
802.205261,347
802.324158,330
802.443115,315
802.562073,329
802.680969,330
802.799927,319
802.918762,331
803.037659,327
803.156677,324
803.275574,338
803.39447,345
803.513428,330
803.632263,330
803.751221,328
803.870117,324
803.989014,340
804.107971,321
804.226746,340
804.345642,324
804.4646,332
804.583496,337
804.702393,329
804.821228,334
804.940125,338
805.059021,328
805.177917,336
805.296814,323
805.415649,326
805.534546,323
805.653442,328
805.772278,322
805.891113,324
806.01001,334
806.128906,325
806.247742,322
806.366577,328
806.485413,325
806.604309,332
806.723145,320
806.84198,336
806.960876,326
807.079712,337
807.198486,344
807.317383,339
807.436218,328
807.554993,351
807.673889,329
807.792725,323
807.91156,325
808.030396,335
808.14917,343
808.268005,317
808.386841,327
808.505676,325
808.624451,322
808.743286,330
808.862122,334
808.980896,327
809.099731,330
809.218506,334
809.337341,326
809.456116,316
809.57489,350
809.693726,324
809.8125,342
809.931274,304
810.050049,338
810.168884,333
810.287659,330
810.406372,341
810.525269,324
810.643982,333
810.762756,342
810.881531,327
811.000305,334
811.11908,333
811.237854,334
811.356567,320
811.475403,340
811.594116,331
811.71283,340
811.831604,325
811.950378,339
812.069153,326
812.187927,327
812.30658,344
812.425415,318
812.544128,339
812.662781,324
812.781616,334
812.900269,328
813.019043,319
813.137756,345
813.256531,325
813.375244,333
813.493896,329
813.612671,309
813.731384,339
813.850037,346
813.96875,323
814.087524,337
814.206238,320
814.324951,328
814.443604,333
814.562256,333
814.68103,330
814.799683,317
814.918335,326
815.037109,338
815.155762,336
815.274475,333
815.393188,344
815.511841,329
815.630554,339
815.749146,336
815.867859,324
815.986572,318
816.105164,322
816.223877,327
816.342529,336
816.461182,340
816.579895,329
816.698486,319
816.817139,334
816.935791,328
817.054504,343
817.173096,339
817.291748,335
817.4104,337
817.529053,346
817.647644,333
817.766235,326
817.884949,332
818.00354,323
818.122192,319
818.240845,317
818.359436,323
818.478088,329
818.59668,330
818.715271,317
818.833923,324
818.952515,329
819.071106,326
819.189758,328
819.30835,324
819.426941,327
819.545532,320
819.664124,334
819.782715,335
819.901306,326
820.019897,310
820.138489,311
820.25708,325
820.375671,308
820.494202,317
820.612732,335
820.731384,322
820.849915,333
820.968506,313
821.087097,320
821.205627,336
821.324158,315
821.442749,325
821.561279,319
821.679871,321
821.798401,322
821.916931,324
822.035461,297
822.154053,312
822.272583,324
822.391174,323
822.509583,318
822.628174,319
822.746704,309
822.865234,321
822.983765,316
823.102295,313
823.220825,320
823.339294,318
823.457825,311
823.576355,320
823.694824,324
823.813354,327
823.931885,321
824.050354,312
824.168884,323
824.287354,320
824.405823,314
824.524353,342
824.642822,321
824.761353,325
824.879822,326
824.998291,326
825.116699,310
825.235291,330
825.353699,331
825.472168,331
825.590637,319
825.709106,327
825.827576,342
825.946045,316
826.064453,329
826.182983,317
826.301392,325
826.4198,312
826.53833,328
826.656738,317
826.775208,313
826.893677,324
827.012024,317
827.130493,310
827.248962,323
827.36731,319
827.485779,312
827.604248,311
827.722595,327
827.841064,310
827.959412,327
828.077942,303
828.196289,310
828.314636,316
828.433105,321
828.551514,310
828.669861,312
828.78833,318
828.906677,318
829.025085,309
829.143433,323
829.261841,314
829.38031,306
829.498657,326
829.617004,315
829.735413,308
829.85376,316
829.972107,314
830.090515,318
830.208862,311
830.327209,318
830.445557,307
830.563904,321
830.682312,322
830.800659,310
830.919006,317
831.037354,309
831.155701,338
831.274048,317
831.392395,311
831.51062,314
831.629028,316
831.747314,313
831.865662,315
831.984009,322
832.102356,315
832.220642,310
832.338928,322
832.457275,315
832.575623,321
832.693909,308
832.812134,320
832.930481,325
833.048828,305
833.167114,293
833.2854,329
833.403687,302
833.521973,314
833.640259,308
833.758545,303
833.876831,307
833.995056,318
834.113281,313
834.231628,322
834.349915,321
834.468201,308
834.586426,325
834.704651,314
834.822998,315
834.941162,315
835.059448,329
835.177673,316
835.295959,313
835.414246,311
835.53241,320
835.650635,323
835.768921,300
835.887146,326
836.005371,317
836.123596,315
836.241821,315
836.360046,317
836.478271,325
836.596497,326
836.714722,316
836.832886,325
836.95105,320
837.069336,321
837.1875,309
837.305725,312
837.423889,319
837.542053,313
837.660339,318
837.778503,321
837.896667,308
838.014832,320
838.132996,325
838.25116,307
838.369385,331
838.487488,325
838.605713,316
838.723877,314
838.84198,324
838.960205,324
839.078308,316
839.196472,315
839.314636,308
839.4328,314
839.550964,321
839.669067,316
839.787231,331
839.905396,314
840.023499,306
840.141602,318
840.259766,323
840.377869,307
840.495972,316
840.614136,318
840.732239,330
840.850342,323
840.968445,325
841.086548,309
841.204651,314
841.322754,317
841.440918,312
841.55896,316
841.677002,315
841.795166,324
841.913208,321
842.031311,313
842.149353,318
842.267456,322
842.385498,316
842.503601,318
842.621643,314
842.739746,318
842.857788,323
842.97583,327
843.093933,319
843.211975,313
843.330017,314
843.44812,320
843.566101,318
843.684204,315
843.802246,320
843.920227,317
844.038269,320
844.156311,309
844.274292,311
844.392395,311
844.510376,309
844.628357,302
844.74646,318
844.864441,303
844.982422,303
845.100403,313
845.218384,318
845.336426,324
845.454468,312
845.572449,330
845.69043,307
845.808411,304
845.926453,323
846.044373,318
846.162354,320
846.280396,317
846.398315,320
846.516296,311
846.634216,327
846.752197,312
846.870178,312
846.988098,322
847.106079,318
847.22406,305
847.34198,309
847.4599,323
847.577881,306
847.695801,297
847.813782,312
847.931641,324
848.049561,316
848.167603,302
848.285461,321
848.403381,319
848.521362,313
848.639221,333
848.75708,314
848.875,327
848.99292,317
849.110901,329
849.22876,314
849.34668,329
849.464539,324
849.582458,323
849.700317,307
849.818176,311
849.936096,319
850.053955,315
850.171875,319
850.289673,312
850.407593,324
850.525452,321
850.643311,322
850.761169,310
850.878967,329
850.996887,319
851.114746,314
851.232544,323
851.350403,311
851.468262,311
851.58606,328
851.703979,310
851.821777,319
851.939636,316
852.057434,321
852.175232,308
852.293091,321
852.410889,310
852.528687,313
852.646545,310
852.764343,328
852.88208,303
852.999939,314
853.117676,306
853.235535,303
853.353271,323
853.471069,328
853.588928,315
853.706604,311
853.824402,303
853.9422,306
854.059998,319
854.177734,312
854.295532,325
854.413269,309
854.531006,307
854.648804,319
854.766541,323
854.884277,319
855.002014,320
855.119751,312
855.237549,309
855.355225,319
855.473022,319
855.590698,316
855.708435,313
855.826172,326
855.943848,316
856.061646,331
856.179321,309
856.296997,308
856.414795,319
856.53241,316
856.650085,315
856.767822,307
856.885559,313
857.003174,309
857.120911,312
857.238586,325
857.356201,306
857.473938,319
857.591614,311
857.709351,312
857.826965,314
857.944641,323
858.062317,308
858.179993,331
858.297668,316
858.415283,306
858.532959,315
858.650574,318
858.768188,329
858.885803,322
859.003479,317
859.121094,303
859.23877,317
859.356384,325
859.473999,319
859.591675,302
859.709229,318
859.826843,318
859.944458,320
860.062012,304
860.179626,323
860.297302,319
860.414856,314
860.532471,308
860.650024,320
860.767639,320
860.885193,314
861.002808,324
861.120361,305
861.237976,320
861.35553,320
861.473022,326
861.590698,313
861.708191,321
861.825745,312
861.943298,317
862.060852,308
862.178406,313
862.295959,315
862.413513,318
862.531006,314
862.64856,309
862.766113,310
862.883667,317
863.00116,327
863.118713,314
863.236206,320
863.353699,316
863.471252,323
863.588745,319
863.706177,306
863.82373,299
863.941162,299
864.058716,316
864.176208,319
864.29364,326
864.411194,320
864.528687,318
864.646118,315
864.763611,318
864.881042,319
864.998535,313
865.116028,315
865.233459,310
865.350891,315
865.468384,320
865.585754,309
865.703308,303
865.820679,334
865.938171,324
866.055542,317
866.173035,333
866.290466,326
866.407837,323
866.52533,328
866.6427,337
866.760071,324
866.877563,315
866.994934,316
867.112305,314
867.229736,320
867.347107,317
867.464539,306
867.58197,315
867.699341,329
867.81665,312
867.934082,313
868.051453,327
868.168823,310
868.286194,311
868.403564,321
868.520935,326
868.638306,325
868.755676,313
868.872986,304
868.990295,313
869.107727,302
869.225037,327
869.342346,315
869.459717,312
869.577026,315
869.694336,320
869.811707,327
869.929016,325
870.046326,327
870.163635,317
870.280945,305
870.398254,328
870.515564,324
870.632812,319
870.750183,316
870.867432,320
870.984741,316
871.102051,308
871.219299,320
871.336609,322
871.453918,311
871.571106,318
871.688416,302
871.805664,305
871.922852,313
872.040222,329
872.157471,314
872.274719,303
872.391968,321
872.509155,312
872.626465,309
872.743652,308
872.860962,314
872.978149,311
873.095337,335
873.212646,316
873.329834,323
873.44696,317
873.564209,323
873.681396,305
873.798645,301
873.915894,312
874.03302,306
874.150208,320
874.267456,308
874.384583,317
874.501831,312
874.618958,313
874.736145,324
874.853333,318
874.970459,310
875.087646,323
875.204834,306
875.32196,309
875.439148,300
875.556274,320
875.673401,310
875.790527,321
875.907715,322
876.024841,318
876.141968,324
876.259094,311
876.376282,303
876.493347,298
876.610474,307
876.7276,313
876.844727,305
876.961853,318
877.078918,305
877.195984,325
877.313171,314
877.430237,314
877.547302,313
877.664368,322
877.781433,315
877.898499,308
878.015625,316
878.13269,306
878.249695,318
878.366821,338
878.483887,324
878.600952,324
878.717957,316
878.834961,308
878.952087,331
879.069092,318
879.186157,324
879.303162,305
879.420227,313
879.537231,308
879.654236,308
879.77124,322
879.888306,315
880.005249,317
880.122314,301
880.239319,324
880.356323,317
880.473328,318
880.590271,319
880.707275,313
880.824341,308
880.941284,327
881.058228,309
881.175232,323
881.292236,319
881.40918,311
881.526123,312
881.643066,303
881.760071,309
881.877014,320
881.993958,304
882.11084,320
882.227783,307
882.344727,307
882.46167,325
882.578613,312
882.695618,312
882.812439,317
882.929382,318
883.046326,313
883.163208,313
883.280151,312
883.397034,326
883.513916,318
883.630798,319
883.747742,324
883.864563,317
883.981506,307
884.098389,321
884.21521,333
884.332153,309
884.448975,315
884.565796,317
884.682678,317
884.7995,306
884.916443,322
885.033264,316
885.150085,315
885.266968,312
885.383789,324
885.500671,308
885.617493,318
885.734314,305
885.851196,329
885.967896,311
886.084717,311
886.201599,318
886.318359,316
886.435181,318
886.552002,325
886.668762,312
886.785645,324
886.902344,304
887.019165,325
887.135925,314
887.252747,325
887.369446,324
887.486267,309
887.603027,314
887.719788,302
887.836548,313
887.953247,318
888.070068,312
888.186829,319
888.303528,309
888.420288,326
888.536987,314
888.653687,321
888.770447,308
888.887146,315
889.003967,311
889.120667,321
889.237305,325
889.354065,328
889.470703,321
889.587463,327
889.704163,308
889.820862,320
889.937561,323
890.054199,327
890.170837,312
890.287598,317
890.404236,321
890.520874,328
890.637634,319
890.754211,318
890.87085,319
890.987549,320
891.104187,328
891.220886,325
891.337463,306
891.454102,328
891.57074,315
891.687378,314
891.804077,309
891.920654,319
892.037231,308
892.15387,323
892.270447,307
892.387085,313
892.503723,316
892.6203,315
892.736877,312
892.853516,331
892.970032,323
893.08667,325
893.203186,311
893.319763,312
893.43634,331
893.552917,317
893.669556,319
893.786011,316
893.902588,317
894.019165,332
894.135681,313
894.252197,309
894.368835,309
894.485291,314
894.601868,318
894.718384,332
894.8349,301
894.951355,317
895.067932,313
895.184448,309
895.300964,319
895.417419,308
895.533936,320
895.650452,310
895.766907,305
895.883423,323
895.999878,324
896.116333,303
896.232849,321
896.349304,325
896.465759,326
896.582214,322
896.698669,318
896.815125,320
896.931641,320
897.048035,321
897.164551,319
897.280884,304
897.397339,326
897.513794,325
897.630249,299
897.746582,318
897.863098,310
897.979431,320
898.095886,322
898.212341,318
898.328674,326
898.445129,304
898.561462,324
898.677795,313
898.794312,312
898.910645,313
899.026978,310
899.143433,314
899.259766,319
899.37616,327
899.492493,313
899.608765,325
899.725159,312
899.841553,318
899.957947,310
900.07428,320
900.190552,301
900.306946,309
900.423157,327
900.53949,313
900.655884,322
900.772156,328
900.888489,321
901.004822,320
901.121033,308
901.237366,311
901.353699,320
901.46991,319
901.586304,321
901.702515,319
901.818787,310
901.93512,326
902.051331,325
902.167603,325
902.283875,310
902.400085,302
902.516418,309
902.632629,314
902.74884,319
902.865112,330
902.981384,309
903.097595,330
903.213867,326
903.330017,328
903.446289,319
903.5625,316
903.67865,313
903.794922,317
903.911072,311
904.027344,339
904.143494,309
904.259705,327
904.375916,315
904.492065,316
904.608215,312
904.724426,324
904.840576,312
904.956726,316
905.072876,313
905.189087,313
905.305176,304
905.421387,314
905.537537,321
905.653687,327
905.769775,305
905.885925,316
906.002014,310
906.118164,307
906.234314,320
906.350403,320
906.466492,327
906.582642,328
906.69873,309
906.814758,317
906.930908,312
907.046936,326
907.163086,316
907.279175,324
907.395264,312
907.511353,326
907.62738,308
907.743408,312
907.859497,315
907.975525,314
908.091553,331
908.207703,302
908.32373,324
908.439758,324
908.555786,319
908.671814,316
908.787842,317
908.90387,329
909.019775,306
909.135864,319
909.251892,298
909.367859,323
909.483826,316
909.599854,320
909.715881,313
909.831848,314
909.947815,313
910.063782,331
910.179749,315
910.295776,325
910.411743,309
910.527649,325
910.643616,302
910.759583,322
910.875488,309
910.991455,308
911.107361,316
911.223267,316
911.339294,315
911.4552,327
911.571106,323
911.687073,315
911.802979,323
911.918823,314
912.034729,322
912.150635,315
912.266602,316
912.382446,302
912.498352,312
912.614197,323
912.730103,314
912.846008,319
792.44574,319
792.56488,353
792.68396,388
792.80304,374
792.92218,340
793.041199,315
793.160339,327
793.279419,338
793.398499,335
793.517578,320
793.636658,328
793.755737,334
793.874817,352
793.993896,345
794.112976,338
794.232056,322
794.351074,333
794.470215,317
794.589233,337
794.708313,315
794.827393,341
794.946411,325
795.065552,340
795.18457,344
795.303589,338
795.422668,319
795.541687,339
795.660767,315
795.779846,325
795.898865,326
796.017883,322
796.136963,333
796.255981,324
796.375061,337
796.49408,340
796.613037,327
796.732117,339
796.851135,336
796.970154,327
797.089233,336
797.208191,342
797.327271,319
797.446228,336
797.565186,333
797.684265,334
797.803223,338
797.922241,331
798.04126,320
798.160278,329
798.279297,311
798.398315,345
798.517273,335
798.636292,330
798.75531,348
798.874268,336
798.993286,335
799.112244,322
799.231323,321
799.350281,335
799.469238,324
799.588257,329
799.707153,340
799.826111,334
799.945129,330
800.064087,328
800.183044,330
800.302063,336
800.421021,333
800.539978,318
800.658936,323
800.777893,320
800.896912,320
801.015747,317
801.134705,320
801.253723,338
801.37262,332
801.491638,333
801.610535,311
801.729492,340
801.84845,321
801.967407,341
802.086243,321
802.205261,328
802.324158,320
802.443115,322
802.562073,323
802.680969,329
802.799927,331
802.918762,340
803.037659,325
803.156677,337
803.275574,340
803.39447,336
803.513428,325
803.632263,336
803.751221,326
803.870117,322
803.989014,319
804.107971,328
804.226746,345
804.345642,341
804.4646,329
804.583496,308
804.702393,336
804.821228,332
804.940125,322
805.059021,330
805.177917,341
805.296814,336
805.415649,327
805.534546,327
805.653442,336
805.772278,329
805.891113,326
806.01001,314
806.128906,322
806.247742,334
806.366577,334
806.485413,327
806.604309,317
806.723145,338
806.84198,331
806.960876,326
807.079712,329
807.198486,338
807.317383,340
807.436218,335
807.554993,311
807.673889,335
807.792725,328
807.91156,316
808.030396,337
808.14917,323
808.268005,325
808.386841,335
808.505676,336
808.624451,330
808.743286,330
808.862122,324
808.980896,341
809.099731,327
809.218506,332
809.337341,335
809.456116,326
809.57489,338
809.693726,328
809.8125,321
809.931274,321
810.050049,336
810.168884,321
810.287659,341
810.406372,334
810.525269,314
810.643982,340
810.762756,335
810.881531,313
811.000305,342
811.11908,323
811.237854,345
811.356567,320
811.475403,344
811.594116,320
811.71283,338
811.831604,331
811.950378,334
812.069153,333
812.187927,342
812.30658,334
812.425415,328
812.544128,326
812.662781,347
812.781616,341
812.900269,326
813.019043,330
813.137756,333
813.256531,329
813.375244,330
813.493896,336
813.612671,323
813.731384,327
813.850037,338
813.96875,334
814.087524,338
814.206238,328
814.324951,339
814.443604,332
814.562256,336
814.68103,332
814.799683,331
814.918335,326
815.037109,334
815.155762,332
815.274475,327
815.393188,333
815.511841,323
815.630554,335
815.749146,332
815.867859,328
815.986572,324
816.105164,349
816.223877,329
816.342529,323
816.461182,344
816.579895,316
816.698486,328
816.817139,324
816.935791,341
817.054504,331
817.173096,342
817.291748,333
817.4104,334
817.529053,315
817.647644,328
817.766235,329
817.884949,322
818.00354,322
818.122192,312
818.240845,323
818.359436,318
818.478088,314
818.59668,324
818.715271,327
818.833923,309
818.952515,318
819.071106,319
819.189758,336
819.30835,326
819.426941,315
819.545532,324
819.664124,318
819.782715,319
819.901306,312
820.019897,321
820.138489,314
820.25708,319
820.375671,314
820.494202,306
820.612732,309
820.731384,319
820.849915,317
820.968506,329
821.087097,326
821.205627,314
821.324158,319
821.442749,322
821.561279,313
821.679871,311
821.798401,303
821.916931,340
822.035461,320
822.154053,314
822.272583,321
822.391174,322
822.509583,313
822.628174,312
822.746704,313
822.865234,315
822.983765,317
823.102295,318
823.220825,319
823.339294,337
823.457825,317
823.576355,314
823.694824,311
823.813354,313
823.931885,333
824.050354,325
824.168884,316
824.287354,320
824.405823,299
824.524353,323
824.642822,322
824.761353,323
824.879822,313
824.998291,309
825.116699,315
825.235291,320
825.353699,303
825.472168,321
825.590637,308
825.709106,317
825.827576,306
825.946045,320
826.064453,309
826.182983,327
826.301392,318
826.4198,321
826.53833,301
826.656738,325
826.775208,310
826.893677,318
827.012024,325
827.130493,330
827.248962,315
827.36731,315
827.485779,319
827.604248,317
827.722595,309
827.841064,324
827.959412,305
828.077942,329
828.196289,307
828.314636,307
828.433105,309
828.551514,311
828.669861,311
828.78833,311
828.906677,303
829.025085,316
829.143433,314
829.261841,313
829.38031,327
829.498657,313
829.617004,309
829.735413,319
829.85376,307
829.972107,310
830.090515,321
830.208862,317
830.327209,309
830.445557,317
830.563904,313
830.682312,313
830.800659,312
830.919006,317
831.037354,321
831.155701,310
831.274048,308
831.392395,319
831.51062,310
831.629028,327
831.747314,318
831.865662,315
831.984009,320
832.102356,319
832.220642,317
832.338928,313
832.457275,316
832.575623,315
832.693909,317
832.812134,312
832.930481,312
833.048828,319
833.167114,322
833.2854,324
833.403687,321
833.521973,316
833.640259,320
833.758545,316
833.876831,320
833.995056,318
834.113281,324
834.231628,320
834.349915,315
834.468201,332
834.586426,321
834.704651,317
834.822998,307
834.941162,313
835.059448,320
835.177673,309
835.295959,303
835.414246,321
835.53241,309
835.650635,326
835.768921,311
835.887146,319
836.005371,309
836.123596,317
836.241821,319
836.360046,326
836.478271,314
836.596497,321
836.714722,318
836.832886,323
836.95105,319
837.069336,334
837.1875,301
837.305725,333
837.423889,321
837.542053,332
837.660339,306
837.778503,329
837.896667,324
838.014832,318
838.132996,314
838.25116,327
838.369385,305
838.487488,318
838.605713,309
838.723877,335
838.84198,311
838.960205,311
839.078308,330
839.196472,322
839.314636,327
839.4328,315
839.550964,300
839.669067,319
839.787231,321
839.905396,307
840.023499,334
840.141602,325
840.259766,318
840.377869,327
840.495972,301
840.614136,325
840.732239,312
840.850342,325
840.968445,308
841.086548,329
841.204651,318
841.322754,321
841.440918,321
841.55896,321
841.677002,317
841.795166,322
841.913208,305
842.031311,312
842.149353,305
842.267456,322
842.385498,320
842.503601,320
842.621643,314
842.739746,318
842.857788,306
842.97583,319
843.093933,310
843.211975,332
843.330017,315
843.44812,314
843.566101,308
843.684204,322
843.802246,313
843.920227,314
844.038269,315
844.156311,324
844.274292,300
844.392395,300
844.510376,315
844.628357,315
844.74646,316
844.864441,298
844.982422,319
845.100403,324
845.218384,301
845.336426,316
845.454468,314
845.572449,315
845.69043,319
845.808411,319
845.926453,305
846.044373,315
846.162354,315
846.280396,322
846.398315,314
846.516296,310
846.634216,307
846.752197,316
846.870178,309
846.988098,322
847.106079,327
847.22406,314
847.34198,312
847.4599,317
847.577881,324
847.695801,308
847.813782,316
847.931641,307
848.049561,312
848.167603,313
848.285461,312
848.403381,303
848.521362,304
848.639221,308
848.75708,315
848.875,312
848.99292,313
849.110901,332
849.22876,303
849.34668,311
849.464539,313
849.582458,315
849.700317,314
849.818176,312
849.936096,314
850.053955,319
850.171875,319
850.289673,319
850.407593,293
850.525452,323
850.643311,312
850.761169,317
850.878967,303
850.996887,315
851.114746,322
851.232544,306
851.350403,313
851.468262,315
851.58606,318
851.703979,307
851.821777,320
851.939636,321
852.057434,316
852.175232,326
852.293091,304
852.410889,317
852.528687,313
852.646545,322
852.764343,309
852.88208,326
852.999939,310
853.117676,325
853.235535,308
853.353271,318
853.471069,308
853.588928,316
853.706604,304
853.824402,308
853.9422,309
854.059998,318
854.177734,315
854.295532,316
854.413269,317
854.531006,319
854.648804,318
854.766541,312
854.884277,306
855.002014,317
855.119751,304
855.237549,323
855.355225,318
855.473022,322
855.590698,316
855.708435,315
855.826172,307
855.943848,334
856.061646,302
856.179321,321
856.296997,311
856.414795,326
856.53241,311
856.650085,320
856.767822,323
856.885559,307
857.003174,315
857.120911,309
857.238586,308
857.356201,318
857.473938,317
857.591614,314
857.709351,315
857.826965,323
857.944641,311
858.062317,310
858.179993,301
858.297668,319
858.415283,320
858.532959,312
858.650574,297
858.768188,328
858.885803,319
859.003479,308
859.121094,318
859.23877,316
859.356384,322
859.473999,323
859.591675,313
859.709229,327
859.826843,307
859.944458,319
860.062012,315
860.179626,318
860.297302,299
860.414856,336
860.532471,322
860.650024,326
860.767639,328
860.885193,315
861.002808,322
861.120361,326
861.237976,319
861.35553,309
861.473022,314
861.590698,313
861.708191,315
861.825745,318
861.943298,316
862.060852,323
862.178406,303
862.295959,326
862.413513,310
862.531006,297
862.64856,321
862.766113,310
862.883667,325
863.00116,318
863.118713,311
863.236206,307
863.353699,308
863.471252,313
863.588745,314
863.706177,317
863.82373,319
863.941162,311
864.058716,321
864.176208,325
864.29364,310
864.411194,325
864.528687,315
864.646118,325
864.763611,320
864.881042,309
864.998535,315
865.116028,305
865.233459,315
865.350891,326
865.468384,296
865.585754,318
865.703308,316
865.820679,313
865.938171,308
866.055542,321
866.173035,304
866.290466,312
866.407837,311
866.52533,316
866.6427,299
866.760071,319
866.877563,312
866.994934,317
867.112305,310
867.229736,325
867.347107,322
867.464539,320
867.58197,315
867.699341,323
867.81665,314
867.934082,320
868.051453,303
868.168823,333
868.286194,320
868.403564,314
868.520935,313
868.638306,317
868.755676,306
868.872986,330
868.990295,305
869.107727,328
869.225037,305
869.342346,321
869.459717,316
869.577026,313
869.694336,309
869.811707,304
869.929016,326
870.046326,309
870.163635,326
870.280945,311
870.398254,313
870.515564,317
870.632812,307
870.750183,304
870.867432,317
870.984741,310
871.102051,316
871.219299,317
871.336609,321
871.453918,333
871.571106,306
871.688416,318
871.805664,305
871.922852,306
872.040222,317
872.157471,315
872.274719,309
872.391968,320
872.509155,315
872.626465,309
872.743652,307
872.860962,318
872.978149,319
873.095337,308
873.212646,307
873.329834,317
873.44696,305
873.564209,309
873.681396,306
873.798645,321
873.915894,305
874.03302,322
874.150208,311
874.267456,312
874.384583,313
874.501831,309
874.618958,304
874.736145,313
874.853333,306
874.970459,305
875.087646,312
875.204834,314
875.32196,310
875.439148,304
875.556274,309
875.673401,303
875.790527,309
875.907715,301
876.024841,319
876.141968,324
876.259094,309
876.376282,314
876.493347,316
876.610474,303
876.7276,307
876.844727,322
876.961853,302
877.078918,312
877.195984,311
877.313171,321
877.430237,318
877.547302,317
877.664368,314
877.781433,304
877.898499,319
878.015625,308
878.13269,318
878.249695,317
878.366821,314
878.483887,317
878.600952,305
878.717957,317
878.834961,313
878.952087,319
879.069092,299
879.186157,326
879.303162,323
879.420227,314
879.537231,325
879.654236,307
879.77124,304
879.888306,312
880.005249,313
880.122314,322
880.239319,312
880.356323,319
880.473328,313
880.590271,321
880.707275,304
880.824341,322
880.941284,308
881.058228,317
881.175232,309
881.292236,320
881.40918,302
881.526123,312
881.643066,305
881.760071,317
881.877014,317
881.993958,322
882.11084,315
882.227783,317
882.344727,305
882.46167,330
882.578613,307
882.695618,323
882.812439,303
882.929382,317
883.046326,303
883.163208,327
883.280151,305
883.397034,316
883.513916,324
883.630798,304
883.747742,325
883.864563,306
883.981506,317
884.098389,321
884.21521,307
884.332153,319
884.448975,313
884.565796,322
884.682678,306
884.7995,311
884.916443,310
885.033264,302
885.150085,320
885.266968,321
885.383789,309
885.500671,320
885.617493,301
885.734314,333
885.851196,308
885.967896,328
886.084717,314
886.201599,312
886.318359,319
886.435181,322
886.552002,307
886.668762,313
886.785645,321
886.902344,316
887.019165,306
887.135925,304
887.252747,314
887.369446,315
887.486267,321
887.603027,315
887.719788,316
887.836548,324
887.953247,316
888.070068,312
888.186829,305
888.303528,324
888.420288,314
888.536987,328
888.653687,308
888.770447,316
888.887146,313
889.003967,321
889.120667,320
889.237305,323
889.354065,307
889.470703,311
889.587463,322
889.704163,311
889.820862,308
889.937561,320
890.054199,307
890.170837,323
890.287598,317
890.404236,316
890.520874,315
890.637634,322
890.754211,310
890.87085,315
890.987549,311
891.104187,327
891.220886,300
891.337463,328
891.454102,309
891.57074,323
891.687378,304
891.804077,324
891.920654,317
892.037231,320
892.15387,324
892.270447,313
892.387085,309
892.503723,309
892.6203,316
892.736877,323
892.853516,318
892.970032,335
893.08667,310
893.203186,319
893.319763,309
893.43634,323
893.552917,320
893.669556,311
893.786011,313
893.902588,317
894.019165,315
894.135681,323
894.252197,313
894.368835,306
894.485291,310
894.601868,319
894.718384,305
894.8349,317
894.951355,311
895.067932,312
895.184448,316
895.300964,321
895.417419,319
895.533936,316
895.650452,309
895.766907,318
895.883423,319
895.999878,323
896.116333,319
896.232849,323
896.349304,320
896.465759,325
896.582214,314
896.698669,319
896.815125,322
896.931641,316
897.048035,310
897.164551,305
897.280884,312
897.397339,317
897.513794,315
897.630249,315
897.746582,305
897.863098,306
897.979431,316
898.095886,315
898.212341,300
898.328674,324
898.445129,299
898.561462,321
898.677795,316
898.794312,313
898.910645,318
899.026978,325
899.143433,336
899.259766,322
899.37616,318
899.492493,315
899.608765,315
899.725159,318
899.841553,311
899.957947,325
900.07428,313
900.190552,308
900.306946,309
900.423157,330
900.53949,317
900.655884,313
900.772156,300
900.888489,314
901.004822,322
901.121033,314
901.237366,334
901.353699,322
901.46991,315
901.586304,319
901.702515,318
901.818787,312
901.93512,319
902.051331,325
902.167603,313
902.283875,320
902.400085,314
902.516418,316
902.632629,311
902.74884,316
902.865112,322
902.981384,321
903.097595,310
903.213867,313
903.330017,318
903.446289,308
903.5625,310
903.67865,322
903.794922,318
903.911072,326
904.027344,313
904.143494,323
904.259705,324
904.375916,325
904.492065,315
904.608215,315
904.724426,315
904.840576,316
904.956726,317
905.072876,316
905.189087,306
905.305176,315
905.421387,314
905.537537,326
905.653687,324
905.769775,307
905.885925,315
906.002014,317
906.118164,310
906.234314,312
906.350403,308
906.466492,319
906.582642,314
906.69873,324
906.814758,323
906.930908,317
907.046936,303
907.163086,312
907.279175,302
907.395264,301
907.511353,299
907.62738,317
907.743408,312
907.859497,325
907.975525,310
908.091553,326
908.207703,313
908.32373,318
908.439758,310
908.555786,309
908.671814,303
908.787842,325
908.90387,321
909.019775,317
909.135864,303
909.251892,314
909.367859,326
909.483826,306
909.599854,302
909.715881,332
909.831848,312
909.947815,322
910.063782,320
910.179749,311
910.295776,315
910.411743,317
910.527649,305
910.643616,318
910.759583,294
910.875488,319
910.991455,315
911.107361,314
911.223267,304
911.339294,316
911.4552,319
911.571106,316
911.687073,316
911.802979,315
911.918823,320
912.034729,338
912.150635,304
912.266602,315
912.382446,299
912.498352,323
912.614197,305
912.730103,325
912.846008,324
