792.44574,323
792.56488,353
792.68396,388
792.80304,378
792.92218,334
793.041199,319
793.160339,326
793.279419,339
793.398499,331
793.517578,317
793.636658,327
793.755737,331
793.874817,358
793.993896,338
794.112976,333
794.232056,323
794.351074,334
794.470215,338
794.589233,331
794.708313,330
794.827393,319
794.946411,335
795.065552,339
795.18457,337
795.303589,340
795.422668,332
795.541687,331
795.660767,336
795.779846,325
795.898865,326
796.017883,332
796.136963,343
796.255981,330
796.375061,333
796.49408,343
796.613037,334
796.732117,317
796.851135,331
796.970154,328
797.089233,322
797.208191,335
797.327271,316
797.446228,328
797.565186,337
797.684265,321
797.803223,335
797.922241,341
798.04126,335
798.160278,323
798.279297,316
798.398315,330
798.517273,332
798.636292,314
798.75531,332
798.874268,322
798.993286,323
799.112244,334
799.231323,327
799.350281,327
799.469238,314
799.588257,333
799.707153,320
799.826111,339
799.945129,323
800.064087,329
800.183044,320
800.302063,333
800.421021,332
800.539978,325
800.658936,328
800.777893,320
800.896912,326
801.015747,321
801.134705,328
801.253723,334
801.37262,341
801.491638,332
801.610535,322
801.729492,341
801.84845,319
801.967407,329
802.086243,309
802.205261,322
802.324158,326
802.443115,323
802.562073,311
802.680969,331
802.799927,322
802.918762,321
803.037659,324
803.156677,324
803.275574,348
803.39447,337
803.513428,319
803.632263,321
803.751221,322
803.870117,318
803.989014,310
804.107971,335
804.226746,309
804.345642,332
804.4646,318
804.583496,327
804.702393,311
804.821228,327
804.940125,336
805.059021,313
805.177917,318
805.296814,323
805.415649,331
805.534546,319
805.653442,330
805.772278,318
805.891113,315
806.01001,321
806.128906,333
806.247742,322
806.366577,322
806.485413,328
806.604309,330
806.723145,324
806.84198,319
806.960876,330
807.079712,325
807.198486,337
807.317383,327
807.436218,328
807.554993,325
807.673889,326
807.792725,329
807.91156,316
808.030396,331
808.14917,316
808.268005,328
808.386841,322
808.505676,311
808.624451,326
808.743286,309
808.862122,310
808.980896,330
809.099731,309
809.218506,323
809.337341,327
809.456116,310
809.57489,328
809.693726,319
809.8125,324
809.931274,336
810.050049,328
810.168884,318
810.287659,317
810.406372,318
810.525269,311
810.643982,333
810.762756,303
810.881531,329
811.000305,320
811.11908,325
811.237854,327
811.356567,324
811.475403,338
811.594116,328
811.71283,324
811.831604,318
811.950378,336
812.069153,328
812.187927,324
812.30658,336
812.425415,321
812.544128,311
812.662781,338
812.781616,317
812.900269,318
813.019043,336
813.137756,328
813.256531,327
813.375244,315
813.493896,317
813.612671,323
813.731384,336
813.850037,328
813.96875,331
814.087524,331
814.206238,335
814.324951,314
814.443604,322
814.562256,327
814.68103,331
814.799683,319
814.918335,336
815.037109,333
815.155762,315
815.274475,331
815.393188,312
815.511841,325
815.630554,325
815.749146,321
815.867859,313
815.986572,334
816.105164,323
816.223877,337
816.342529,328
816.461182,311
816.579895,341
816.698486,317
816.817139,325
816.935791,329
817.054504,313
817.173096,318
817.291748,326
817.4104,318
817.529053,324
817.647644,320
817.766235,327
817.884949,320
818.00354,319
818.122192,326
818.240845,315
818.359436,311
818.478088,320
818.59668,308
818.715271,324
818.833923,315
818.952515,323
819.071106,311
819.189758,326
819.30835,316
819.426941,306
819.545532,323
819.664124,314
819.782715,319
819.901306,328
820.019897,331
820.138489,315
820.25708,330
820.375671,312
820.494202,323
820.612732,327
820.731384,325
820.849915,316
820.968506,326
821.087097,323
821.205627,327
821.324158,320
821.442749,313
821.561279,320
821.679871,310
821.798401,329
821.916931,316
822.035461,316
822.154053,320
822.272583,322
822.391174,311
822.509583,326
822.628174,304
822.746704,308
822.865234,324
822.983765,313
823.102295,323
823.220825,317
823.339294,313
823.457825,332
823.576355,304
823.694824,314
823.813354,304
823.931885,318
824.050354,292
824.168884,316
824.287354,306
824.405823,324
824.524353,319
824.642822,321
824.761353,310
824.879822,329
824.998291,314
825.116699,319
825.235291,313
825.353699,313
825.472168,320
825.590637,307
825.709106,320
825.827576,307
825.946045,328
826.064453,321
826.182983,328
826.301392,316
826.4198,320
826.53833,311
826.656738,315
826.775208,313
826.893677,320
827.012024,318
827.130493,306
827.248962,324
827.36731,314
827.485779,330
827.604248,329
827.722595,325
827.841064,312
827.959412,315
828.077942,316
828.196289,311
828.314636,321
828.433105,307
828.551514,316
828.669861,309
828.78833,326
828.906677,315
829.025085,310
829.143433,324
829.261841,309
829.38031,306
829.498657,315
829.617004,311
829.735413,313
829.85376,309
829.972107,314
830.090515,320
830.208862,317
830.327209,325
830.445557,310
830.563904,314
830.682312,322
830.800659,316
830.919006,317
831.037354,324
831.155701,305
831.274048,315
831.392395,323
831.51062,311
831.629028,331
831.747314,316
831.865662,326
831.984009,318
832.102356,315
832.220642,322
832.338928,319
832.457275,319
832.575623,313
832.693909,311
832.812134,315
832.930481,322
833.048828,304
833.167114,328
833.2854,304
833.403687,323
833.521973,317
833.640259,304
833.758545,312
833.876831,313
833.995056,312
834.113281,312
834.231628,311
834.349915,300
834.468201,328
834.586426,317
834.704651,314
834.822998,311
834.941162,309
835.059448,330
835.177673,312
835.295959,326
835.414246,322
835.53241,318
835.650635,318
835.768921,325
835.887146,317
836.005371,308
836.123596,318
836.241821,310
836.360046,316
836.478271,319
836.596497,320
836.714722,314
836.832886,304
836.95105,305
837.069336,327
837.1875,323
837.305725,304
837.423889,312
837.542053,307
837.660339,317
837.778503,304
837.896667,326
838.014832,309
838.132996,315
838.25116,334
838.369385,305
838.487488,315
838.605713,311
838.723877,348
838.84198,308
838.960205,310
839.078308,319
839.196472,314
839.314636,324
839.4328,319
839.550964,318
839.669067,312
839.787231,325
839.905396,322
840.023499,313
840.141602,322
840.259766,319
840.377869,309
840.495972,318
840.614136,313
840.732239,326
840.850342,331
840.968445,303
841.086548,319
841.204651,315
841.322754,319
841.440918,308
841.55896,316
841.677002,317
841.795166,329
841.913208,313
842.031311,322
842.149353,320
842.267456,317
842.385498,323
842.503601,312
842.621643,323
842.739746,318
842.857788,324
842.97583,321
843.093933,317
843.211975,308
843.330017,324
843.44812,322
843.566101,314
843.684204,328
843.802246,320
843.920227,331
844.038269,317
844.156311,317
844.274292,321
844.392395,323
844.510376,316
844.628357,311
844.74646,318
844.864441,309
844.982422,311
845.100403,316
845.218384,310
845.336426,317
845.454468,319
845.572449,316
845.69043,301
845.808411,320
845.926453,325
846.044373,314
846.162354,328
846.280396,318
846.398315,327
846.516296,311
846.634216,310
846.752197,318
846.870178,324
846.988098,321
847.106079,324
847.22406,309
847.34198,327
847.4599,310
847.577881,327
847.695801,322
847.813782,313
847.931641,309
848.049561,312
848.167603,306
848.285461,320
848.403381,318
848.521362,309
848.639221,323
848.75708,321
848.875,307
848.99292,320
849.110901,315
849.22876,299
849.34668,311
849.464539,322
849.582458,319
849.700317,331
849.818176,315
849.936096,307
850.053955,318
850.171875,319
850.289673,322
850.407593,310
850.525452,325
850.643311,315
850.761169,311
850.878967,309
850.996887,313
851.114746,324
851.232544,314
851.350403,320
851.468262,320
851.58606,330
851.703979,316
851.821777,310
851.939636,321
852.057434,327
852.175232,310
852.293091,319
852.410889,326
852.528687,312
852.646545,314
852.764343,324
852.88208,313
852.999939,319
853.117676,322
853.235535,313
853.353271,324
853.471069,309
853.588928,319
853.706604,319
853.824402,322
853.9422,321
854.059998,314
854.177734,321
854.295532,307
854.413269,310
854.531006,316
854.648804,298
854.766541,321
854.884277,311
855.002014,326
855.119751,317
855.237549,325
855.355225,314
855.473022,313
855.590698,316
855.708435,309
855.826172,324
855.943848,313
856.061646,314
856.179321,321
856.296997,313
856.414795,317
856.53241,307
856.650085,310
856.767822,321
856.885559,310
857.003174,325
857.120911,320
857.238586,323
857.356201,315
857.473938,319
857.591614,315
857.709351,318
857.826965,311
857.944641,326
858.062317,310
858.179993,326
858.297668,318
858.415283,315
858.532959,304
858.650574,324
858.768188,319
858.885803,332
859.003479,303
859.121094,316
859.23877,314
859.356384,313
859.473999,302
859.591675,311
859.709229,310
859.826843,306
859.944458,303
860.062012,311
860.179626,322
860.297302,305
860.414856,307
860.532471,317
860.650024,319
860.767639,316
860.885193,315
861.002808,325
861.120361,320
861.237976,320
861.35553,318
861.473022,308
861.590698,326
861.708191,319
861.825745,317
861.943298,316
862.060852,315
862.178406,318
862.295959,307
862.413513,322
862.531006,321
862.64856,314
862.766113,312
862.883667,317
863.00116,309
863.118713,319
863.236206,310
863.353699,304
863.471252,329
863.588745,311
863.706177,317
863.82373,312
863.941162,313
864.058716,319
864.176208,309
864.29364,317
864.411194,317
864.528687,313
864.646118,294
864.763611,327
864.881042,308
864.998535,319
865.116028,306
865.233459,314
865.350891,328
865.468384,327
865.585754,318
865.703308,313
865.820679,319
865.938171,329
866.055542,311
866.173035,310
866.290466,312
866.407837,321
866.52533,303
866.6427,319
866.760071,308
866.877563,322
866.994934,323
867.112305,300
867.229736,320
867.347107,321
867.464539,329
867.58197,330
867.699341,301
867.81665,312
867.934082,315
868.051453,314
868.168823,314
868.286194,312
868.403564,321
868.520935,324
868.638306,316
868.755676,322
868.872986,315
868.990295,313
869.107727,320
869.225037,308
869.342346,320
869.459717,315
869.577026,310
869.694336,324
869.811707,325
869.929016,314
870.046326,323
870.163635,303
870.280945,325
870.398254,320
870.515564,319
870.632812,333
870.750183,325
870.867432,300
870.984741,317
871.102051,324
871.219299,323
871.336609,312
871.453918,318
871.571106,329
871.688416,311
871.805664,317
871.922852,306
872.040222,325
872.157471,326
872.274719,312
872.391968,323
872.509155,321
872.626465,304
872.743652,314
872.860962,317
872.978149,317
873.095337,312
873.212646,324
873.329834,315
873.44696,310
873.564209,312
873.681396,329
873.798645,311
873.915894,321
874.03302,312
874.150208,324
874.267456,313
874.384583,318
874.501831,306
874.618958,332
874.736145,330
874.853333,325
874.970459,328
875.087646,326
875.204834,312
875.32196,315
875.439148,319
875.556274,326
875.673401,316
875.790527,313
875.907715,308
876.024841,320
876.141968,322
876.259094,314
876.376282,324
876.493347,322
876.610474,317
876.7276,310
876.844727,297
876.961853,319
877.078918,307
877.195984,315
877.313171,315
877.430237,318
877.547302,316
877.664368,310
877.781433,315
877.898499,326
878.015625,320
878.13269,308
878.249695,319
878.366821,313
878.483887,312
878.600952,316
878.717957,305
878.834961,325
878.952087,313
879.069092,313
879.186157,312
879.303162,295
879.420227,310
879.537231,315
879.654236,321
879.77124,315
879.888306,322
880.005249,327
880.122314,306
880.239319,325
880.356323,329
880.473328,314
880.590271,322
880.707275,319
880.824341,311
880.941284,307
881.058228,322
881.175232,331
881.292236,314
881.40918,314
881.526123,312
881.643066,300
881.760071,300
881.877014,332
881.993958,313
882.11084,308
882.227783,320
882.344727,327
882.46167,317
882.578613,301
882.695618,305
882.812439,316
882.929382,323
883.046326,304
883.163208,320
883.280151,319
883.397034,312
883.513916,314
883.630798,309
883.747742,314
883.864563,304
883.981506,337
884.098389,307
884.21521,309
884.332153,321
884.448975,324
884.565796,309
884.682678,332
884.7995,314
884.916443,311
885.033264,321
885.150085,330
885.266968,336
885.383789,323
885.500671,312
885.617493,322
885.734314,328
885.851196,307
885.967896,312
886.084717,323
886.201599,306
886.318359,319
886.435181,319
886.552002,308
886.668762,340
886.785645,323
886.902344,322
887.019165,326
887.135925,313
887.252747,328
887.369446,315
887.486267,330
887.603027,310
887.719788,318
887.836548,314
887.953247,327
888.070068,322
888.186829,318
888.303528,320
888.420288,329
888.536987,314
888.653687,337
888.770447,309
888.887146,318
889.003967,327
889.120667,307
889.237305,311
889.354065,321
889.470703,322
889.587463,324
889.704163,323
889.820862,326
889.937561,314
890.054199,320
890.170837,314
890.287598,311
890.404236,319
890.520874,295
890.637634,318
890.754211,324
890.87085,315
890.987549,333
891.104187,314
891.220886,317
891.337463,312
891.454102,322
891.57074,324
891.687378,323
891.804077,306
891.920654,324
892.037231,310
892.15387,333
892.270447,317
892.387085,317
892.503723,319
892.6203,307
892.736877,324
892.853516,317
892.970032,319
893.08667,323
893.203186,321
893.319763,317
893.43634,319
893.552917,319
893.669556,314
893.786011,311
893.902588,319
894.019165,313
894.135681,308
894.252197,334
894.368835,310
894.485291,325
894.601868,311
894.718384,314
894.8349,330
894.951355,309
895.067932,325
895.184448,316
895.300964,316
895.417419,322
895.533936,320
895.650452,320
895.766907,312
895.883423,301
895.999878,324
896.116333,315
896.232849,316
896.349304,325
896.465759,314
896.582214,326
896.698669,311
896.815125,329
896.931641,302
897.048035,312
897.164551,324
897.280884,313
897.397339,310
897.513794,319
897.630249,306
897.746582,321
897.863098,306
897.979431,326
898.095886,318
898.212341,316
898.328674,309
898.445129,305
898.561462,323
898.677795,314
898.794312,306
898.910645,326
899.026978,307
899.143433,317
899.259766,313
899.37616,316
899.492493,314
899.608765,314
899.725159,313
899.841553,331
899.957947,313
900.07428,313
900.190552,320
900.306946,320
900.423157,317
900.53949,307
900.655884,314
900.772156,316
900.888489,312
901.004822,306
901.121033,318
901.237366,326
901.353699,312
901.46991,313
901.586304,315
901.702515,329
901.818787,331
901.93512,332
902.051331,320
902.167603,327
902.283875,319
902.400085,328
902.516418,307
902.632629,321
902.74884,328
902.865112,333
902.981384,306
903.097595,318
903.213867,332
903.330017,316
903.446289,306
903.5625,317
903.67865,325
903.794922,314
903.911072,324
904.027344,318
904.143494,323
904.259705,305
904.375916,325
904.492065,315
904.608215,309
904.724426,300
904.840576,317
904.956726,314
905.072876,312
905.189087,307
905.305176,319
905.421387,316
905.537537,311
905.653687,313
905.769775,318
905.885925,322
906.002014,309
906.118164,320
906.234314,317
906.350403,317
906.466492,318
906.582642,314
906.69873,322
906.814758,303
906.930908,307
907.046936,313
907.163086,314
907.279175,316
907.395264,322
907.511353,322
907.62738,327
907.743408,317
907.859497,308
907.975525,327
908.091553,307
908.207703,319
908.32373,312
908.439758,314
908.555786,314
908.671814,321
908.787842,315
908.90387,326
909.019775,307
909.135864,307
909.251892,303
909.367859,317
909.483826,318
909.599854,314
909.715881,308
909.831848,309
909.947815,298
910.063782,305
910.179749,320
910.295776,317
910.411743,325
910.527649,314
910.643616,308
910.759583,318
910.875488,318
910.991455,321
911.107361,318
911.223267,315
911.339294,322
911.4552,327
911.571106,314
911.687073,334
911.802979,312
911.918823,325
912.034729,307
912.150635,316
912.266602,309
912.382446,316
912.498352,322
912.614197,310
912.730103,314
912.846008,319
792.44574,321
792.56488,359
792.68396,400
792.80304,375
792.92218,336
793.041199,316
793.160339,319
793.279419,350
793.398499,324
793.517578,314
793.636658,330
793.755737,328
793.874817,356
793.993896,363
794.112976,327
794.232056,334
794.351074,331
794.470215,339
794.589233,330
794.708313,334
794.827393,333
794.946411,338
795.065552,346
795.18457,326
795.303589,339
795.422668,344
795.541687,334
795.660767,326
795.779846,330
795.898865,324
796.017883,331
796.136963,332
796.255981,343
796.375061,323
796.49408,349
796.613037,324
796.732117,318
796.851135,338
796.970154,329
797.089233,329
797.208191,334
797.327271,336
797.446228,328
797.565186,342
797.684265,333
797.803223,325
797.922241,321
798.04126,324
798.160278,332
798.279297,311
798.398315,344
798.517273,334
798.636292,325
798.75531,329
798.874268,335
798.993286,325
799.112244,336
799.231323,327
799.350281,335
799.469238,319
799.588257,334
799.707153,328
799.826111,328
799.945129,333
800.064087,327
800.183044,318
800.302063,333
800.421021,321
800.539978,330
800.658936,331
800.777893,339
800.896912,331
801.015747,310
801.134705,318
801.253723,344
801.37262,327
801.491638,323
801.610535,319
801.729492,334
801.84845,331
801.967407,324
802.086243,328
802.205261,326
802.324158,334
802.443115,333
802.562073,325
802.680969,322
802.799927,337
802.918762,338
803.037659,341
803.156677,332
803.275574,332
803.39447,337
803.513428,319
803.632263,330
803.751221,328
803.870117,317
803.989014,311
804.107971,326
804.226746,324
804.345642,328
804.4646,321
804.583496,329
804.702393,323
804.821228,327
804.940125,324
805.059021,327
805.177917,338
805.296814,321
805.415649,332
805.534546,336
805.653442,323
805.772278,319
805.891113,326
806.01001,330
806.128906,317
806.247742,317
806.366577,321
806.485413,326
806.604309,333
806.723145,315
806.84198,317
806.960876,317
807.079712,338
807.198486,344
807.317383,326
807.436218,323
807.554993,320
807.673889,328
807.792725,323
807.91156,325
808.030396,335
808.14917,317
808.268005,324
808.386841,321
808.505676,324
808.624451,321
808.743286,325
808.862122,327
808.980896,307
809.099731,321
809.218506,327
809.337341,330
809.456116,332
809.57489,332
809.693726,324
809.8125,321
809.931274,322
810.050049,329
810.168884,320
810.287659,336
810.406372,312
810.525269,328
810.643982,302
810.762756,323
810.881531,321
811.000305,318
811.11908,317
811.237854,315
811.356567,336
811.475403,327
811.594116,319
811.71283,330
811.831604,311
811.950378,328
812.069153,324
812.187927,341
812.30658,311
812.425415,331
812.544128,311
812.662781,324
812.781616,324
812.900269,319
813.019043,318
813.137756,325
813.256531,317
813.375244,325
813.493896,324
813.612671,326
813.731384,339
813.850037,319
813.96875,331
814.087524,319
814.206238,326
814.324951,325
814.443604,323
814.562256,327
814.68103,311
814.799683,330
814.918335,318
815.037109,325
815.155762,330
815.274475,317
815.393188,318
815.511841,325
815.630554,319
815.749146,317
815.867859,313
815.986572,327
816.105164,332
816.223877,326
816.342529,309
816.461182,321
816.579895,320
816.698486,338
816.817139,318
816.935791,327
817.054504,321
817.173096,320
817.291748,334
817.4104,325
817.529053,324
817.647644,323
817.766235,324
817.884949,320
818.00354,325
818.122192,323
818.240845,297
818.359436,319
818.478088,323
818.59668,326
818.715271,324
818.833923,320
818.952515,319
819.071106,316
819.189758,323
819.30835,323
819.426941,305
819.545532,333
819.664124,307
819.782715,317
819.901306,317
820.019897,322
820.138489,323
820.25708,324
820.375671,315
820.494202,323
820.612732,313
820.731384,317
820.849915,317
820.968506,314
821.087097,312
821.205627,324
821.324158,316
821.442749,333
821.561279,325
821.679871,324
821.798401,327
821.916931,316
822.035461,311
822.154053,320
822.272583,307
822.391174,323
822.509583,322
822.628174,323
822.746704,311
822.865234,310
822.983765,314
823.102295,313
823.220825,324
823.339294,331
823.457825,308
823.576355,325
823.694824,320
823.813354,319
823.931885,322
824.050354,307
824.168884,309
824.287354,326
824.405823,314
824.524353,328
824.642822,318
824.761353,328
824.879822,331
824.998291,316
825.116699,315
825.235291,320
825.353699,327
825.472168,304
825.590637,327
825.709106,317
825.827576,315
825.946045,315
826.064453,310
826.182983,322
826.301392,326
826.4198,317
826.53833,332
826.656738,321
826.775208,305
826.893677,318
827.012024,317
827.130493,310
827.248962,322
827.36731,314
827.485779,324
827.604248,314
827.722595,310
827.841064,322
827.959412,319
828.077942,324
828.196289,307
828.314636,330
828.433105,328
828.551514,339
828.669861,303
828.78833,314
828.906677,314
829.025085,330
829.143433,305
829.261841,324
829.38031,303
829.498657,325
829.617004,310
829.735413,318
829.85376,319
829.972107,333
830.090515,306
830.208862,325
830.327209,329
830.445557,316
830.563904,313
830.682312,316
830.800659,307
830.919006,311
831.037354,329
831.155701,313
831.274048,309
831.392395,315
831.51062,312
831.629028,312
831.747314,322
831.865662,309
831.984009,313
832.102356,311
832.220642,319
832.338928,316
832.457275,321
832.575623,309
832.693909,316
832.812134,329
832.930481,315
833.048828,332
833.167114,324
833.2854,334
833.403687,318
833.521973,318
833.640259,313
833.758545,310
833.876831,317
833.995056,312
834.113281,320
834.231628,309
834.349915,315
834.468201,319
834.586426,331
834.704651,315
834.822998,322
834.941162,319
835.059448,322
835.177673,317
835.295959,319
835.414246,309
835.53241,319
835.650635,322
835.768921,316
835.887146,312
836.005371,317
836.123596,320
836.241821,320
836.360046,320
836.478271,307
836.596497,326
836.714722,319
836.832886,305
836.95105,323
837.069336,308
837.1875,312
837.305725,311
837.423889,312
837.542053,308
837.660339,321
837.778503,314
837.896667,318
838.014832,313
838.132996,317
838.25116,313
838.369385,308
838.487488,330
838.605713,303
838.723877,316
838.84198,319
838.960205,315
839.078308,314
839.196472,319
839.314636,320
839.4328,332
839.550964,320
839.669067,315
839.787231,313
839.905396,325
840.023499,309
840.141602,308
840.259766,323
840.377869,335
840.495972,313
840.614136,311
840.732239,305
840.850342,315
840.968445,322
841.086548,308
841.204651,307
841.322754,321
841.440918,315
841.55896,313
841.677002,321
841.795166,313
841.913208,316
842.031311,335
842.149353,315
842.267456,319
842.385498,314
842.503601,327
842.621643,298
842.739746,324
842.857788,314
842.97583,307
843.093933,324
843.211975,317
843.330017,325
843.44812,324
843.566101,313
843.684204,329
843.802246,307
843.920227,322
844.038269,317
844.156311,335
844.274292,308
844.392395,340
844.510376,333
844.628357,320
844.74646,305
844.864441,313
844.982422,314
845.100403,326
845.218384,339
845.336426,317
845.454468,310
845.572449,313
845.69043,322
845.808411,307
845.926453,308
846.044373,324
846.162354,308
846.280396,314
846.398315,317
846.516296,324
846.634216,311
846.752197,309
846.870178,320
846.988098,327
847.106079,311
847.22406,325
847.34198,319
847.4599,331
847.577881,318
847.695801,323
847.813782,313
847.931641,316
848.049561,326
848.167603,310
848.285461,320
848.403381,316
848.521362,305
848.639221,327
848.75708,319
848.875,328
848.99292,315
849.110901,308
849.22876,317
849.34668,307
849.464539,313
849.582458,326
849.700317,323
849.818176,305
849.936096,311
850.053955,314
850.171875,320
850.289673,321
850.407593,317
850.525452,320
850.643311,320
850.761169,313
850.878967,315
850.996887,330
851.114746,325
851.232544,322
851.350403,309
851.468262,321
851.58606,306
851.703979,331
851.821777,326
851.939636,318
852.057434,307
852.175232,322
852.293091,308
852.410889,320
852.528687,322
852.646545,315
852.764343,321
852.88208,324
852.999939,320
853.117676,311
853.235535,309
853.353271,327
853.471069,298
853.588928,324
853.706604,313
853.824402,310
853.9422,309
854.059998,318
854.177734,307
854.295532,312
854.413269,317
854.531006,329
854.648804,320
854.766541,307
854.884277,313
855.002014,313
855.119751,311
855.237549,332
855.355225,305
855.473022,320
855.590698,317
855.708435,320
855.826172,319
855.943848,319
856.061646,305
856.179321,331
856.296997,312
856.414795,320
856.53241,311
856.650085,319
856.767822,286
856.885559,318
857.003174,312
857.120911,318
857.238586,311
857.356201,309
857.473938,321
857.591614,313
857.709351,316
857.826965,315
857.944641,316
858.062317,317
858.179993,315
858.297668,312
858.415283,319
858.532959,319
858.650574,304
858.768188,318
858.885803,306
859.003479,323
859.121094,310
859.23877,322
859.356384,310
859.473999,327
859.591675,310
859.709229,319
859.826843,317
859.944458,311
860.062012,310
860.179626,329
860.297302,304
860.414856,309
860.532471,328
860.650024,321
860.767639,309
860.885193,313
861.002808,307
861.120361,306
861.237976,321
861.35553,331
861.473022,307
861.590698,324
861.708191,315
861.825745,304
861.943298,315
862.060852,310
862.178406,318
862.295959,323
862.413513,310
862.531006,310
862.64856,328
862.766113,316
862.883667,312
863.00116,309
863.118713,318
863.236206,320
863.353699,314
863.471252,320
863.588745,319
863.706177,317
863.82373,327
863.941162,323
864.058716,311
864.176208,304
864.29364,316
864.411194,310
864.528687,316
864.646118,310
864.763611,311
864.881042,305
864.998535,326
865.116028,309
865.233459,324
865.350891,310
865.468384,321
865.585754,318
865.703308,318
865.820679,324
865.938171,316
866.055542,304
866.173035,311
866.290466,321
866.407837,310
866.52533,326
866.6427,315
866.760071,299
866.877563,320
866.994934,316
867.112305,320
867.229736,321
867.347107,324
867.464539,321
867.58197,318
867.699341,316
867.81665,307
867.934082,303
868.051453,320
868.168823,326
868.286194,299
868.403564,306
868.520935,323
868.638306,325
868.755676,315
868.872986,318
868.990295,303
869.107727,328
869.225037,319
869.342346,325
869.459717,303
869.577026,326
869.694336,313
869.811707,335
869.929016,326
870.046326,312
870.163635,321
870.280945,324
870.398254,312
870.515564,318
870.632812,311
870.750183,321
870.867432,317
870.984741,320
871.102051,319
871.219299,316
871.336609,316
871.453918,320
871.571106,325
871.688416,313
871.805664,325
871.922852,325
872.040222,316
872.157471,316
872.274719,312
872.391968,322
872.509155,318
872.626465,315
872.743652,305
872.860962,313
872.978149,314
873.095337,319
873.212646,319
873.329834,320
873.44696,320
873.564209,324
873.681396,309
873.798645,312
873.915894,320
874.03302,330
874.150208,318
874.267456,321
874.384583,299
874.501831,314
874.618958,330
874.736145,322
874.853333,315
874.970459,324
875.087646,319
875.204834,312
875.32196,329
875.439148,314
875.556274,335
875.673401,324
875.790527,314
875.907715,328
876.024841,307
876.141968,331
876.259094,316
876.376282,310
876.493347,327
876.610474,312
876.7276,314
876.844727,324
876.961853,314
877.078918,322
877.195984,314
877.313171,306
877.430237,309
877.547302,321
877.664368,305
877.781433,321
877.898499,306
878.015625,326
878.13269,321
878.249695,315
878.366821,322
878.483887,316
878.600952,313
878.717957,318
878.834961,311
878.952087,331
879.069092,309
879.186157,328
879.303162,312
879.420227,316
879.537231,298
879.654236,321
879.77124,312
879.888306,321
880.005249,328
880.122314,322
880.239319,318
880.356323,320
880.473328,309
880.590271,321
880.707275,318
880.824341,311
880.941284,319
881.058228,316
881.175232,299
881.292236,321
881.40918,306
881.526123,321
881.643066,309
881.760071,323
881.877014,310
881.993958,310
882.11084,324
882.227783,315
882.344727,321
882.46167,324
882.578613,303
882.695618,314
882.812439,313
882.929382,311
883.046326,325
883.163208,309
883.280151,307
883.397034,330
883.513916,298
883.630798,316
883.747742,318
883.864563,328
883.981506,310
884.098389,318
884.21521,313
884.332153,319
884.448975,319
884.565796,309
884.682678,305
884.7995,323
884.916443,325
885.033264,330
885.150085,303
885.266968,315
885.383789,330
885.500671,326
885.617493,302
885.734314,341
885.851196,325
885.967896,321
886.084717,311
886.201599,318
886.318359,316
886.435181,320
886.552002,304
886.668762,310
886.785645,313
886.902344,320
887.019165,314
887.135925,315
887.252747,321
887.369446,321
887.486267,306
887.603027,324
887.719788,308
887.836548,334
887.953247,334
888.070068,310
888.186829,312
888.303528,319
888.420288,331
888.536987,316
888.653687,318
888.770447,317
888.887146,315
889.003967,316
889.120667,316
889.237305,322
889.354065,315
889.470703,310
889.587463,316
889.704163,308
889.820862,316
889.937561,320
890.054199,309
890.170837,322
890.287598,328
890.404236,325
890.520874,310
890.637634,314
890.754211,303
890.87085,307
890.987549,310
891.104187,325
891.220886,318
891.337463,313
891.454102,326
891.57074,314
891.687378,307
891.804077,328
891.920654,313
892.037231,320
892.15387,329
892.270447,324
892.387085,320
892.503723,317
892.6203,313
892.736877,315
892.853516,318
892.970032,319
893.08667,312
893.203186,320
893.319763,310
893.43634,311
893.552917,317
893.669556,316
893.786011,321
893.902588,322
894.019165,301
894.135681,311
894.252197,307
894.368835,321
894.485291,318
894.601868,327
894.718384,309
894.8349,327
894.951355,320
895.067932,325
895.184448,305
895.300964,312
895.417419,300
895.533936,319
895.650452,317
895.766907,311
895.883423,316
895.999878,312
896.116333,300
896.232849,332
896.349304,322
896.465759,322
896.582214,322
896.698669,310
896.815125,319
896.931641,316
897.048035,313
897.164551,331
897.280884,321
897.397339,324
897.513794,304
897.630249,310
897.746582,324
897.863098,313
897.979431,302
898.095886,326
898.212341,322
898.328674,318
898.445129,317
898.561462,319
898.677795,310
898.794312,319
898.910645,319
899.026978,310
899.143433,321
899.259766,310
899.37616,303
899.492493,305
899.608765,329
899.725159,320
899.841553,313
899.957947,317
900.07428,306
900.190552,310
900.306946,313
900.423157,316
900.53949,302
900.655884,320
900.772156,319
900.888489,329
901.004822,309
901.121033,316
901.237366,319
901.353699,319
901.46991,307
901.586304,328
901.702515,308
901.818787,318
901.93512,307
902.051331,319
902.167603,314
902.283875,321
902.400085,318
902.516418,316
902.632629,308
902.74884,319
902.865112,312
902.981384,316
903.097595,321
903.213867,333
903.330017,314
903.446289,328
903.5625,317
903.67865,321
903.794922,310
903.911072,313
904.027344,300
904.143494,325
904.259705,316
904.375916,320
904.492065,313
904.608215,313
904.724426,311
904.840576,314
904.956726,305
905.072876,327
905.189087,313
905.305176,306
905.421387,310
905.537537,301
905.653687,300
905.769775,322
905.885925,321
906.002014,318
906.118164,318
906.234314,313
906.350403,338
906.466492,323
906.582642,313
906.69873,335
906.814758,300
906.930908,313
907.046936,312
907.163086,314
907.279175,312
907.395264,318
907.511353,313
907.62738,316
907.743408,312
907.859497,304
907.975525,326
908.091553,325
908.207703,318
908.32373,322
908.439758,320
908.555786,321
908.671814,323
908.787842,330
908.90387,313
909.019775,322
909.135864,319
909.251892,320
909.367859,302
909.483826,320
909.599854,303
909.715881,321
909.831848,321
909.947815,316
910.063782,319
910.179749,323
910.295776,314
910.411743,309
910.527649,318
910.643616,321
910.759583,313
910.875488,310
910.991455,323
911.107361,328
911.223267,316
911.339294,318
911.4552,297
911.571106,326
911.687073,316
911.802979,339
911.918823,306
912.034729,316
912.150635,319
912.266602,315
912.382446,322
912.498352,312
912.614197,316
912.730103,311
912.846008,300
792.44574,336
792.56488,356
792.68396,415
792.80304,403
792.92218,335
793.041199,327
793.160339,338
793.279419,344
793.398499,333
793.517578,310
793.636658,320
793.755737,326
793.874817,366
793.993896,344
794.112976,338
794.232056,342
794.351074,329
794.470215,325
794.589233,337
794.708313,321
794.827393,342
794.946411,326
795.065552,339
795.18457,340
795.303589,335
795.422668,343
795.541687,342
795.660767,323
795.779846,330
795.898865,333
796.017883,320
796.136963,345
796.255981,331
796.375061,338
796.49408,358
796.613037,332
796.732117,326
796.851135,342
796.970154,329
797.089233,323
797.208191,317
797.327271,318
797.446228,343
797.565186,315
797.684265,340
797.803223,325
797.922241,318
798.04126,322
798.160278,328
798.279297,340
798.398315,324
798.517273,331
798.636292,315
798.75531,333
798.874268,328
798.993286,328
799.112244,322
799.231323,330
799.350281,321
799.469238,309
799.588257,337
799.707153,329
799.826111,326
799.945129,333
800.064087,331
800.183044,333
800.302063,322
800.421021,321
800.539978,337
800.658936,316
800.777893,322
800.896912,315
801.015747,319
801.134705,327
801.253723,314
801.37262,327
801.491638,333
801.610535,329
801.729492,336
801.84845,327
801.967407,337
802.086243,319
802.205261,324
802.324158,314
802.443115,325
802.562073,332
802.680969,316
802.799927,320
802.918762,325
803.037659,333
803.156677,330
803.275574,322
803.39447,324
803.513428,327
803.632263,311
803.751221,330
803.870117,327
803.989014,333
804.107971,320
804.226746,319
804.345642,332
804.4646,320
804.583496,329
804.702393,330
804.821228,321
804.940125,328
805.059021,330
805.177917,326
805.296814,333
805.415649,327
805.534546,327
805.653442,332
805.772278,324
805.891113,312
806.01001,322
806.128906,320
806.247742,343
806.366577,321
806.485413,314
806.604309,317
806.723145,334
806.84198,319
806.960876,326
807.079712,324
807.198486,322
807.317383,336
807.436218,312
807.554993,319
807.673889,325
807.792725,325
807.91156,328
808.030396,327
808.14917,309
808.268005,307
808.386841,331
808.505676,331
808.624451,324
808.743286,316
808.862122,324
808.980896,311
809.099731,335
809.218506,328
809.337341,320
809.456116,327
809.57489,334
809.693726,325
809.8125,320
809.931274,319
810.050049,342
810.168884,325
810.287659,343
810.406372,332
810.525269,333
810.643982,339
810.762756,320
810.881531,313
811.000305,334
811.11908,326
811.237854,320
811.356567,324
811.475403,320
811.594116,312
811.71283,323
811.831604,327
811.950378,326
812.069153,324
812.187927,327
812.30658,331
812.425415,338
812.544128,323
812.662781,325
812.781616,314
812.900269,331
813.019043,328
813.137756,325
813.256531,332
813.375244,322
813.493896,322
813.612671,318
813.731384,318
813.850037,328
813.96875,320
814.087524,338
814.206238,318
814.324951,320
814.443604,324
814.562256,317
814.68103,314
814.799683,322
814.918335,325
815.037109,314
815.155762,327
815.274475,309
815.393188,330
815.511841,330
815.630554,337
815.749146,321
815.867859,320
815.986572,325
816.105164,317
816.223877,327
816.342529,321
816.461182,318
816.579895,310
816.698486,323
816.817139,333
816.935791,323
817.054504,325
817.173096,318
817.291748,323
817.4104,311
817.529053,315
817.647644,319
817.766235,321
817.884949,315
818.00354,312
818.122192,332
818.240845,322
818.359436,317
818.478088,330
818.59668,331
818.715271,322
818.833923,318
818.952515,325
819.071106,309
819.189758,320
819.30835,327
819.426941,316
819.545532,320
819.664124,323
819.782715,321
819.901306,313
820.019897,326
820.138489,310
820.25708,331
820.375671,327
820.494202,302
820.612732,325
820.731384,313
820.849915,314
820.968506,332
821.087097,322
821.205627,316
821.324158,305
821.442749,323
821.561279,322
821.679871,303
821.798401,316
821.916931,329
822.035461,311
822.154053,331
822.272583,315
822.391174,317
822.509583,327
822.628174,323
822.746704,301
822.865234,338
822.983765,317
823.102295,326
823.220825,309
823.339294,319
823.457825,311
823.576355,320
823.694824,311
823.813354,320
823.931885,325
824.050354,323
824.168884,319
824.287354,332
824.405823,309
824.524353,327
824.642822,324
824.761353,312
824.879822,339
824.998291,334
825.116699,320
825.235291,330
825.353699,317
825.472168,320
825.590637,322
825.709106,321
825.827576,322
825.946045,310
826.064453,320
826.182983,333
826.301392,319
826.4198,316
826.53833,293
826.656738,323
826.775208,322
826.893677,324
827.012024,320
827.130493,314
827.248962,325
827.36731,321
827.485779,310
827.604248,321
827.722595,316
827.841064,338
827.959412,310
828.077942,321
828.196289,315
828.314636,315
828.433105,332
828.551514,319
828.669861,316
828.78833,323
828.906677,308
829.025085,323
829.143433,312
829.261841,329
829.38031,319
829.498657,322
829.617004,331
829.735413,323
829.85376,307
829.972107,317
830.090515,316
830.208862,309
830.327209,316
830.445557,306
830.563904,307
830.682312,309
830.800659,303
830.919006,322
831.037354,322
831.155701,325
831.274048,320
831.392395,323
831.51062,298
831.629028,333
831.747314,326
831.865662,314
831.984009,312
832.102356,320
832.220642,309
832.338928,326
832.457275,321
832.575623,325
832.693909,310
832.812134,328
832.930481,330
833.048828,319
833.167114,318
833.2854,327
833.403687,305
833.521973,317
833.640259,315
833.758545,317
833.876831,315
833.995056,330
834.113281,313
834.231628,328
834.349915,307
834.468201,320
834.586426,311
834.704651,316
834.822998,325
834.941162,341
835.059448,318
835.177673,326
835.295959,319
835.414246,324
835.53241,317
835.650635,320
835.768921,322
835.887146,319
836.005371,318
836.123596,314
836.241821,315
836.360046,314
836.478271,320
836.596497,325
836.714722,318
836.832886,314
836.95105,309
837.069336,334
837.1875,304
837.305725,330
837.423889,318
837.542053,325
837.660339,312
837.778503,323
837.896667,316
838.014832,327
838.132996,328
838.25116,324
838.369385,313
838.487488,325
838.605713,309
838.723877,315
838.84198,310
838.960205,314
839.078308,324
839.196472,316
839.314636,314
839.4328,306
839.550964,317
839.669067,328
839.787231,328
839.905396,324
840.023499,320
840.141602,323
840.259766,319
840.377869,323
840.495972,333
840.614136,320
840.732239,301
840.850342,323
840.968445,315
841.086548,325
841.204651,319
841.322754,318
841.440918,314
841.55896,324
841.677002,311
841.795166,324
841.913208,322
842.031311,327
842.149353,325
842.267456,314
842.385498,321
842.503601,320
842.621643,312
842.739746,316
842.857788,312
842.97583,310
843.093933,301
843.211975,317
843.330017,307
843.44812,324
843.566101,304
843.684204,313
843.802246,312
843.920227,310
844.038269,320
844.156311,329
844.274292,315
844.392395,316
844.510376,317
844.628357,317
844.74646,314
844.864441,320
844.982422,326
845.100403,314
845.218384,306
845.336426,315
845.454468,312
845.572449,334
845.69043,308
845.808411,341
845.926453,299
846.044373,326
846.162354,311
846.280396,312
846.398315,309
846.516296,321
846.634216,324
846.752197,309
846.870178,314
846.988098,328
847.106079,307
847.22406,321
847.34198,322
847.4599,320
847.577881,317
847.695801,335
847.813782,308
847.931641,327
848.049561,293
848.167603,326
848.285461,316
848.403381,324
848.521362,309
848.639221,321
848.75708,329
848.875,323
848.99292,322
849.110901,310
849.22876,312
849.34668,332
849.464539,318
849.582458,321
849.700317,315
849.818176,329
849.936096,318
850.053955,314
850.171875,311
850.289673,318
850.407593,315
850.525452,314
850.643311,319
850.761169,316
850.878967,326
850.996887,325
851.114746,325
851.232544,316
851.350403,314
851.468262,326
851.58606,311
851.703979,330
851.821777,306
851.939636,321
852.057434,310
852.175232,331
852.293091,317
852.410889,313
852.528687,317
852.646545,322
852.764343,310
852.88208,324
852.999939,315
853.117676,317
853.235535,303
853.353271,328
853.471069,313
853.588928,308
853.706604,322
853.824402,334
853.9422,303
854.059998,321
854.177734,320
854.295532,304
854.413269,317
854.531006,324
854.648804,319
854.766541,312
854.884277,319
855.002014,315
855.119751,313
855.237549,323
855.355225,331
855.473022,310
855.590698,314
855.708435,322
855.826172,321
855.943848,320
856.061646,324
856.179321,323
856.296997,297
856.414795,324
856.53241,318
856.650085,312
856.767822,314
856.885559,320
857.003174,312
857.120911,334
857.238586,328
857.356201,324
857.473938,311
857.591614,320
857.709351,314
857.826965,333
857.944641,310
858.062317,319
858.179993,312
858.297668,323
858.415283,312
858.532959,321
858.650574,318
858.768188,316
858.885803,312
859.003479,310
859.121094,318
859.23877,308
859.356384,323
859.473999,311
859.591675,318
859.709229,318
859.826843,305
859.944458,324
860.062012,309
860.179626,303
860.297302,317
860.414856,321
860.532471,328
860.650024,322
860.767639,306
860.885193,325
861.002808,312
861.120361,320
861.237976,313
861.35553,318
861.473022,319
861.590698,336
861.708191,316
861.825745,327
861.943298,308
862.060852,316
862.178406,303
862.295959,314
862.413513,316
862.531006,324
862.64856,304
862.766113,307
862.883667,318
863.00116,317
863.118713,297
863.236206,315
863.353699,299
863.471252,317
863.588745,319
863.706177,317
863.82373,321
863.941162,319
864.058716,314
864.176208,317
864.29364,327
864.411194,316
864.528687,317
864.646118,322
864.763611,315
864.881042,311
864.998535,304
865.116028,315
865.233459,317
865.350891,335
865.468384,321
865.585754,304
865.703308,306
865.820679,309
865.938171,319
866.055542,317
866.173035,318
866.290466,310
866.407837,315
866.52533,323
866.6427,317
866.760071,322
866.877563,315
866.994934,326
867.112305,327
867.229736,313
867.347107,320
867.464539,324
867.58197,313
867.699341,323
867.81665,311
867.934082,311
868.051453,315
868.168823,331
868.286194,318
868.403564,325
868.520935,308
868.638306,329
868.755676,317
868.872986,318
868.990295,317
869.107727,319
869.225037,315
869.342346,314
869.459717,299
869.577026,309
869.694336,328
869.811707,308
869.929016,311
870.046326,323
870.163635,320
870.280945,325
870.398254,320
870.515564,320
870.632812,323
870.750183,322
870.867432,315
870.984741,324
871.102051,327
871.219299,318
871.336609,332
871.453918,309
871.571106,317
871.688416,321
871.805664,315
871.922852,325
872.040222,318
872.157471,309
872.274719,305
872.391968,326
872.509155,331
872.626465,330
872.743652,319
872.860962,331
872.978149,308
873.095337,315
873.212646,305
873.329834,317
873.44696,313
873.564209,334
873.681396,316
873.798645,332
873.915894,300
874.03302,332
874.150208,328
874.267456,308
874.384583,327
874.501831,345
874.618958,333
874.736145,324
874.853333,308
874.970459,315
875.087646,301
875.204834,327
875.32196,321
875.439148,328
875.556274,304
875.673401,339
875.790527,319
875.907715,315
876.024841,323
876.141968,319
876.259094,313
876.376282,310
876.493347,325
876.610474,309
876.7276,302
876.844727,315
876.961853,327
877.078918,322
877.195984,309
877.313171,322
877.430237,316
877.547302,327
877.664368,319
877.781433,321
877.898499,310
878.015625,325
878.13269,332
878.249695,309
878.366821,313
878.483887,315
878.600952,316
878.717957,308
878.834961,317
878.952087,310
879.069092,312
879.186157,321
879.303162,316
879.420227,313
879.537231,312
879.654236,322
879.77124,310
879.888306,318
880.005249,320
880.122314,309
880.239319,310
880.356323,311
880.473328,310
880.590271,338
880.707275,316
880.824341,321
880.941284,321
881.058228,310
881.175232,316
881.292236,318
881.40918,313
881.526123,324
881.643066,306
881.760071,315
881.877014,319
881.993958,327
882.11084,321
882.227783,326
882.344727,314
882.46167,317
882.578613,307
882.695618,315
882.812439,314
882.929382,324
883.046326,316
883.163208,325
883.280151,304
883.397034,318
883.513916,307
883.630798,320
883.747742,317
883.864563,324
883.981506,329
884.098389,335
884.21521,315
884.332153,322
884.448975,318
884.565796,311
884.682678,309
884.7995,316
884.916443,319
885.033264,335
885.150085,323
885.266968,324
885.383789,322
885.500671,326
885.617493,326
885.734314,322
885.851196,323
885.967896,316
886.084717,317
886.201599,315
886.318359,332
886.435181,316
886.552002,310
886.668762,322
886.785645,314
886.902344,337
887.019165,307
887.135925,312
887.252747,321
887.369446,320
887.486267,312
887.603027,330
887.719788,310
887.836548,326
887.953247,318
888.070068,326
888.186829,322
888.303528,320
888.420288,318
888.536987,319
888.653687,317
888.770447,327
888.887146,320
889.003967,325
889.120667,316
889.237305,333
889.354065,309
889.470703,308
889.587463,315
889.704163,321
889.820862,324
889.937561,319
890.054199,298
890.170837,338
890.287598,312
890.404236,324
890.520874,318
890.637634,322
890.754211,309
890.87085,318
890.987549,314
891.104187,306
891.220886,308
891.337463,318
891.454102,314
891.57074,318
891.687378,314
891.804077,320
891.920654,311
892.037231,327
892.15387,309
892.270447,326
892.387085,313
892.503723,321
892.6203,308
892.736877,326
892.853516,312
892.970032,320
893.08667,315
893.203186,305
893.319763,314
893.43634,320
893.552917,305
893.669556,321
893.786011,310
893.902588,311
894.019165,318
894.135681,312
894.252197,322
894.368835,316
894.485291,313
894.601868,324
894.718384,304
894.8349,317
894.951355,316
895.067932,303
895.184448,310
895.300964,309
895.417419,307
895.533936,318
895.650452,318
895.766907,327
895.883423,305
895.999878,327
896.116333,313
896.232849,320
896.349304,319
896.465759,310
896.582214,312
896.698669,308
896.815125,317
896.931641,309
897.048035,315
897.164551,319
897.280884,298
897.397339,325
897.513794,321
897.630249,332
897.746582,317
897.863098,318
897.979431,316
898.095886,324
898.212341,314
898.328674,328
898.445129,322
898.561462,329
898.677795,306
898.794312,319
898.910645,311
899.026978,313
899.143433,308
899.259766,322
899.37616,317
899.492493,323
899.608765,320
899.725159,330
899.841553,294
899.957947,324
900.07428,310
900.190552,312
900.306946,322
900.423157,335
900.53949,314
900.655884,330
900.772156,318
900.888489,324
901.004822,312
901.121033,312
901.237366,326
901.353699,328
901.46991,320
901.586304,322
901.702515,308
901.818787,317
901.93512,302
902.051331,330
902.167603,306
902.283875,323
902.400085,314
902.516418,332
902.632629,311
902.74884,319
902.865112,316
902.981384,320
903.097595,313
903.213867,325
903.330017,319
903.446289,303
903.5625,312
903.67865,320
903.794922,308
903.911072,325
904.027344,326
904.143494,319
904.259705,316
904.375916,318
904.492065,312
904.608215,323
904.724426,308
904.840576,304
904.956726,322
905.072876,324
905.189087,316
905.305176,328
905.421387,294
905.537537,330
905.653687,329
905.769775,318
905.885925,318
906.002014,317
906.118164,314
906.234314,319
906.350403,319
906.466492,330
906.582642,321
906.69873,324
906.814758,312
906.930908,325
907.046936,306
907.163086,309
907.279175,315
907.395264,322
907.511353,306
907.62738,324
907.743408,310
907.859497,319
907.975525,305
908.091553,307
908.207703,319
908.32373,317
908.439758,314
908.555786,314
908.671814,321
908.787842,333
908.90387,314
909.019775,317
909.135864,314
909.251892,326
909.367859,328
909.483826,319
909.599854,321
909.715881,324
909.831848,301
909.947815,324
910.063782,316
910.179749,327
910.295776,314
910.411743,320
910.527649,305
910.643616,304
910.759583,317
910.875488,326
910.991455,311
911.107361,303
911.223267,313
911.339294,332
911.4552,317
911.571106,317
911.687073,314
911.802979,321
911.918823,310
912.034729,325
912.150635,302
912.266602,329
912.382446,311
912.498352,336
912.614197,317
912.730103,319
912.846008,311
