792.44574,322
792.56488,346
792.68396,399
792.80304,395
792.92218,344
793.041199,329
793.160339,323
793.279419,329
793.398499,333
793.517578,317
793.636658,323
793.755737,351
793.874817,345
793.993896,331
794.112976,309
794.232056,327
794.351074,342
794.470215,344
794.589233,338
794.708313,331
794.827393,328
794.946411,339
795.065552,345
795.18457,347
795.303589,325
795.422668,329
795.541687,339
795.660767,337
795.779846,316
795.898865,343
796.017883,339
796.136963,327
796.255981,342
796.375061,319
796.49408,332
796.613037,335
796.732117,337
796.851135,335
796.970154,349
797.089233,331
797.208191,324
797.327271,335
797.446228,324
797.565186,342
797.684265,339
797.803223,327
797.922241,339
798.04126,326
798.160278,336
798.279297,324
798.398315,334
798.517273,330
798.636292,329
798.75531,330
798.874268,340
798.993286,325
799.112244,338
799.231323,316
799.350281,328
799.469238,344
799.588257,340
799.707153,337
799.826111,325
799.945129,340
800.064087,330
800.183044,321
800.302063,330
800.421021,335
800.539978,326
800.658936,330
800.777893,334
800.896912,328
801.015747,324
801.134705,337
801.253723,313
801.37262,327
801.491638,330
801.610535,338
801.729492,331
801.84845,336
801.967407,314
802.086243,341
802.205261,331
802.324158,326
802.443115,322
802.562073,327
802.680969,334
802.799927,327
802.918762,322
803.037659,334
803.156677,336
803.275574,331
803.39447,333
803.513428,339
803.632263,311
803.751221,324
803.870117,324
803.989014,328
804.107971,341
804.226746,326
804.345642,340
804.4646,333
804.583496,322
804.702393,345
804.821228,336
804.940125,347
805.059021,331
805.177917,341
805.296814,337
805.415649,326
805.534546,326
805.653442,336
805.772278,324
805.891113,328
806.01001,330
806.128906,324
806.247742,337
806.366577,322
806.485413,331
806.604309,331
806.723145,320
806.84198,324
806.960876,331
807.079712,324
807.198486,333
807.317383,341
807.436218,352
807.554993,322
807.673889,334
807.792725,336
807.91156,353
808.030396,336
808.14917,336
808.268005,331
808.386841,337
808.505676,331
808.624451,333
808.743286,338
808.862122,334
808.980896,344
809.099731,333
809.218506,335
809.337341,332
809.456116,327
809.57489,343
809.693726,326
809.8125,349
809.931274,331
810.050049,333
810.168884,335
810.287659,342
810.406372,349
810.525269,334
810.643982,342
810.762756,333
810.881531,338
811.000305,329
811.11908,311
811.237854,332
811.356567,338
811.475403,343
811.594116,343
811.71283,336
811.831604,326
811.950378,330
812.069153,343
812.187927,332
812.30658,333
812.425415,344
812.544128,326
812.662781,336
812.781616,355
812.900269,338
813.019043,341
813.137756,346
813.256531,341
813.375244,337
813.493896,330
813.612671,315
813.731384,332
813.850037,323
813.96875,338
814.087524,327
814.206238,327
814.324951,337
814.443604,342
814.562256,334
814.68103,321
814.799683,326
814.918335,347
815.037109,343
815.155762,329
815.274475,335
815.393188,338
815.511841,350
815.630554,330
815.749146,333
815.867859,341
815.986572,331
816.105164,326
816.223877,330
816.342529,328
816.461182,345
816.579895,331
816.698486,328
816.817139,320
816.935791,337
817.054504,324
817.173096,326
817.291748,328
817.4104,326
817.529053,334
817.647644,329
817.766235,328
817.884949,331
818.00354,331
818.122192,330
818.240845,326
818.359436,334
818.478088,321
818.59668,334
818.715271,323
818.833923,328
818.952515,335
819.071106,319
819.189758,327
819.30835,317
819.426941,333
819.545532,314
819.664124,329
819.782715,319
819.901306,315
820.019897,331
820.138489,326
820.25708,329
820.375671,303
820.494202,320
820.612732,321
820.731384,325
820.849915,331
820.968506,313
821.087097,328
821.205627,330
821.324158,330
821.442749,314
821.561279,321
821.679871,318
821.798401,332
821.916931,327
822.035461,323
822.154053,324
822.272583,322
822.391174,331
822.509583,331
822.628174,326
822.746704,334
822.865234,329
822.983765,334
823.102295,314
823.220825,319
823.339294,328
823.457825,321
823.576355,311
823.694824,313
823.813354,319
823.931885,330
824.050354,316
824.168884,320
824.287354,317
824.405823,331
824.524353,323
824.642822,323
824.761353,326
824.879822,327
824.998291,327
825.116699,336
825.235291,319
825.353699,334
825.472168,311
825.590637,325
825.709106,318
825.827576,333
825.946045,314
826.064453,319
826.182983,312
826.301392,319
826.4198,329
826.53833,336
826.656738,320
826.775208,318
826.893677,319
827.012024,333
827.130493,313
827.248962,321
827.36731,320
827.485779,314
827.604248,322
827.722595,315
827.841064,316
827.959412,322
828.077942,315
828.196289,321
828.314636,320
828.433105,309
828.551514,329
828.669861,313
828.78833,324
828.906677,330
829.025085,319
829.143433,326
829.261841,306
829.38031,326
829.498657,322
829.617004,312
829.735413,304
829.85376,315
829.972107,324
830.090515,326
830.208862,317
830.327209,320
830.445557,314
830.563904,318
830.682312,326
830.800659,311
830.919006,314
831.037354,313
831.155701,324
831.274048,319
831.392395,308
831.51062,314
831.629028,306
831.747314,308
831.865662,329
831.984009,334
832.102356,312
832.220642,326
832.338928,327
832.457275,315
832.575623,314
832.693909,320
832.812134,326
832.930481,314
833.048828,315
833.167114,335
833.2854,303
833.403687,330
833.521973,315
833.640259,308
833.758545,319
833.876831,322
833.995056,305
834.113281,324
834.231628,318
834.349915,320
834.468201,319
834.586426,319
834.704651,331
834.822998,323
834.941162,313
835.059448,318
835.177673,310
835.295959,310
835.414246,303
835.53241,315
835.650635,324
835.768921,312
835.887146,311
836.005371,326
836.123596,307
836.241821,308
836.360046,311
836.478271,311
836.596497,317
836.714722,319
836.832886,310
836.95105,325
837.069336,323
837.1875,323
837.305725,314
837.423889,320
837.542053,334
837.660339,317
837.778503,315
837.896667,313
838.014832,329
838.132996,320
838.25116,320
838.369385,334
838.487488,313
838.605713,312
838.723877,316
838.84198,321
838.960205,326
839.078308,321
839.196472,326
839.314636,308
839.4328,329
839.550964,327
839.669067,317
839.787231,318
839.905396,318
840.023499,328
840.141602,316
840.259766,313
840.377869,317
840.495972,319
840.614136,317
840.732239,322
840.850342,299
840.968445,321
841.086548,317
841.204651,322
841.322754,317
841.440918,325
841.55896,327
841.677002,311
841.795166,329
841.913208,317
842.031311,308
842.149353,329
842.267456,301
842.385498,333
842.503601,317
842.621643,316
842.739746,324
842.857788,312
842.97583,313
843.093933,310
843.211975,315
843.330017,321
843.44812,296
843.566101,324
843.684204,321
843.802246,325
843.920227,320
844.038269,318
844.156311,323
844.274292,326
844.392395,326
844.510376,318
844.628357,324
844.74646,306
844.864441,318
844.982422,304
845.100403,312
845.218384,323
845.336426,314
845.454468,333
845.572449,308
845.69043,319
845.808411,316
845.926453,321
846.044373,326
846.162354,305
846.280396,322
846.398315,301
846.516296,326
846.634216,323
846.752197,321
846.870178,311
846.988098,314
847.106079,314
847.22406,308
847.34198,335
847.4599,323
847.577881,326
847.695801,314
847.813782,324
847.931641,319
848.049561,315
848.167603,303
848.285461,328
848.403381,307
848.521362,309
848.639221,317
848.75708,319
848.875,311
848.99292,321
849.110901,311
849.22876,313
849.34668,310
849.464539,329
849.582458,313
849.700317,314
849.818176,310
849.936096,307
850.053955,319
850.171875,325
850.289673,306
850.407593,326
850.525452,305
850.643311,323
850.761169,329
850.878967,312
850.996887,319
851.114746,321
851.232544,317
851.350403,308
851.468262,316
851.58606,325
851.703979,310
851.821777,324
851.939636,320
852.057434,324
852.175232,321
852.293091,318
852.410889,315
852.528687,310
852.646545,324
852.764343,309
852.88208,314
852.999939,318
853.117676,311
853.235535,321
853.353271,331
853.471069,319
853.588928,311
853.706604,316
853.824402,320
853.9422,320
854.059998,315
854.177734,318
854.295532,311
854.413269,315
854.531006,301
854.648804,324
854.766541,312
854.884277,330
855.002014,312
855.119751,316
855.237549,321
855.355225,317
855.473022,325
855.590698,315
855.708435,330
855.826172,309
855.943848,318
856.061646,318
856.179321,318
856.296997,311
856.414795,317
856.53241,319
856.650085,309
856.767822,322
856.885559,307
857.003174,316
857.120911,326
857.238586,321
857.356201,311
857.473938,316
857.591614,313
857.709351,317
857.826965,327
857.944641,328
858.062317,315
858.179993,319
858.297668,321
858.415283,315
858.532959,315
858.650574,318
858.768188,312
858.885803,319
859.003479,314
859.121094,313
859.23877,300
859.356384,310
859.473999,313
859.591675,328
859.709229,327
859.826843,321
859.944458,306
860.062012,338
860.179626,316
860.297302,331
860.414856,325
860.532471,330
860.650024,316
860.767639,328
860.885193,330
861.002808,319
861.120361,319
861.237976,311
861.35553,320
861.473022,318
861.590698,320
861.708191,324
861.825745,312
861.943298,312
862.060852,307
862.178406,318
862.295959,324
862.413513,327
862.531006,318
862.64856,306
862.766113,323
862.883667,326
863.00116,310
863.118713,311
863.236206,315
863.353699,314
863.471252,312
863.588745,329
863.706177,332
863.82373,317
863.941162,322
864.058716,310
864.176208,304
864.29364,313
864.411194,321
864.528687,323
864.646118,318
864.763611,316
864.881042,310
864.998535,325
865.116028,319
865.233459,328
865.350891,316
865.468384,307
865.585754,329
865.703308,318
865.820679,322
865.938171,314
866.055542,317
866.173035,313
866.290466,320
866.407837,325
866.52533,325
866.6427,335
866.760071,308
866.877563,324
866.994934,323
867.112305,315
867.229736,319
867.347107,308
867.464539,317
867.58197,315
867.699341,325
867.81665,315
867.934082,318
868.051453,319
868.168823,311
868.286194,320
868.403564,304
868.520935,320
868.638306,326
868.755676,319
868.872986,313
868.990295,323
869.107727,300
869.225037,314
869.342346,313
869.459717,320
869.577026,321
869.694336,312
869.811707,321
869.929016,317
870.046326,313
870.163635,314
870.280945,319
870.398254,316
870.515564,331
870.632812,311
870.750183,307
870.867432,315
870.984741,312
871.102051,306
871.219299,314
871.336609,315
871.453918,305
871.571106,322
871.688416,310
871.805664,331
871.922852,319
872.040222,308
872.157471,322
872.274719,326
872.391968,319
872.509155,328
872.626465,312
872.743652,316
872.860962,321
872.978149,308
873.095337,320
873.212646,303
873.329834,322
873.44696,306
873.564209,316
873.681396,322
873.798645,326
873.915894,318
874.03302,324
874.150208,307
874.267456,322
874.384583,319
874.501831,311
874.618958,316
874.736145,316
874.853333,325
874.970459,312
875.087646,323
875.204834,318
875.32196,315
875.439148,323
875.556274,320
875.673401,324
875.790527,304
875.907715,312
876.024841,331
876.141968,324
876.259094,319
876.376282,312
876.493347,317
876.610474,318
876.7276,319
876.844727,318
876.961853,307
877.078918,324
877.195984,331
877.313171,306
877.430237,327
877.547302,307
877.664368,321
877.781433,317
877.898499,327
878.015625,314
878.13269,313
878.249695,322
878.366821,316
878.483887,313
878.600952,316
878.717957,318
878.834961,317
878.952087,316
879.069092,311
879.186157,313
879.303162,310
879.420227,321
879.537231,308
879.654236,319
879.77124,328
879.888306,315
880.005249,322
880.122314,333
880.239319,304
880.356323,315
880.473328,308
880.590271,315
880.707275,314
880.824341,299
880.941284,316
881.058228,312
881.175232,319
881.292236,327
881.40918,307
881.526123,318
881.643066,323
881.760071,326
881.877014,308
881.993958,302
882.11084,330
882.227783,312
882.344727,327
882.46167,315
882.578613,306
882.695618,312
882.812439,324
882.929382,323
883.046326,318
883.163208,304
883.280151,319
883.397034,304
883.513916,317
883.630798,307
883.747742,316
883.864563,319
883.981506,313
884.098389,315
884.21521,322
884.332153,300
884.448975,318
884.565796,309
884.682678,322
884.7995,309
884.916443,313
885.033264,315
885.150085,313
885.266968,328
885.383789,320
885.500671,314
885.617493,311
885.734314,313
885.851196,325
885.967896,315
886.084717,320
886.201599,335
886.318359,323
886.435181,335
886.552002,324
886.668762,318
886.785645,315
886.902344,310
887.019165,321
887.135925,321
887.252747,326
887.369446,317
887.486267,317
887.603027,324
887.719788,325
887.836548,314
887.953247,319
888.070068,316
888.186829,315
888.303528,312
888.420288,324
888.536987,308
888.653687,323
888.770447,320
888.887146,323
889.003967,309
889.120667,335
889.237305,305
889.354065,302
889.470703,321
889.587463,310
889.704163,312
889.820862,290
889.937561,306
890.054199,326
890.170837,311
890.287598,330
890.404236,326
890.520874,320
890.637634,321
890.754211,304
890.87085,321
890.987549,316
891.104187,327
891.220886,327
891.337463,323
891.454102,314
891.57074,324
891.687378,311
891.804077,319
891.920654,319
892.037231,322
892.15387,313
892.270447,327
892.387085,320
892.503723,312
892.6203,315
892.736877,311
892.853516,324
892.970032,319
893.08667,311
893.203186,316
893.319763,317
893.43634,312
893.552917,316
893.669556,315
893.786011,321
893.902588,321
894.019165,312
894.135681,325
894.252197,319
894.368835,333
894.485291,307
894.601868,312
894.718384,316
894.8349,305
894.951355,324
895.067932,300
895.184448,336
895.300964,327
895.417419,314
895.533936,321
895.650452,322
895.766907,298
895.883423,337
895.999878,311
896.116333,323
896.232849,308
896.349304,322
896.465759,324
896.582214,300
896.698669,310
896.815125,317
896.931641,315
897.048035,321
897.164551,314
897.280884,324
897.397339,326
897.513794,315
897.630249,332
897.746582,305
897.863098,299
897.979431,304
898.095886,326
898.212341,325
898.328674,309
898.445129,315
898.561462,322
898.677795,329
898.794312,313
898.910645,313
899.026978,322
899.143433,308
899.259766,322
899.37616,318
899.492493,326
899.608765,308
899.725159,309
899.841553,314
899.957947,328
900.07428,322
900.190552,327
900.306946,327
900.423157,317
900.53949,314
900.655884,326
900.772156,323
900.888489,314
901.004822,341
901.121033,316
901.237366,306
901.353699,305
901.46991,314
901.586304,314
901.702515,303
901.818787,314
901.93512,317
902.051331,313
902.167603,317
902.283875,328
902.400085,317
902.516418,307
902.632629,328
902.74884,325
902.865112,318
902.981384,323
903.097595,333
903.213867,321
903.330017,328
903.446289,318
903.5625,324
903.67865,306
903.794922,294
903.911072,323
904.027344,315
904.143494,309
904.259705,325
904.375916,324
904.492065,325
904.608215,322
904.724426,306
904.840576,313
904.956726,321
905.072876,326
905.189087,316
905.305176,319
905.421387,315
905.537537,316
905.653687,309
905.769775,313
905.885925,313
906.002014,324
906.118164,307
906.234314,327
906.350403,323
906.466492,303
906.582642,325
906.69873,314
906.814758,328
906.930908,323
907.046936,305
907.163086,320
907.279175,321
907.395264,316
907.511353,317
907.62738,320
907.743408,329
907.859497,312
907.975525,315
908.091553,319
908.207703,305
908.32373,311
908.439758,320
908.555786,304
908.671814,317
908.787842,317
908.90387,323
909.019775,316
909.135864,311
909.251892,328
909.367859,317
909.483826,314
909.599854,297
909.715881,313
909.831848,320
909.947815,311
910.063782,330
910.179749,315
910.295776,327
910.411743,318
910.527649,326
910.643616,317
910.759583,315
910.875488,315
910.991455,317
911.107361,309
911.223267,318
911.339294,308
911.4552,332
911.571106,315
911.687073,316
911.802979,326
911.918823,320
912.034729,324
912.150635,332
912.266602,310
912.382446,330
912.498352,294
912.614197,329
912.730103,323
912.846008,319
792.44574,307
792.56488,352
792.68396,404
792.80304,385
792.92218,331
793.041199,321
793.160339,321
793.279419,345
793.398499,339
793.517578,329
793.636658,321
793.755737,323
793.874817,348
793.993896,340
794.112976,343
794.232056,323
794.351074,336
794.470215,324
794.589233,335
794.708313,321
794.827393,326
794.946411,318
795.065552,348
795.18457,334
795.303589,353
795.422668,337
795.541687,335
795.660767,334
795.779846,347
795.898865,332
796.017883,342
796.136963,330
796.255981,335
796.375061,340
796.49408,335
796.613037,332
796.732117,326
796.851135,338
796.970154,331
797.089233,332
797.208191,332
797.327271,337
797.446228,332
797.565186,330
797.684265,329
797.803223,337
797.922241,328
798.04126,336
798.160278,326
798.279297,328
798.398315,327
798.517273,326
798.636292,347
798.75531,333
798.874268,331
798.993286,333
799.112244,319
799.231323,329
799.350281,326
799.469238,326
799.588257,334
799.707153,332
799.826111,339
799.945129,323
800.064087,329
800.183044,332
800.302063,332
800.421021,341
800.539978,341
800.658936,328
800.777893,327
800.896912,333
801.015747,323
801.134705,322
801.253723,328
801.37262,316
801.491638,341
801.610535,320
801.729492,340
801.84845,327
801.967407,337
802.086243,346
802.205261,328
802.324158,332
802.443115,321
802.562073,327
802.680969,339
802.799927,329
802.918762,339
803.037659,330
803.156677,339
803.275574,324
803.39447,332
803.513428,343
803.632263,335
803.751221,342
803.870117,328
803.989014,319
804.107971,336
804.226746,324
804.345642,324
804.4646,331
804.583496,327
804.702393,333
804.821228,335
804.940125,337
805.059021,325
805.177917,324
805.296814,327
805.415649,336
805.534546,335
805.653442,323
805.772278,343
805.891113,326
806.01001,336
806.128906,327
806.247742,319
806.366577,318
806.485413,330
806.604309,323
806.723145,335
806.84198,336
806.960876,339
807.079712,335
807.198486,334
807.317383,320
807.436218,337
807.554993,337
807.673889,326
807.792725,321
807.91156,344
808.030396,333
808.14917,343
808.268005,325
808.386841,325
808.505676,324
808.624451,318
808.743286,318
808.862122,327
808.980896,326
809.099731,330
809.218506,325
809.337341,335
809.456116,347
809.57489,308
809.693726,329
809.8125,319
809.931274,330
810.050049,338
810.168884,331
810.287659,340
810.406372,336
810.525269,326
810.643982,334
810.762756,338
810.881531,336
811.000305,329
811.11908,337
811.237854,334
811.356567,334
811.475403,338
811.594116,333
811.71283,343
811.831604,331
811.950378,328
812.069153,337
812.187927,334
812.30658,328
812.425415,337
812.544128,341
812.662781,336
812.781616,343
812.900269,334
813.019043,334
813.137756,325
813.256531,317
813.375244,331
813.493896,324
813.612671,355
813.731384,339
813.850037,351
813.96875,352
814.087524,337
814.206238,309
814.324951,332
814.443604,344
814.562256,331
814.68103,318
814.799683,333
814.918335,334
815.037109,342
815.155762,340
815.274475,330
815.393188,321
815.511841,321
815.630554,343
815.749146,328
815.867859,329
815.986572,347
816.105164,324
816.223877,345
816.342529,322
816.461182,327
816.579895,331
816.698486,330
816.817139,337
816.935791,334
817.054504,331
817.173096,333
817.291748,328
817.4104,338
817.529053,336
817.647644,338
817.766235,324
817.884949,324
818.00354,344
818.122192,318
818.240845,317
818.359436,323
818.478088,326
818.59668,337
818.715271,317
818.833923,317
818.952515,312
819.071106,321
819.189758,308
819.30835,341
819.426941,316
819.545532,333
819.664124,308
819.782715,336
819.901306,317
820.019897,330
820.138489,304
820.25708,321
820.375671,318
820.494202,329
820.612732,321
820.731384,328
820.849915,328
820.968506,318
821.087097,328
821.205627,314
821.324158,323
821.442749,328
821.561279,314
821.679871,334
821.798401,313
821.916931,316
822.035461,315
822.154053,325
822.272583,326
822.391174,331
822.509583,318
822.628174,313
822.746704,305
822.865234,329
822.983765,299
823.102295,320
823.220825,323
823.339294,324
823.457825,327
823.576355,318
823.694824,323
823.813354,322
823.931885,312
824.050354,323
824.168884,306
824.287354,340
824.405823,306
824.524353,325
824.642822,325
824.761353,326
824.879822,312
824.998291,312
825.116699,320
825.235291,331
825.353699,317
825.472168,311
825.590637,333
825.709106,318
825.827576,312
825.946045,314
826.064453,317
826.182983,314
826.301392,299
826.4198,327
826.53833,320
826.656738,333
826.775208,306
826.893677,330
827.012024,307
827.130493,309
827.248962,318
827.36731,317
827.485779,314
827.604248,321
827.722595,313
827.841064,320
827.959412,315
828.077942,332
828.196289,313
828.314636,330
828.433105,318
828.551514,329
828.669861,321
828.78833,309
828.906677,304
829.025085,326
829.143433,318
829.261841,323
829.38031,306
829.498657,316
829.617004,315
829.735413,310
829.85376,316
829.972107,335
830.090515,308
830.208862,315
830.327209,315
830.445557,330
830.563904,301
830.682312,327
830.800659,315
830.919006,314
831.037354,316
831.155701,321
831.274048,318
831.392395,326
831.51062,319
831.629028,305
831.747314,320
831.865662,322
831.984009,311
832.102356,315
832.220642,311
832.338928,335
832.457275,319
832.575623,321
832.693909,306
832.812134,326
832.930481,310
833.048828,321
833.167114,316
833.2854,316
833.403687,320
833.521973,311
833.640259,312
833.758545,318
833.876831,318
833.995056,334
834.113281,317
834.231628,311
834.349915,308
834.468201,310
834.586426,321
834.704651,320
834.822998,313
834.941162,328
835.059448,315
835.177673,328
835.295959,317
835.414246,311
835.53241,321
835.650635,331
835.768921,324
835.887146,313
836.005371,324
836.123596,333
836.241821,320
836.360046,323
836.478271,310
836.596497,327
836.714722,312
836.832886,322
836.95105,323
837.069336,312
837.1875,316
837.305725,321
837.423889,308
837.542053,322
837.660339,313
837.778503,304
837.896667,319
838.014832,310
838.132996,316
838.25116,336
838.369385,318
838.487488,342
838.605713,312
838.723877,315
838.84198,327
838.960205,328
839.078308,314
839.196472,317
839.314636,312
839.4328,312
839.550964,323
839.669067,322
839.787231,314
839.905396,320
840.023499,315
840.141602,323
840.259766,312
840.377869,315
840.495972,313
840.614136,322
840.732239,312
840.850342,315
840.968445,320
841.086548,330
841.204651,315
841.322754,331
841.440918,315
841.55896,317
841.677002,302
841.795166,310
841.913208,314
842.031311,310
842.149353,309
842.267456,315
842.385498,330
842.503601,318
842.621643,315
842.739746,322
842.857788,329
842.97583,312
843.093933,309
843.211975,314
843.330017,306
843.44812,323
843.566101,311
843.684204,314
843.802246,304
843.920227,311
844.038269,322
844.156311,334
844.274292,303
844.392395,326
844.510376,311
844.628357,318
844.74646,315
844.864441,328
844.982422,320
845.100403,304
845.218384,318
845.336426,313
845.454468,327
845.572449,323
845.69043,311
845.808411,316
845.926453,310
846.044373,329
846.162354,295
846.280396,310
846.398315,315
846.516296,313
846.634216,303
846.752197,323
846.870178,306
846.988098,308
847.106079,317
847.22406,314
847.34198,322
847.4599,312
847.577881,315
847.695801,324
847.813782,314
847.931641,317
848.049561,311
848.167603,320
848.285461,322
848.403381,313
848.521362,311
848.639221,333
848.75708,300
848.875,314
848.99292,318
849.110901,310
849.22876,317
849.34668,327
849.464539,317
849.582458,322
849.700317,317
849.818176,298
849.936096,317
850.053955,318
850.171875,315
850.289673,322
850.407593,316
850.525452,328
850.643311,317
850.761169,321
850.878967,313
850.996887,315
851.114746,307
851.232544,328
851.350403,305
851.468262,314
851.58606,317
851.703979,325
851.821777,316
851.939636,323
852.057434,316
852.175232,325
852.293091,306
852.410889,316
852.528687,312
852.646545,326
852.764343,311
852.88208,315
852.999939,330
853.117676,307
853.235535,318
853.353271,328
853.471069,323
853.588928,321
853.706604,326
853.824402,326
853.9422,314
854.059998,314
854.177734,317
854.295532,319
854.413269,307
854.531006,320
854.648804,319
854.766541,329
854.884277,322
855.002014,321
855.119751,317
855.237549,325
855.355225,307
855.473022,330
855.590698,314
855.708435,323
855.826172,319
855.943848,319
856.061646,306
856.179321,327
856.296997,322
856.414795,333
856.53241,317
856.650085,313
856.767822,325
856.885559,304
857.003174,309
857.120911,317
857.238586,314
857.356201,325
857.473938,309
857.591614,327
857.709351,313
857.826965,317
857.944641,319
858.062317,324
858.179993,330
858.297668,329
858.415283,309
858.532959,314
858.650574,316
858.768188,306
858.885803,319
859.003479,317
859.121094,321
859.23877,317
859.356384,334
859.473999,314
859.591675,309
859.709229,324
859.826843,316
859.944458,320
860.062012,310
860.179626,319
860.297302,297
860.414856,321
860.532471,309
860.650024,309
860.767639,314
860.885193,328
861.002808,304
861.120361,321
861.237976,313
861.35553,320
861.473022,320
861.590698,304
861.708191,312
861.825745,312
861.943298,310
862.060852,321
862.178406,305
862.295959,322
862.413513,311
862.531006,319
862.64856,303
862.766113,307
862.883667,314
863.00116,327
863.118713,316
863.236206,315
863.353699,312
863.471252,308
863.588745,305
863.706177,324
863.82373,319
863.941162,317
864.058716,311
864.176208,311
864.29364,314
864.411194,331
864.528687,334
864.646118,328
864.763611,317
864.881042,309
864.998535,321
865.116028,325
865.233459,310
865.350891,324
865.468384,311
865.585754,318
865.703308,307
865.820679,322
865.938171,314
866.055542,305
866.173035,305
866.290466,322
866.407837,307
866.52533,308
866.6427,319
866.760071,311
866.877563,308
866.994934,333
867.112305,317
867.229736,308
867.347107,320
867.464539,312
867.58197,307
867.699341,311
867.81665,304
867.934082,331
868.051453,302
868.168823,318
868.286194,315
868.403564,317
868.520935,310
868.638306,313
868.755676,328
868.872986,317
868.990295,317
869.107727,327
869.225037,320
869.342346,319
869.459717,320
869.577026,310
869.694336,320
869.811707,337
869.929016,313
870.046326,321
870.163635,308
870.280945,326
870.398254,322
870.515564,319
870.632812,308
870.750183,325
870.867432,327
870.984741,318
871.102051,325
871.219299,312
871.336609,324
871.453918,328
871.571106,315
871.688416,316
871.805664,308
871.922852,326
872.040222,321
872.157471,307
872.274719,328
872.391968,308
872.509155,321
872.626465,322
872.743652,314
872.860962,328
872.978149,324
873.095337,325
873.212646,313
873.329834,309
873.44696,311
873.564209,325
873.681396,315
873.798645,312
873.915894,316
874.03302,337
874.150208,317
874.267456,317
874.384583,308
874.501831,326
874.618958,321
874.736145,330
874.853333,314
874.970459,318
875.087646,312
875.204834,322
875.32196,316
875.439148,336
875.556274,307
875.673401,303
875.790527,320
875.907715,314
876.024841,316
876.141968,323
876.259094,308
876.376282,327
876.493347,319
876.610474,314
876.7276,324
876.844727,311
876.961853,317
877.078918,312
877.195984,313
877.313171,319
877.430237,317
877.547302,311
877.664368,306
877.781433,314
877.898499,309
878.015625,328
878.13269,310
878.249695,320
878.366821,310
878.483887,319
878.600952,302
878.717957,319
878.834961,333
878.952087,308
879.069092,317
879.186157,326
879.303162,313
879.420227,310
879.537231,306
879.654236,318
879.77124,313
879.888306,322
880.005249,306
880.122314,318
880.239319,316
880.356323,328
880.473328,322
880.590271,306
880.707275,308
880.824341,317
880.941284,302
881.058228,325
881.175232,302
881.292236,301
881.40918,299
881.526123,330
881.643066,305
881.760071,321
881.877014,305
881.993958,323
882.11084,318
882.227783,309
882.344727,314
882.46167,318
882.578613,318
882.695618,305
882.812439,319
882.929382,305
883.046326,332
883.163208,325
883.280151,313
883.397034,321
883.513916,304
883.630798,320
883.747742,317
883.864563,317
883.981506,321
884.098389,317
884.21521,313
884.332153,333
884.448975,306
884.565796,321
884.682678,296
884.7995,314
884.916443,316
885.033264,327
885.150085,324
885.266968,316
885.383789,318
885.500671,318
885.617493,327
885.734314,314
885.851196,314
885.967896,322
886.084717,297
886.201599,329
886.318359,321
886.435181,326
886.552002,320
886.668762,329
886.785645,309
886.902344,311
887.019165,308
887.135925,335
887.252747,318
887.369446,310
887.486267,317
887.603027,314
887.719788,314
887.836548,315
887.953247,316
888.070068,335
888.186829,312
888.303528,307
888.420288,325
888.536987,325
888.653687,314
888.770447,307
888.887146,324
889.003967,323
889.120667,317
889.237305,309
889.354065,315
889.470703,313
889.587463,320
889.704163,330
889.820862,328
889.937561,332
890.054199,295
890.170837,320
890.287598,300
890.404236,317
890.520874,314
890.637634,320
890.754211,321
890.87085,311
890.987549,317
891.104187,322
891.220886,322
891.337463,323
891.454102,309
891.57074,317
891.687378,322
891.804077,309
891.920654,323
892.037231,320
892.15387,299
892.270447,329
892.387085,313
892.503723,314
892.6203,324
892.736877,328
892.853516,314
892.970032,318
893.08667,324
893.203186,317
893.319763,313
893.43634,313
893.552917,302
893.669556,314
893.786011,313
893.902588,322
894.019165,308
894.135681,313
894.252197,312
894.368835,323
894.485291,308
894.601868,321
894.718384,311
894.8349,330
894.951355,300
895.067932,324
895.184448,319
895.300964,317
895.417419,320
895.533936,334
895.650452,312
895.766907,327
895.883423,312
895.999878,324
896.116333,319
896.232849,326
896.349304,322
896.465759,324
896.582214,308
896.698669,315
896.815125,327
896.931641,321
897.048035,316
897.164551,309
897.280884,304
897.397339,309
897.513794,314
897.630249,306
897.746582,316
897.863098,320
897.979431,317
898.095886,309
898.212341,318
898.328674,315
898.445129,307
898.561462,305
898.677795,313
898.794312,308
898.910645,314
899.026978,318
899.143433,320
899.259766,320
899.37616,303
899.492493,324
899.608765,320
899.725159,325
899.841553,308
899.957947,313
900.07428,315
900.190552,316
900.306946,311
900.423157,332
900.53949,314
900.655884,327
900.772156,317
900.888489,328
901.004822,314
901.121033,320
901.237366,322
901.353699,329
901.46991,326
901.586304,323
901.702515,309
901.818787,331
901.93512,315
902.051331,324
902.167603,315
902.283875,324
902.400085,313
902.516418,332
902.632629,313
902.74884,325
902.865112,312
902.981384,323
903.097595,314
903.213867,312
903.330017,306
903.446289,312
903.5625,323
903.67865,315
903.794922,324
903.911072,318
904.027344,309
904.143494,305
904.259705,302
904.375916,330
904.492065,311
904.608215,319
904.724426,318
904.840576,316
904.956726,318
905.072876,315
905.189087,320
905.305176,314
905.421387,316
905.537537,327
905.653687,312
905.769775,309
905.885925,312
906.002014,316
906.118164,331
906.234314,321
906.350403,312
906.466492,336
906.582642,307
906.69873,321
906.814758,313
906.930908,314
907.046936,310
907.163086,317
907.279175,300
907.395264,323
907.511353,298
907.62738,323
907.743408,326
907.859497,336
907.975525,307
908.091553,321
908.207703,298
908.32373,317
908.439758,321
908.555786,315
908.671814,306
908.787842,319
908.90387,312
909.019775,339
909.135864,322
909.251892,316
909.367859,326
909.483826,327
909.599854,307
909.715881,319
909.831848,309
909.947815,323
910.063782,312
910.179749,329
910.295776,305
910.411743,324
910.527649,315
910.643616,314
910.759583,319
910.875488,322
910.991455,309
911.107361,320
911.223267,313
911.339294,307
911.4552,304
911.571106,311
911.687073,313
911.802979,325
911.918823,319
912.034729,319
912.150635,297
912.266602,317
912.382446,311
912.498352,303
912.614197,308
912.730103,319
912.846008,309
792.44574,306
792.56488,356
792.68396,387
792.80304,391
792.92218,344
793.041199,308
793.160339,324
793.279419,338
793.398499,326
793.517578,314
793.636658,335
793.755737,340
793.874817,361
793.993896,336
794.112976,356
794.232056,320
794.351074,321
794.470215,332
794.589233,334
794.708313,323
794.827393,323
794.946411,323
795.065552,349
795.18457,338
795.303589,329
795.422668,319
795.541687,335
795.660767,329
795.779846,326
795.898865,331
796.017883,332
796.136963,335
796.255981,329
796.375061,323
796.49408,341
796.613037,322
796.732117,344
796.851135,331
796.970154,327
797.089233,333
797.208191,328
797.327271,332
797.446228,326
797.565186,322
797.684265,322
797.803223,327
797.922241,340
798.04126,337
798.160278,332
798.279297,333
798.398315,324
798.517273,323
798.636292,323
798.75531,330
798.874268,339
798.993286,325
799.112244,345
799.231323,314
799.350281,340
799.469238,334
799.588257,319
799.707153,317
799.826111,322
799.945129,330
800.064087,334
800.183044,334
800.302063,337
800.421021,325
800.539978,324
800.658936,321
800.777893,326
800.896912,318
801.015747,334
801.134705,311
801.253723,333
801.37262,338
801.491638,331
801.610535,340
801.729492,321
801.84845,339
801.967407,328
802.086243,343
802.205261,329
802.324158,306
802.443115,330
802.562073,331
802.680969,351
802.799927,328
802.918762,318
803.037659,331
803.156677,328
803.275574,330
803.39447,339
803.513428,328
803.632263,337
803.751221,328
803.870117,321
803.989014,325
804.107971,320
804.226746,325
804.345642,327
804.4646,333
804.583496,319
804.702393,343
804.821228,327
804.940125,330
805.059021,326
805.177917,318
805.296814,330
805.415649,335
805.534546,337
805.653442,343
805.772278,340
805.891113,315
806.01001,345
806.128906,317
806.247742,322
806.366577,320
806.485413,343
806.604309,325
806.723145,328
806.84198,334
806.960876,332
807.079712,333
807.198486,337
807.317383,329
807.436218,338
807.554993,327
807.673889,325
807.792725,325
807.91156,329
808.030396,333
808.14917,330
808.268005,334
808.386841,336
808.505676,333
808.624451,341
808.743286,327
808.862122,341
808.980896,331
809.099731,333
809.218506,331
809.337341,334
809.456116,334
809.57489,330
809.693726,331
809.8125,333
809.931274,343
810.050049,346
810.168884,336
810.287659,330
810.406372,334
810.525269,347
810.643982,320
810.762756,351
810.881531,327
811.000305,353
811.11908,321
811.237854,327
811.356567,339
811.475403,337
811.594116,323
811.71283,327
811.831604,331
811.950378,331
812.069153,327
812.187927,338
812.30658,333
812.425415,346
812.544128,317
812.662781,338
812.781616,337
812.900269,331
813.019043,330
813.137756,333
813.256531,340
813.375244,325
813.493896,333
813.612671,332
813.731384,334
813.850037,339
813.96875,341
814.087524,318
814.206238,315
814.324951,329
814.443604,347
814.562256,346
814.68103,326
814.799683,325
814.918335,324
815.037109,333
815.155762,337
815.274475,334
815.393188,328
815.511841,335
815.630554,341
815.749146,331
815.867859,337
815.986572,322
816.105164,331
816.223877,341
816.342529,331
816.461182,336
816.579895,329
816.698486,331
816.817139,328
816.935791,330
817.054504,327
817.173096,328
817.291748,340
817.4104,314
817.529053,333
817.647644,326
817.766235,315
817.884949,334
818.00354,333
818.122192,326
818.240845,341
818.359436,316
818.478088,327
818.59668,313
818.715271,329
818.833923,336
818.952515,327
819.071106,328
819.189758,316
819.30835,334
819.426941,306
819.545532,332
819.664124,316
819.782715,316
819.901306,321
820.019897,337
820.138489,319
820.25708,316
820.375671,322
820.494202,333
820.612732,317
820.731384,313
820.849915,333
820.968506,313
821.087097,322
821.205627,314
821.324158,321
821.442749,321
821.561279,317
821.679871,316
821.798401,313
821.916931,316
822.035461,325
822.154053,301
822.272583,317
822.391174,322
822.509583,329
822.628174,329
822.746704,322
822.865234,331
822.983765,323
823.102295,308
823.220825,318
823.339294,311
823.457825,311
823.576355,314
823.694824,328
823.813354,322
823.931885,304
824.050354,320
824.168884,321
824.287354,315
824.405823,326
824.524353,328
824.642822,313
824.761353,331
824.879822,319
824.998291,324
825.116699,325
825.235291,315
825.353699,327
825.472168,312
825.590637,325
825.709106,311
825.827576,317
825.946045,334
826.064453,318
826.182983,324
826.301392,316
826.4198,318
826.53833,315
826.656738,305
826.775208,316
826.893677,314
827.012024,327
827.130493,333
827.248962,312
827.36731,319
827.485779,300
827.604248,322
827.722595,315
827.841064,309
827.959412,316
828.077942,314
828.196289,324
828.314636,310
828.433105,313
828.551514,307
828.669861,304
828.78833,303
828.906677,317
829.025085,310
829.143433,314
829.261841,322
829.38031,310
829.498657,321
829.617004,314
829.735413,316
829.85376,311
829.972107,322
830.090515,306
830.208862,320
830.327209,325
830.445557,322
830.563904,320
830.682312,314
830.800659,302
830.919006,326
831.037354,305
831.155701,316
831.274048,327
831.392395,308
831.51062,320
831.629028,313
831.747314,314
831.865662,317
831.984009,313
832.102356,328
832.220642,319
832.338928,329
832.457275,311
832.575623,324
832.693909,312
832.812134,318
832.930481,319
833.048828,327
833.167114,309
833.2854,320
833.403687,306
833.521973,315
833.640259,313
833.758545,311
833.876831,310
833.995056,322
834.113281,300
834.231628,321
834.349915,313
834.468201,310
834.586426,309
834.704651,321
834.822998,322
834.941162,320
835.059448,308
835.177673,331
835.295959,321
835.414246,320
835.53241,304
835.650635,315
835.768921,310
835.887146,321
836.005371,306
836.123596,316
836.241821,327
836.360046,302
836.478271,311
836.596497,331
836.714722,314
836.832886,324
836.95105,308
837.069336,331
837.1875,322
837.305725,307
837.423889,312
837.542053,327
837.660339,337
837.778503,338
837.896667,308
838.014832,324
838.132996,305
838.25116,328
838.369385,308
838.487488,319
838.605713,318
838.723877,313
838.84198,322
838.960205,323
839.078308,324
839.196472,309
839.314636,302
839.4328,331
839.550964,302
839.669067,324
839.787231,315
839.905396,326
840.023499,317
840.141602,320
840.259766,291
840.377869,320
840.495972,309
840.614136,325
840.732239,325
840.850342,309
840.968445,307
841.086548,309
841.204651,323
841.322754,317
841.440918,312
841.55896,318
841.677002,311
841.795166,325
841.913208,313
842.031311,312
842.149353,299
842.267456,324
842.385498,320
842.503601,317
842.621643,314
842.739746,322
842.857788,310
842.97583,326
843.093933,315
843.211975,317
843.330017,306
843.44812,317
843.566101,309
843.684204,330
843.802246,311
843.920227,319
844.038269,306
844.156311,324
844.274292,307
844.392395,320
844.510376,311
844.628357,313
844.74646,327
844.864441,318
844.982422,308
845.100403,317
845.218384,319
845.336426,311
845.454468,301
845.572449,310
845.69043,322
845.808411,322
845.926453,318
846.044373,324
846.162354,305
846.280396,321
846.398315,311
846.516296,325
846.634216,318
846.752197,311
846.870178,319
846.988098,317
847.106079,305
847.22406,319
847.34198,316
847.4599,327
847.577881,320
847.695801,311
847.813782,317
847.931641,309
848.049561,307
848.167603,311
848.285461,322
848.403381,320
848.521362,316
848.639221,315
848.75708,302
848.875,319
848.99292,319
849.110901,310
849.22876,317
849.34668,306
849.464539,311
849.582458,321
849.700317,304
849.818176,307
849.936096,316
850.053955,331
850.171875,318
850.289673,317
850.407593,309
850.525452,312
850.643311,311
850.761169,321
850.878967,316
850.996887,334
851.114746,318
851.232544,324
851.350403,322
851.468262,313
851.58606,301
851.703979,311
851.821777,310
851.939636,324
852.057434,311
852.175232,322
852.293091,314
852.410889,311
852.528687,313
852.646545,302
852.764343,307
852.88208,327
852.999939,316
853.117676,305
853.235535,307
853.353271,311
853.471069,311
853.588928,321
853.706604,324
853.824402,303
853.9422,320
854.059998,324
854.177734,316
854.295532,326
854.413269,306
854.531006,322
854.648804,319
854.766541,316
854.884277,321
855.002014,323
855.119751,320
855.237549,314
855.355225,316
855.473022,321
855.590698,304
855.708435,325
855.826172,323
855.943848,337
856.061646,319
856.179321,318
856.296997,320
856.414795,328
856.53241,319
856.650085,319
856.767822,320
856.885559,315
857.003174,307
857.120911,328
857.238586,313
857.356201,325
857.473938,327
857.591614,326
857.709351,322
857.826965,313
857.944641,313
858.062317,328
858.179993,315
858.297668,314
858.415283,321
858.532959,304
858.650574,307
858.768188,321
858.885803,307
859.003479,316
859.121094,308
859.23877,323
859.356384,318
859.473999,313
859.591675,327
859.709229,313
859.826843,317
859.944458,318
860.062012,310
860.179626,313
860.297302,312
860.414856,329
860.532471,307
860.650024,326
860.767639,309
860.885193,322
861.002808,304
861.120361,311
861.237976,319
861.35553,323
861.473022,322
861.590698,309
861.708191,320
861.825745,321
861.943298,315
862.060852,314
862.178406,316
862.295959,294
862.413513,305
862.531006,320
862.64856,313
862.766113,314
862.883667,312
863.00116,315
863.118713,310
863.236206,317
863.353699,310
863.471252,332
863.588745,307
863.706177,319
863.82373,306
863.941162,318
864.058716,310
864.176208,324
864.29364,306
864.411194,317
864.528687,314
864.646118,309
864.763611,315
864.881042,323
864.998535,306
865.116028,328
865.233459,302
865.350891,324
865.468384,304
865.585754,304
865.703308,313
865.820679,320
865.938171,316
866.055542,311
866.173035,304
866.290466,307
866.407837,321
866.52533,304
866.6427,321
866.760071,319
866.877563,307
866.994934,312
867.112305,306
867.229736,324
867.347107,317
867.464539,308
867.58197,306
867.699341,322
867.81665,306
867.934082,319
868.051453,318
868.168823,315
868.286194,323
868.403564,316
868.520935,319
868.638306,325
868.755676,299
868.872986,332
868.990295,322
869.107727,314
869.225037,316
869.342346,317
869.459717,298
869.577026,312
869.694336,305
869.811707,307
869.929016,319
870.046326,317
870.163635,314
870.280945,318
870.398254,306
870.515564,320
870.632812,310
870.750183,316
870.867432,310
870.984741,313
871.102051,305
871.219299,323
871.336609,323
871.453918,317
871.571106,317
871.688416,321
871.805664,323
871.922852,322
872.040222,316
872.157471,311
872.274719,289
872.391968,320
872.509155,309
872.626465,312
872.743652,310
872.860962,317
872.978149,318
873.095337,316
873.212646,309
873.329834,321
873.44696,300
873.564209,312
873.681396,326
873.798645,328
873.915894,318
874.03302,325
874.150208,309
874.267456,324
874.384583,310
874.501831,310
874.618958,313
874.736145,329
874.853333,319
874.970459,327
875.087646,317
875.204834,321
875.32196,314
875.439148,309
875.556274,313
875.673401,327
875.790527,299
875.907715,316
876.024841,326
876.141968,311
876.259094,312
876.376282,319
876.493347,322
876.610474,330
876.7276,310
876.844727,328
876.961853,304
877.078918,317
877.195984,308
877.313171,323
877.430237,307
877.547302,311
877.664368,300
877.781433,316
877.898499,324
878.015625,322
878.13269,320
878.249695,323
878.366821,307
878.483887,312
878.600952,329
878.717957,318
878.834961,310
878.952087,317
879.069092,299
879.186157,328
879.303162,313
879.420227,312
879.537231,325
879.654236,319
879.77124,314
879.888306,326
880.005249,318
880.122314,318
880.239319,320
880.356323,323
880.473328,311
880.590271,329
880.707275,304
880.824341,316
880.941284,320
881.058228,306
881.175232,322
881.292236,330
881.40918,298
881.526123,313
881.643066,307
881.760071,324
881.877014,317
881.993958,324
882.11084,319
882.227783,319
882.344727,328
882.46167,321
882.578613,313
882.695618,298
882.812439,314
882.929382,320
883.046326,311
883.163208,325
883.280151,322
883.397034,309
883.513916,314
883.630798,329
883.747742,315
883.864563,322
883.981506,298
884.098389,316
884.21521,308
884.332153,323
884.448975,321
884.565796,316
884.682678,310
884.7995,321
884.916443,319
885.033264,313
885.150085,320
885.266968,314
885.383789,322
885.500671,314
885.617493,322
885.734314,327
885.851196,309
885.967896,319
886.084717,321
886.201599,311
886.318359,306
886.435181,329
886.552002,322
886.668762,301
886.785645,317
886.902344,311
887.019165,322
887.135925,330
887.252747,308
887.369446,319
887.486267,305
887.603027,337
887.719788,307
887.836548,315
887.953247,320
888.070068,336
888.186829,310
888.303528,328
888.420288,304
888.536987,310
888.653687,310
888.770447,319
888.887146,312
889.003967,311
889.120667,308
889.237305,311
889.354065,324
889.470703,331
889.587463,310
889.704163,314
889.820862,312
889.937561,315
890.054199,310
890.170837,325
890.287598,316
890.404236,311
890.520874,326
890.637634,315
890.754211,313
890.87085,315
890.987549,313
891.104187,323
891.220886,325
891.337463,324
891.454102,311
891.57074,330
891.687378,316
891.804077,318
891.920654,305
892.037231,325
892.15387,309
892.270447,325
892.387085,308
892.503723,319
892.6203,302
892.736877,310
892.853516,314
892.970032,310
893.08667,314
893.203186,327
893.319763,309
893.43634,323
893.552917,314
893.669556,311
893.786011,313
893.902588,316
894.019165,321
894.135681,325
894.252197,309
894.368835,311
894.485291,308
894.601868,315
894.718384,308
894.8349,323
894.951355,305
895.067932,306
895.184448,314
895.300964,315
895.417419,310
895.533936,311
895.650452,316
895.766907,324
895.883423,318
895.999878,320
896.116333,320
896.232849,322
896.349304,311
896.465759,318
896.582214,299
896.698669,311
896.815125,306
896.931641,314
897.048035,309
897.164551,312
897.280884,313
897.397339,314
897.513794,315
897.630249,319
897.746582,308
897.863098,313
897.979431,298
898.095886,326
898.212341,324
898.328674,331
898.445129,317
898.561462,321
898.677795,307
898.794312,333
898.910645,323
899.026978,310
899.143433,299
899.259766,323
899.37616,321
899.492493,325
899.608765,303
899.725159,329
899.841553,314
899.957947,320
900.07428,313
900.190552,319
900.306946,317
900.423157,313
900.53949,311
900.655884,322
900.772156,326
900.888489,307
901.004822,324
901.121033,322
901.237366,320
901.353699,321
901.46991,310
901.586304,321
901.702515,316
901.818787,316
901.93512,312
902.051331,313
902.167603,308
902.283875,321
902.400085,316
902.516418,313
902.632629,313
902.74884,314
902.865112,318
902.981384,312
903.097595,313
903.213867,322
903.330017,317
903.446289,323
903.5625,310
903.67865,326
903.794922,307
903.911072,318
904.027344,315
904.143494,314
904.259705,322
904.375916,314
904.492065,319
904.608215,321
904.724426,307
904.840576,327
904.956726,320
905.072876,313
905.189087,316
905.305176,319
905.421387,314
905.537537,317
905.653687,314
905.769775,313
905.885925,312
906.002014,305
906.118164,315
906.234314,318
906.350403,316
906.466492,307
906.582642,311
906.69873,322
906.814758,327
906.930908,331
907.046936,308
907.163086,319
907.279175,292
907.395264,332
907.511353,312
907.62738,319
907.743408,316
907.859497,314
907.975525,316
908.091553,318
908.207703,306
908.32373,316
908.439758,307
908.555786,322
908.671814,325
908.787842,313
908.90387,322
909.019775,319
909.135864,332
909.251892,325
909.367859,318
909.483826,324
909.599854,305
909.715881,317
909.831848,309
909.947815,318
910.063782,317
910.179749,333
910.295776,318
910.411743,311
910.527649,311
910.643616,339
910.759583,316
910.875488,319
910.991455,319
911.107361,316
911.223267,309
911.339294,314
911.4552,303
911.571106,320
911.687073,314
911.802979,303
911.918823,295
912.034729,330
912.150635,305
912.266602,311
912.382446,309
912.498352,321
912.614197,308
912.730103,312
912.846008,313
