792.44574,310
792.56488,353
792.68396,392
792.80304,371
792.92218,338
793.041199,321
793.160339,325
793.279419,325
793.398499,317
793.517578,324
793.636658,331
793.755737,326
793.874817,359
793.993896,329
794.112976,336
794.232056,327
794.351074,337
794.470215,327
794.589233,340
794.708313,322
794.827393,349
794.946411,327
795.065552,334
795.18457,324
795.303589,338
795.422668,318
795.541687,324
795.660767,328
795.779846,325
795.898865,316
796.017883,327
796.136963,327
796.255981,343
796.375061,329
796.49408,330
796.613037,344
796.732117,334
796.851135,327
796.970154,322
797.089233,330
797.208191,331
797.327271,332
797.446228,325
797.565186,331
797.684265,337
797.803223,346
797.922241,347
798.04126,357
798.160278,336
798.279297,325
798.398315,329
798.517273,327
798.636292,343
798.75531,315
798.874268,334
798.993286,325
799.112244,330
799.231323,328
799.350281,323
799.469238,337
799.588257,327
799.707153,326
799.826111,325
799.945129,329
800.064087,334
800.183044,330
800.302063,323
800.421021,341
800.539978,334
800.658936,317
800.777893,338
800.896912,319
801.015747,350
801.134705,316
801.253723,336
801.37262,330
801.491638,332
801.610535,320
801.729492,329
801.84845,323
801.967407,338
802.086243,331
802.205261,329
802.324158,322
802.443115,328
802.562073,328
802.680969,333
802.799927,335
802.918762,326
803.037659,335
803.156677,326
803.275574,333
803.39447,332
803.513428,324
803.632263,332
803.751221,330
803.870117,335
803.989014,338
804.107971,334
804.226746,329
804.345642,331
804.4646,329
804.583496,328
804.702393,341
804.821228,337
804.940125,325
805.059021,328
805.177917,326
805.296814,334
805.415649,333
805.534546,339
805.653442,334
805.772278,338
805.891113,331
806.01001,333
806.128906,339
806.247742,350
806.366577,316
806.485413,341
806.604309,316
806.723145,315
806.84198,333
806.960876,334
807.079712,329
807.198486,337
807.317383,328
807.436218,327
807.554993,333
807.673889,335
807.792725,340
807.91156,342
808.030396,333
808.14917,343
808.268005,331
808.386841,328
808.505676,349
808.624451,332
808.743286,335
808.862122,336
808.980896,319
809.099731,336
809.218506,334
809.337341,333
809.456116,322
809.57489,332
809.693726,328
809.8125,345
809.931274,349
810.050049,340
810.168884,337
810.287659,321
810.406372,340
810.525269,328
810.643982,342
810.762756,341
810.881531,345
811.000305,335
811.11908,339
811.237854,340
811.356567,350
811.475403,334
811.594116,331
811.71283,344
811.831604,323
811.950378,342
812.069153,339
812.187927,340
812.30658,328
812.425415,348
812.544128,335
812.662781,334
812.781616,326
812.900269,349
813.019043,337
813.137756,330
813.256531,339
813.375244,342
813.493896,328
813.612671,318
813.731384,332
813.850037,338
813.96875,326
814.087524,340
814.206238,338
814.324951,335
814.443604,325
814.562256,330
814.68103,327
814.799683,336
814.918335,327
815.037109,334
815.155762,347
815.274475,337
815.393188,327
815.511841,344
815.630554,334
815.749146,340
815.867859,330
815.986572,333
816.105164,323
816.223877,341
816.342529,332
816.461182,351
816.579895,332
816.698486,332
816.817139,333
816.935791,327
817.054504,326
817.173096,335
817.291748,325
817.4104,318
817.529053,334
817.647644,324
817.766235,340
817.884949,331
818.00354,317
818.122192,333
818.240845,328
818.359436,326
818.478088,330
818.59668,327
818.715271,315
818.833923,326
818.952515,328
819.071106,329
819.189758,321
819.30835,323
819.426941,323
819.545532,323
819.664124,328
819.782715,320
819.901306,330
820.019897,323
820.138489,315
820.25708,333
820.375671,307
820.494202,317
820.612732,327
820.731384,310
820.849915,315
820.968506,329
821.087097,309
821.205627,319
821.324158,323
821.442749,318
821.561279,310
821.679871,316
821.798401,331
821.916931,325
822.035461,321
822.154053,313
822.272583,316
822.391174,321
822.509583,305
822.628174,320
822.746704,319
822.865234,329
822.983765,316
823.102295,313
823.220825,322
823.339294,321
823.457825,303
823.576355,313
823.694824,323
823.813354,318
823.931885,310
824.050354,312
824.168884,328
824.287354,307
824.405823,326
824.524353,317
824.642822,314
824.761353,311
824.879822,318
824.998291,324
825.116699,312
825.235291,320
825.353699,313
825.472168,306
825.590637,306
825.709106,312
825.827576,320
825.946045,324
826.064453,322
826.182983,308
826.301392,313
826.4198,316
826.53833,324
826.656738,318
826.775208,320
826.893677,313
827.012024,324
827.130493,326
827.248962,315
827.36731,311
827.485779,312
827.604248,328
827.722595,310
827.841064,320
827.959412,314
828.077942,321
828.196289,319
828.314636,309
828.433105,311
828.551514,311
828.669861,296
828.78833,329
828.906677,313
829.025085,326
829.143433,310
829.261841,317
829.38031,314
829.498657,315
829.617004,318
829.735413,323
829.85376,302
829.972107,329
830.090515,315
830.208862,315
830.327209,327
830.445557,330
830.563904,304
830.682312,322
830.800659,320
830.919006,333
831.037354,319
831.155701,330
831.274048,329
831.392395,317
831.51062,318
831.629028,320
831.747314,323
831.865662,310
831.984009,316
832.102356,319
832.220642,310
832.338928,318
832.457275,309
832.575623,321
832.693909,326
832.812134,331
832.930481,334
833.048828,312
833.167114,320
833.2854,317
833.403687,321
833.521973,321
833.640259,314
833.758545,294
833.876831,316
833.995056,318
834.113281,315
834.231628,335
834.349915,304
834.468201,314
834.586426,311
834.704651,311
834.822998,329
834.941162,314
835.059448,326
835.177673,311
835.295959,307
835.414246,320
835.53241,316
835.650635,321
835.768921,321
835.887146,327
836.005371,323
836.123596,313
836.241821,320
836.360046,316
836.478271,314
836.596497,311
836.714722,315
836.832886,323
836.95105,317
837.069336,308
837.1875,320
837.305725,317
837.423889,319
837.542053,316
837.660339,334
837.778503,316
837.896667,331
838.014832,324
838.132996,299
838.25116,322
838.369385,316
838.487488,328
838.605713,304
838.723877,320
838.84198,307
838.960205,311
839.078308,310
839.196472,309
839.314636,297
839.4328,320
839.550964,313
839.669067,320
839.787231,318
839.905396,314
840.023499,312
840.141602,314
840.259766,322
840.377869,331
840.495972,307
840.614136,328
840.732239,321
840.850342,319
840.968445,309
841.086548,336
841.204651,309
841.322754,320
841.440918,311
841.55896,320
841.677002,319
841.795166,322
841.913208,323
842.031311,326
842.149353,306
842.267456,310
842.385498,318
842.503601,322
842.621643,307
842.739746,307
842.857788,309
842.97583,319
843.093933,331
843.211975,322
843.330017,311
843.44812,330
843.566101,321
843.684204,323
843.802246,315
843.920227,319
844.038269,300
844.156311,310
844.274292,331
844.392395,316
844.510376,310
844.628357,311
844.74646,321
844.864441,323
844.982422,300
845.100403,323
845.218384,319
845.336426,324
845.454468,310
845.572449,319
845.69043,322
845.808411,310
845.926453,320
846.044373,302
846.162354,319
846.280396,319
846.398315,315
846.516296,318
846.634216,312
846.752197,303
846.870178,313
846.988098,320
847.106079,319
847.22406,311
847.34198,301
847.4599,324
847.577881,321
847.695801,311
847.813782,307
847.931641,306
848.049561,320
848.167603,321
848.285461,313
848.403381,326
848.521362,332
848.639221,308
848.75708,310
848.875,323
848.99292,306
849.110901,319
849.22876,327
849.34668,314
849.464539,319
849.582458,318
849.700317,320
849.818176,308
849.936096,321
850.053955,316
850.171875,314
850.289673,315
850.407593,313
850.525452,320
850.643311,318
850.761169,328
850.878967,323
850.996887,313
851.114746,317
851.232544,325
851.350403,334
851.468262,328
851.58606,312
851.703979,317
851.821777,304
851.939636,304
852.057434,310
852.175232,315
852.293091,312
852.410889,315
852.528687,311
852.646545,317
852.764343,314
852.88208,297
852.999939,303
853.117676,330
853.235535,303
853.353271,316
853.471069,293
853.588928,336
853.706604,314
853.824402,329
853.9422,312
854.059998,314
854.177734,330
854.295532,321
854.413269,315
854.531006,322
854.648804,311
854.766541,321
854.884277,320
855.002014,324
855.119751,313
855.237549,320
855.355225,309
855.473022,322
855.590698,310
855.708435,328
855.826172,319
855.943848,327
856.061646,302
856.179321,334
856.296997,323
856.414795,316
856.53241,343
856.650085,323
856.767822,324
856.885559,329
857.003174,316
857.120911,312
857.238586,320
857.356201,328
857.473938,309
857.591614,316
857.709351,316
857.826965,317
857.944641,312
858.062317,306
858.179993,315
858.297668,325
858.415283,326
858.532959,310
858.650574,311
858.768188,329
858.885803,316
859.003479,311
859.121094,321
859.23877,324
859.356384,302
859.473999,326
859.591675,312
859.709229,331
859.826843,318
859.944458,311
860.062012,302
860.179626,312
860.297302,311
860.414856,322
860.532471,311
860.650024,319
860.767639,320
860.885193,327
861.002808,319
861.120361,315
861.237976,312
861.35553,318
861.473022,314
861.590698,318
861.708191,324
861.825745,310
861.943298,315
862.060852,306
862.178406,307
862.295959,325
862.413513,321
862.531006,343
862.64856,302
862.766113,326
862.883667,305
863.00116,328
863.118713,318
863.236206,303
863.353699,307
863.471252,329
863.588745,311
863.706177,321
863.82373,303
863.941162,319
864.058716,318
864.176208,327
864.29364,323
864.411194,326
864.528687,322
864.646118,321
864.763611,318
864.881042,309
864.998535,323
865.116028,325
865.233459,305
865.350891,325
865.468384,307
865.585754,313
865.703308,308
865.820679,324
865.938171,315
866.055542,322
866.173035,313
866.290466,321
866.407837,316
866.52533,309
866.6427,317
866.760071,311
866.877563,317
866.994934,307
867.112305,312
867.229736,319
867.347107,312
867.464539,316
867.58197,325
867.699341,316
867.81665,310
867.934082,324
868.051453,317
868.168823,317
868.286194,310
868.403564,326
868.520935,311
868.638306,322
868.755676,305
868.872986,321
868.990295,320
869.107727,326
869.225037,307
869.342346,322
869.459717,326
869.577026,317
869.694336,322
869.811707,312
869.929016,320
870.046326,309
870.163635,312
870.280945,328
870.398254,308
870.515564,317
870.632812,317
870.750183,315
870.867432,319
870.984741,314
871.102051,309
871.219299,305
871.336609,320
871.453918,321
871.571106,328
871.688416,322
871.805664,321
871.922852,314
872.040222,318
872.157471,312
872.274719,313
872.391968,316
872.509155,310
872.626465,313
872.743652,303
872.860962,314
872.978149,317
873.095337,311
873.212646,318
873.329834,330
873.44696,298
873.564209,331
873.681396,305
873.798645,310
873.915894,316
874.03302,319
874.150208,309
874.267456,318
874.384583,312
874.501831,317
874.618958,307
874.736145,325
874.853333,321
874.970459,315
875.087646,322
875.204834,312
875.32196,316
875.439148,306
875.556274,321
875.673401,331
875.790527,311
875.907715,320
876.024841,308
876.141968,318
876.259094,322
876.376282,333
876.493347,311
876.610474,324
876.7276,316
876.844727,323
876.961853,313
877.078918,314
877.195984,319
877.313171,325
877.430237,298
877.547302,314
877.664368,311
877.781433,321
877.898499,318
878.015625,324
878.13269,311
878.249695,315
878.366821,307
878.483887,310
878.600952,315
878.717957,315
878.834961,302
878.952087,324
879.069092,304
879.186157,332
879.303162,320
879.420227,322
879.537231,317
879.654236,326
879.77124,314
879.888306,314
880.005249,314
880.122314,333
880.239319,311
880.356323,316
880.473328,315
880.590271,337
880.707275,325
880.824341,311
880.941284,316
881.058228,320
881.175232,331
881.292236,322
881.40918,300
881.526123,328
881.643066,315
881.760071,316
881.877014,306
881.993958,339
882.11084,312
882.227783,328
882.344727,307
882.46167,315
882.578613,314
882.695618,329
882.812439,305
882.929382,316
883.046326,320
883.163208,320
883.280151,308
883.397034,322
883.513916,315
883.630798,318
883.747742,310
883.864563,322
883.981506,307
884.098389,335
884.21521,305
884.332153,325
884.448975,321
884.565796,308
884.682678,317
884.7995,321
884.916443,307
885.033264,314
885.150085,305
885.266968,322
885.383789,305
885.500671,316
885.617493,314
885.734314,315
885.851196,323
885.967896,323
886.084717,324
886.201599,319
886.318359,307
886.435181,318
886.552002,304
886.668762,317
886.785645,321
886.902344,320
887.019165,305
887.135925,323
887.252747,309
887.369446,302
887.486267,315
887.603027,316
887.719788,324
887.836548,323
887.953247,313
888.070068,312
888.186829,317
888.303528,319
888.420288,318
888.536987,326
888.653687,310
888.770447,332
888.887146,324
889.003967,328
889.120667,315
889.237305,325
889.354065,323
889.470703,320
889.587463,317
889.704163,313
889.820862,318
889.937561,319
890.054199,315
890.170837,312
890.287598,316
890.404236,308
890.520874,321
890.637634,325
890.754211,315
890.87085,318
890.987549,301
891.104187,314
891.220886,320
891.337463,320
891.454102,307
891.57074,312
891.687378,304
891.804077,317
891.920654,315
892.037231,312
892.15387,312
892.270447,314
892.387085,319
892.503723,328
892.6203,324
892.736877,317
892.853516,312
892.970032,315
893.08667,327
893.203186,324
893.319763,318
893.43634,325
893.552917,320
893.669556,332
893.786011,309
893.902588,317
894.019165,313
894.135681,328
894.252197,325
894.368835,323
894.485291,309
894.601868,322
894.718384,318
894.8349,319
894.951355,316
895.067932,328
895.184448,326
895.300964,326
895.417419,319
895.533936,311
895.650452,319
895.766907,316
895.883423,323
895.999878,332
896.116333,311
896.232849,320
896.349304,315
896.465759,313
896.582214,306
896.698669,313
896.815125,321
896.931641,321
897.048035,318
897.164551,324
897.280884,315
897.397339,323
897.513794,322
897.630249,321
897.746582,311
897.863098,325
897.979431,313
898.095886,324
898.212341,307
898.328674,306
898.445129,318
898.561462,316
898.677795,311
898.794312,307
898.910645,309
899.026978,330
899.143433,314
899.259766,316
899.37616,321
899.492493,314
899.608765,313
899.725159,325
899.841553,313
899.957947,324
900.07428,308
900.190552,323
900.306946,304
900.423157,332
900.53949,311
900.655884,310
900.772156,313
900.888489,307
901.004822,338
901.121033,325
901.237366,296
901.353699,317
901.46991,318
901.586304,328
901.702515,291
901.818787,316
901.93512,315
902.051331,306
902.167603,326
902.283875,313
902.400085,312
902.516418,334
902.632629,301
902.74884,331
902.865112,315
902.981384,322
903.097595,306
903.213867,311
903.330017,323
903.446289,301
903.5625,324
903.67865,309
903.794922,309
903.911072,318
904.027344,323
904.143494,310
904.259705,315
904.375916,321
904.492065,311
904.608215,316
904.724426,308
904.840576,321
904.956726,309
905.072876,324
905.189087,326
905.305176,323
905.421387,319
905.537537,317
905.653687,320
905.769775,330
905.885925,304
906.002014,309
906.118164,323
906.234314,309
906.350403,312
906.466492,329
906.582642,302
906.69873,322
906.814758,310
906.930908,319
907.046936,299
907.163086,326
907.279175,308
907.395264,310
907.511353,326
907.62738,314
907.743408,320
907.859497,316
907.975525,326
908.091553,321
908.207703,305
908.32373,331
908.439758,309
908.555786,327
908.671814,310
908.787842,308
908.90387,317
909.019775,309
909.135864,319
909.251892,315
909.367859,303
909.483826,327
909.599854,318
909.715881,324
909.831848,312
909.947815,308
910.063782,320
910.179749,324
910.295776,331
910.411743,323
910.527649,324
910.643616,325
910.759583,308
910.875488,315
910.991455,310
911.107361,327
911.223267,316
911.339294,312
911.4552,320
911.571106,321
911.687073,330
911.802979,325
911.918823,314
912.034729,321
912.150635,325
912.266602,316
912.382446,312
912.498352,313
912.614197,308
912.730103,325
912.846008,316
792.44574,314
792.56488,350
792.68396,389
792.80304,394
792.92218,355
793.041199,325
793.160339,314
793.279419,354
793.398499,343
793.517578,311
793.636658,329
793.755737,328
793.874817,360
793.993896,341
794.112976,334
794.232056,332
794.351074,332
794.470215,325
794.589233,332
794.708313,310
794.827393,318
794.946411,331
795.065552,321
795.18457,343
795.303589,343
795.422668,328
795.541687,329
795.660767,319
795.779846,345
795.898865,321
796.017883,333
796.136963,333
796.255981,335
796.375061,335
796.49408,323
796.613037,324
796.732117,338
796.851135,330
796.970154,343
797.089233,337
797.208191,336
797.327271,337
797.446228,337
797.565186,332
797.684265,322
797.803223,336
797.922241,342
798.04126,329
798.160278,335
798.279297,331
798.398315,320
798.517273,323
798.636292,331
798.75531,328
798.874268,347
798.993286,330
799.112244,329
799.231323,333
799.350281,340
799.469238,340
799.588257,327
799.707153,332
799.826111,327
799.945129,337
800.064087,328
800.183044,345
800.302063,324
800.421021,332
800.539978,327
800.658936,344
800.777893,318
800.896912,329
801.015747,324
801.134705,329
801.253723,316
801.37262,342
801.491638,332
801.610535,316
801.729492,334
801.84845,331
801.967407,339
802.086243,340
802.205261,328
802.324158,319
802.443115,334
802.562073,331
802.680969,340
802.799927,340
802.918762,316
803.037659,328
803.156677,329
803.275574,333
803.39447,316
803.513428,326
803.632263,330
803.751221,335
803.870117,328
803.989014,332
804.107971,329
804.226746,330
804.345642,317
804.4646,338
804.583496,337
804.702393,337
804.821228,331
804.940125,342
805.059021,324
805.177917,336
805.296814,325
805.415649,320
805.534546,346
805.653442,329
805.772278,328
805.891113,325
806.01001,343
806.128906,331
806.247742,337
806.366577,342
806.485413,335
806.604309,337
806.723145,340
806.84198,330
806.960876,331
807.079712,332
807.198486,329
807.317383,338
807.436218,334
807.554993,330
807.673889,345
807.792725,332
807.91156,338
808.030396,327
808.14917,344
808.268005,332
808.386841,343
808.505676,345
808.624451,330
808.743286,332
808.862122,343
808.980896,338
809.099731,339
809.218506,333
809.337341,327
809.456116,326
809.57489,333
809.693726,342
809.8125,338
809.931274,331
810.050049,335
810.168884,345
810.287659,335
810.406372,330
810.525269,329
810.643982,341
810.762756,330
810.881531,345
811.000305,328
811.11908,318
811.237854,349
811.356567,328
811.475403,332
811.594116,325
811.71283,335
811.831604,337
811.950378,317
812.069153,336
812.187927,350
812.30658,340
812.425415,342
812.544128,336
812.662781,344
812.781616,343
812.900269,340
813.019043,327
813.137756,335
813.256531,331
813.375244,332
813.493896,328
813.612671,334
813.731384,339
813.850037,343
813.96875,332
814.087524,325
814.206238,320
814.324951,329
814.443604,321
814.562256,334
814.68103,334
814.799683,332
814.918335,343
815.037109,334
815.155762,326
815.274475,331
815.393188,336
815.511841,340
815.630554,335
815.749146,323
815.867859,331
815.986572,342
816.105164,347
816.223877,331
816.342529,341
816.461182,336
816.579895,328
816.698486,333
816.817139,343
816.935791,331
817.054504,330
817.173096,339
817.291748,335
817.4104,339
817.529053,329
817.647644,316
817.766235,331
817.884949,318
818.00354,332
818.122192,330
818.240845,319
818.359436,327
818.478088,328
818.59668,330
818.715271,336
818.833923,337
818.952515,318
819.071106,336
819.189758,314
819.30835,317
819.426941,316
819.545532,320
819.664124,324
819.782715,328
819.901306,335
820.019897,323
820.138489,323
820.25708,312
820.375671,323
820.494202,324
820.612732,319
820.731384,333
820.849915,306
820.968506,316
821.087097,311
821.205627,329
821.324158,315
821.442749,315
821.561279,322
821.679871,326
821.798401,340
821.916931,301
822.035461,322
822.154053,318
822.272583,321
822.391174,317
822.509583,309
822.628174,320
822.746704,320
822.865234,328
822.983765,318
823.102295,314
823.220825,318
823.339294,320
823.457825,314
823.576355,322
823.694824,324
823.813354,320
823.931885,317
824.050354,329
824.168884,304
824.287354,324
824.405823,317
824.524353,321
824.642822,319
824.761353,318
824.879822,317
824.998291,311
825.116699,316
825.235291,304
825.353699,326
825.472168,322
825.590637,315
825.709106,319
825.827576,312
825.946045,324
826.064453,322
826.182983,325
826.301392,313
826.4198,322
826.53833,320
826.656738,325
826.775208,327
826.893677,327
827.012024,323
827.130493,319
827.248962,320
827.36731,316
827.485779,324
827.604248,319
827.722595,317
827.841064,326
827.959412,307
828.077942,320
828.196289,334
828.314636,311
828.433105,311
828.551514,324
828.669861,333
828.78833,308
828.906677,317
829.025085,308
829.143433,321
829.261841,316
829.38031,316
829.498657,316
829.617004,307
829.735413,324
829.85376,318
829.972107,327
830.090515,309
830.208862,323
830.327209,317
830.445557,329
830.563904,323
830.682312,315
830.800659,318
830.919006,318
831.037354,331
831.155701,323
831.274048,315
831.392395,310
831.51062,313
831.629028,322
831.747314,310
831.865662,335
831.984009,324
832.102356,324
832.220642,315
832.338928,329
832.457275,325
832.575623,326
832.693909,314
832.812134,325
832.930481,315
833.048828,313
833.167114,320
833.2854,313
833.403687,306
833.521973,321
833.640259,310
833.758545,313
833.876831,321
833.995056,312
834.113281,320
834.231628,304
834.349915,313
834.468201,326
834.586426,318
834.704651,318
834.822998,327
834.941162,317
835.059448,317
835.177673,321
835.295959,332
835.414246,317
835.53241,321
835.650635,307
835.768921,316
835.887146,325
836.005371,330
836.123596,320
836.241821,310
836.360046,323
836.478271,321
836.596497,335
836.714722,317
836.832886,317
836.95105,315
837.069336,338
837.1875,324
837.305725,328
837.423889,314
837.542053,334
837.660339,304
837.778503,331
837.896667,318
838.014832,326
838.132996,319
838.25116,336
838.369385,300
838.487488,319
838.605713,314
838.723877,332
838.84198,305
838.960205,301
839.078308,307
839.196472,331
839.314636,327
839.4328,319
839.550964,324
839.669067,322
839.787231,310
839.905396,323
840.023499,316
840.141602,318
840.259766,343
840.377869,312
840.495972,326
840.614136,324
840.732239,319
840.850342,308
840.968445,321
841.086548,325
841.204651,321
841.322754,303
841.440918,318
841.55896,322
841.677002,317
841.795166,327
841.913208,303
842.031311,331
842.149353,311
842.267456,325
842.385498,315
842.503601,315
842.621643,306
842.739746,316
842.857788,325
842.97583,313
843.093933,315
843.211975,305
843.330017,301
843.44812,308
843.566101,315
843.684204,315
843.802246,302
843.920227,336
844.038269,319
844.156311,319
844.274292,325
844.392395,317
844.510376,309
844.628357,328
844.74646,320
844.864441,310
844.982422,313
845.100403,316
845.218384,307
845.336426,322
845.454468,321
845.572449,309
845.69043,312
845.808411,324
845.926453,304
846.044373,328
846.162354,325
846.280396,322
846.398315,311
846.516296,305
846.634216,304
846.752197,320
846.870178,313
846.988098,325
847.106079,325
847.22406,308
847.34198,330
847.4599,322
847.577881,330
847.695801,317
847.813782,321
847.931641,330
848.049561,304
848.167603,329
848.285461,322
848.403381,316
848.521362,303
848.639221,321
848.75708,305
848.875,321
848.99292,310
849.110901,326
849.22876,312
849.34668,331
849.464539,302
849.582458,307
849.700317,307
849.818176,320
849.936096,321
850.053955,328
850.171875,310
850.289673,319
850.407593,299
850.525452,322
850.643311,320
850.761169,326
850.878967,309
850.996887,322
851.114746,307
851.232544,311
851.350403,318
851.468262,320
851.58606,309
851.703979,320
851.821777,320
851.939636,310
852.057434,315
852.175232,313
852.293091,310
852.410889,320
852.528687,310
852.646545,329
852.764343,306
852.88208,328
852.999939,316
853.117676,314
853.235535,309
853.353271,317
853.471069,316
853.588928,317
853.706604,314
853.824402,319
853.9422,319
854.059998,313
854.177734,317
854.295532,313
854.413269,309
854.531006,311
854.648804,322
854.766541,324
854.884277,303
855.002014,312
855.119751,317
855.237549,333
855.355225,322
855.473022,305
855.590698,325
855.708435,326
855.826172,313
855.943848,320
856.061646,322
856.179321,317
856.296997,317
856.414795,323
856.53241,304
856.650085,317
856.767822,311
856.885559,312
857.003174,328
857.120911,314
857.238586,306
857.356201,326
857.473938,325
857.591614,315
857.709351,322
857.826965,316
857.944641,312
858.062317,333
858.179993,313
858.297668,316
858.415283,320
858.532959,317
858.650574,311
858.768188,324
858.885803,316
859.003479,321
859.121094,319
859.23877,312
859.356384,315
859.473999,320
859.591675,315
859.709229,313
859.826843,305
859.944458,313
860.062012,312
860.179626,314
860.297302,313
860.414856,322
860.532471,319
860.650024,319
860.767639,315
860.885193,311
861.002808,307
861.120361,311
861.237976,303
861.35553,316
861.473022,319
861.590698,307
861.708191,312
861.825745,306
861.943298,297
862.060852,327
862.178406,319
862.295959,324
862.413513,305
862.531006,313
862.64856,313
862.766113,335
862.883667,310
863.00116,314
863.118713,312
863.236206,304
863.353699,319
863.471252,334
863.588745,312
863.706177,319
863.82373,316
863.941162,320
864.058716,320
864.176208,316
864.29364,314
864.411194,321
864.528687,296
864.646118,332
864.763611,304
864.881042,316
864.998535,313
865.116028,330
865.233459,306
865.350891,324
865.468384,304
865.585754,327
865.703308,307
865.820679,322
865.938171,315
866.055542,317
866.173035,317
866.290466,307
866.407837,321
866.52533,308
866.6427,313
866.760071,311
866.877563,322
866.994934,324
867.112305,318
867.229736,314
867.347107,311
867.464539,325
867.58197,317
867.699341,323
867.81665,315
867.934082,321
868.051453,309
868.168823,324
868.286194,316
868.403564,336
868.520935,316
868.638306,312
868.755676,325
868.872986,317
868.990295,310
869.107727,306
869.225037,316
869.342346,334
869.459717,319
869.577026,322
869.694336,316
869.811707,312
869.929016,326
870.046326,331
870.163635,311
870.280945,319
870.398254,317
870.515564,318
870.632812,310
870.750183,328
870.867432,315
870.984741,303
871.102051,321
871.219299,322
871.336609,320
871.453918,318
871.571106,310
871.688416,330
871.805664,315
871.922852,333
872.040222,317
872.157471,315
872.274719,311
872.391968,319
872.509155,303
872.626465,318
872.743652,314
872.860962,316
872.978149,311
873.095337,313
873.212646,310
873.329834,328
873.44696,310
873.564209,323
873.681396,308
873.798645,335
873.915894,315
874.03302,321
874.150208,311
874.267456,316
874.384583,313
874.501831,326
874.618958,316
874.736145,321
874.853333,318
874.970459,308
875.087646,303
875.204834,334
875.32196,327
875.439148,314
875.556274,331
875.673401,300
875.790527,318
875.907715,322
876.024841,301
876.141968,321
876.259094,308
876.376282,331
876.493347,312
876.610474,319
876.7276,307
876.844727,315
876.961853,305
877.078918,327
877.195984,305
877.313171,325
877.430237,316
877.547302,332
877.664368,319
877.781433,315
877.898499,322
878.015625,309
878.13269,320
878.249695,313
878.366821,318
878.483887,324
878.600952,322
878.717957,321
878.834961,312
878.952087,303
879.069092,316
879.186157,314
879.303162,323
879.420227,312
879.537231,316
879.654236,309
879.77124,316
879.888306,324
880.005249,321
880.122314,313
880.239319,319
880.356323,322
880.473328,318
880.590271,318
880.707275,322
880.824341,316
880.941284,310
881.058228,308
881.175232,310
881.292236,319
881.40918,309
881.526123,327
881.643066,317
881.760071,326
881.877014,315
881.993958,319
882.11084,315
882.227783,327
882.344727,311
882.46167,314
882.578613,323
882.695618,312
882.812439,307
882.929382,320
883.046326,322
883.163208,315
883.280151,309
883.397034,321
883.513916,306
883.630798,310
883.747742,322
883.864563,323
883.981506,312
884.098389,316
884.21521,311
884.332153,315
884.448975,314
884.565796,331
884.682678,316
884.7995,321
884.916443,323
885.033264,310
885.150085,303
885.266968,318
885.383789,302
885.500671,323
885.617493,327
885.734314,316
885.851196,319
885.967896,315
886.084717,305
886.201599,319
886.318359,307
886.435181,303
886.552002,314
886.668762,297
886.785645,314
886.902344,322
887.019165,319
887.135925,307
887.252747,309
887.369446,321
887.486267,319
887.603027,313
887.719788,319
887.836548,324
887.953247,316
888.070068,323
888.186829,314
888.303528,320
888.420288,324
888.536987,311
888.653687,301
888.770447,311
888.887146,311
889.003967,318
889.120667,309
889.237305,321
889.354065,321
889.470703,318
889.587463,306
889.704163,314
889.820862,320
889.937561,324
890.054199,324
890.170837,307
890.287598,313
890.404236,329
890.520874,315
890.637634,308
890.754211,312
890.87085,320
890.987549,326
891.104187,303
891.220886,313
891.337463,314
891.454102,304
891.57074,333
891.687378,312
891.804077,305
891.920654,312
892.037231,328
892.15387,324
892.270447,314
892.387085,309
892.503723,318
892.6203,309
892.736877,311
892.853516,327
892.970032,307
893.08667,312
893.203186,312
893.319763,319
893.43634,322
893.552917,323
893.669556,312
893.786011,314
893.902588,318
894.019165,309
894.135681,318
894.252197,319
894.368835,309
894.485291,323
894.601868,319
894.718384,310
894.8349,324
894.951355,312
895.067932,325
895.184448,303
895.300964,302
895.417419,316
895.533936,322
895.650452,309
895.766907,312
895.883423,322
895.999878,325
896.116333,318
896.232849,320
896.349304,318
896.465759,314
896.582214,330
896.698669,304
896.815125,306
896.931641,327
897.048035,314
897.164551,312
897.280884,311
897.397339,309
897.513794,317
897.630249,310
897.746582,312
897.863098,326
897.979431,316
898.095886,330
898.212341,304
898.328674,334
898.445129,324
898.561462,320
898.677795,310
898.794312,323
898.910645,328
899.026978,324
899.143433,328
899.259766,328
899.37616,311
899.492493,314
899.608765,311
899.725159,336
899.841553,315
899.957947,324
900.07428,311
900.190552,325
900.306946,317
900.423157,323
900.53949,318
900.655884,326
900.772156,323
900.888489,323
901.004822,316
901.121033,330
901.237366,325
901.353699,311
901.46991,315
901.586304,319
901.702515,308
901.818787,330
901.93512,310
902.051331,325
902.167603,317
902.283875,301
902.400085,328
902.516418,321
902.632629,322
902.74884,316
902.865112,313
902.981384,317
903.097595,314
903.213867,323
903.330017,312
903.446289,323
903.5625,313
903.67865,314
903.794922,314
903.911072,307
904.027344,316
904.143494,323
904.259705,304
904.375916,327
904.492065,315
904.608215,315
904.724426,315
904.840576,323
904.956726,300
905.072876,326
905.189087,305
905.305176,317
905.421387,320
905.537537,321
905.653687,315
905.769775,313
905.885925,324
906.002014,317
906.118164,321
906.234314,326
906.350403,298
906.466492,309
906.582642,311
906.69873,327
906.814758,315
906.930908,320
907.046936,319
907.163086,308
907.279175,320
907.395264,324
907.511353,312
907.62738,315
907.743408,312
907.859497,323
907.975525,323
908.091553,318
908.207703,327
908.32373,302
908.439758,334
908.555786,311
908.671814,313
908.787842,312
908.90387,292
909.019775,314
909.135864,301
909.251892,323
909.367859,333
909.483826,315
909.599854,314
909.715881,329
909.831848,313
909.947815,327
910.063782,307
910.179749,320
910.295776,317
910.411743,309
910.527649,329
910.643616,313
910.759583,323
910.875488,326
910.991455,305
911.107361,318
911.223267,322
911.339294,322
911.4552,315
911.571106,335
911.687073,323
911.802979,321
911.918823,303
912.034729,310
912.150635,305
912.266602,331
912.382446,312
912.498352,323
912.614197,307
912.730103,313
912.846008,323
792.44574,321
792.56488,361
792.68396,392
792.80304,377
792.92218,350
793.041199,328
793.160339,340
793.279419,333
793.398499,340
793.517578,307
793.636658,309
793.755737,340
793.874817,350
793.993896,339
794.112976,336
794.232056,322
794.351074,320
794.470215,327
794.589233,333
794.708313,332
794.827393,334
794.946411,328
795.065552,335
795.18457,342
795.303589,332
795.422668,333
795.541687,321
795.660767,346
795.779846,334
795.898865,333
796.017883,342
796.136963,339
796.255981,341
796.375061,342
796.49408,337
796.613037,331
796.732117,331
796.851135,331
796.970154,330
797.089233,327
797.208191,330
797.327271,330
797.446228,332
797.565186,321
797.684265,337
797.803223,330
797.922241,329
798.04126,331
798.160278,334
798.279297,327
798.398315,335
798.517273,330
798.636292,339
798.75531,334
798.874268,342
798.993286,320
799.112244,331
799.231323,323
799.350281,324
799.469238,333
799.588257,321
799.707153,317
799.826111,316
799.945129,330
800.064087,343
800.183044,340
800.302063,338
800.421021,341
800.539978,326
800.658936,329
800.777893,340
800.896912,330
801.015747,341
801.134705,328
801.253723,322
801.37262,333
801.491638,334
801.610535,338
801.729492,322
801.84845,330
801.967407,317
802.086243,329
802.205261,333
802.324158,322
802.443115,340
802.562073,334
802.680969,329
802.799927,329
802.918762,334
803.037659,328
803.156677,331
803.275574,319
803.39447,335
803.513428,330
803.632263,341
803.751221,323
803.870117,359
803.989014,324
804.107971,325
804.226746,326
804.345642,341
804.4646,329
804.583496,322
804.702393,327
804.821228,328
804.940125,326
805.059021,348
805.177917,327
805.296814,343
805.415649,331
805.534546,330
805.653442,315
805.772278,351
805.891113,320
806.01001,339
806.128906,324
806.247742,341
806.366577,322
806.485413,336
806.604309,325
806.723145,333
806.84198,330
806.960876,315
807.079712,317
807.198486,338
807.317383,331
807.436218,338
807.554993,335
807.673889,333
807.792725,335
807.91156,333
808.030396,335
808.14917,343
808.268005,324
808.386841,325
808.505676,340
808.624451,329
808.743286,340
808.862122,326
808.980896,336
809.099731,329
809.218506,335
809.337341,345
809.456116,343
809.57489,357
809.693726,329
809.8125,342
809.931274,321
810.050049,337
810.168884,325
810.287659,342
810.406372,329
810.525269,327
810.643982,335
810.762756,335
810.881531,340
811.000305,340
811.11908,336
811.237854,348
811.356567,337
811.475403,348
811.594116,316
811.71283,340
811.831604,326
811.950378,329
812.069153,337
812.187927,341
812.30658,339
812.425415,329
812.544128,342
812.662781,340
812.781616,324
812.900269,330
813.019043,335
813.137756,332
813.256531,322
813.375244,356
813.493896,322
813.612671,337
813.731384,334
813.850037,330
813.96875,339
814.087524,342
814.206238,335
814.324951,333
814.443604,322
814.562256,353
814.68103,322
814.799683,328
814.918335,335
815.037109,328
815.155762,335
815.274475,322
815.393188,346
815.511841,341
815.630554,322
815.749146,341
815.867859,337
815.986572,336
816.105164,335
816.223877,346
816.342529,323
816.461182,333
816.579895,340
816.698486,342
816.817139,325
816.935791,322
817.054504,335
817.173096,345
817.291748,316
817.4104,332
817.529053,323
817.647644,333
817.766235,318
817.884949,334
818.00354,304
818.122192,352
818.240845,322
818.359436,320
818.478088,322
818.59668,334
818.715271,323
818.833923,332
818.952515,306
819.071106,319
819.189758,321
819.30835,333
819.426941,332
819.545532,331
819.664124,325
819.782715,334
819.901306,321
820.019897,320
820.138489,315
820.25708,325
820.375671,321
820.494202,331
820.612732,313
820.731384,304
820.849915,312
820.968506,329
821.087097,326
821.205627,325
821.324158,320
821.442749,322
821.561279,320
821.679871,318
821.798401,309
821.916931,325
822.035461,316
822.154053,312
822.272583,317
822.391174,338
822.509583,320
822.628174,321
822.746704,310
822.865234,314
822.983765,326
823.102295,315
823.220825,313
823.339294,331
823.457825,326
823.576355,326
823.694824,319
823.813354,328
823.931885,317
824.050354,319
824.168884,313
824.287354,315
824.405823,312
824.524353,321
824.642822,321
824.761353,319
824.879822,310
824.998291,327
825.116699,308
825.235291,319
825.353699,319
825.472168,320
825.590637,320
825.709106,317
825.827576,315
825.946045,326
826.064453,328
826.182983,328
826.301392,315
826.4198,318
826.53833,308
826.656738,317
826.775208,316
826.893677,322
827.012024,310
827.130493,327
827.248962,305
827.36731,328
827.485779,311
827.604248,314
827.722595,301
827.841064,318
827.959412,313
828.077942,313
828.196289,312
828.314636,317
828.433105,311
828.551514,305
828.669861,307
828.78833,318
828.906677,319
829.025085,323
829.143433,311
829.261841,314
829.38031,307
829.498657,330
829.617004,311
829.735413,332
829.85376,300
829.972107,337
830.090515,315
830.208862,319
830.327209,312
830.445557,322
830.563904,309
830.682312,321
830.800659,314
830.919006,313
831.037354,315
831.155701,335
831.274048,315
831.392395,318
831.51062,320
831.629028,316
831.747314,313
831.865662,322
831.984009,309
832.102356,314
832.220642,307
832.338928,314
832.457275,309
832.575623,321
832.693909,305
832.812134,326
832.930481,325
833.048828,331
833.167114,311
833.2854,306
833.403687,315
833.521973,316
833.640259,315
833.758545,317
833.876831,321
833.995056,315
834.113281,315
834.231628,315
834.349915,317
834.468201,325
834.586426,303
834.704651,314
834.822998,315
834.941162,326
835.059448,328
835.177673,325
835.295959,305
835.414246,337
835.53241,312
835.650635,315
835.768921,308
835.887146,328
836.005371,317
836.123596,316
836.241821,318
836.360046,324
836.478271,324
836.596497,325
836.714722,318
836.832886,331
836.95105,325
837.069336,324
837.1875,309
837.305725,318
837.423889,318
837.542053,323
837.660339,318
837.778503,318
837.896667,320
838.014832,328
838.132996,317
838.25116,323
838.369385,312
838.487488,321
838.605713,321
838.723877,328
838.84198,318
838.960205,308
839.078308,319
839.196472,321
839.314636,315
839.4328,331
839.550964,322
839.669067,310
839.787231,323
839.905396,321
840.023499,299
840.141602,332
840.259766,309
840.377869,341
840.495972,305
840.614136,332
840.732239,305
840.850342,320
840.968445,315
841.086548,314
841.204651,314
841.322754,333
841.440918,306
841.55896,337
841.677002,308
841.795166,328
841.913208,305
842.031311,326
842.149353,322
842.267456,316
842.385498,320
842.503601,310
842.621643,310
842.739746,315
842.857788,307
842.97583,317
843.093933,326
843.211975,312
843.330017,321
843.44812,323
843.566101,321
843.684204,313
843.802246,305
843.920227,326
844.038269,318
844.156311,313
844.274292,319
844.392395,316
844.510376,311
844.628357,309
844.74646,315
844.864441,321
844.982422,324
845.100403,324
845.218384,325
845.336426,310
845.454468,310
845.572449,313
845.69043,319
845.808411,308
845.926453,316
846.044373,316
846.162354,303
846.280396,321
846.398315,304
846.516296,320
846.634216,304
846.752197,319
846.870178,306
846.988098,317
847.106079,308
847.22406,322
847.34198,319
847.4599,311
847.577881,314
847.695801,309
847.813782,314
847.931641,304
848.049561,322
848.167603,310
848.285461,311
848.403381,316
848.521362,317
848.639221,325
848.75708,305
848.875,320
848.99292,309
849.110901,327
849.22876,318
849.34668,300
849.464539,314
849.582458,319
849.700317,329
849.818176,325
849.936096,325
850.053955,324
850.171875,309
850.289673,315
850.407593,325
850.525452,320
850.643311,317
850.761169,321
850.878967,318
850.996887,316
851.114746,324
851.232544,327
851.350403,319
851.468262,322
851.58606,309
851.703979,316
851.821777,320
851.939636,317
852.057434,323
852.175232,318
852.293091,314
852.410889,315
852.528687,327
852.646545,314
852.764343,315
852.88208,309
852.999939,309
853.117676,326
853.235535,314
853.353271,318
853.471069,323
853.588928,327
853.706604,311
853.824402,314
853.9422,319
854.059998,308
854.177734,315
854.295532,319
854.413269,324
854.531006,339
854.648804,312
854.766541,312
854.884277,318
855.002014,337
855.119751,312
855.237549,319
855.355225,318
855.473022,321
855.590698,305
855.708435,328
855.826172,314
855.943848,326
856.061646,302
856.179321,325
856.296997,301
856.414795,321
856.53241,317
856.650085,311
856.767822,313
856.885559,326
857.003174,311
857.120911,318
857.238586,309
857.356201,326
857.473938,323
857.591614,308
857.709351,308
857.826965,315
857.944641,319
858.062317,315
858.179993,309
858.297668,326
858.415283,308
858.532959,316
858.650574,316
858.768188,327
858.885803,331
859.003479,306
859.121094,312
859.23877,311
859.356384,315
859.473999,330
859.591675,314
859.709229,330
859.826843,304
859.944458,316
860.062012,319
860.179626,337
860.297302,302
860.414856,312
860.532471,305
860.650024,323
860.767639,318
860.885193,316
861.002808,302
861.120361,324
861.237976,307
861.35553,329
861.473022,301
861.590698,318
861.708191,306
861.825745,330
861.943298,322
862.060852,321
862.178406,305
862.295959,314
862.413513,301
862.531006,324
862.64856,314
862.766113,315
862.883667,307
863.00116,330
863.118713,307
863.236206,322
863.353699,319
863.471252,325
863.588745,319
863.706177,322
863.82373,315
863.941162,327
864.058716,318
864.176208,319
864.29364,316
864.411194,307
864.528687,311
864.646118,325
864.763611,304
864.881042,322
864.998535,306
865.116028,330
865.233459,302
865.350891,317
865.468384,303
865.585754,311
865.703308,322
865.820679,320
865.938171,320
866.055542,318
866.173035,316
866.290466,305
866.407837,312
866.52533,318
866.6427,299
866.760071,312
866.877563,321
866.994934,316
867.112305,315
867.229736,316
867.347107,320
867.464539,319
867.58197,313
867.699341,329
867.81665,313
867.934082,327
868.051453,323
868.168823,309
868.286194,311
868.403564,327
868.520935,313
868.638306,312
868.755676,301
868.872986,322
868.990295,310
869.107727,325
869.225037,315
869.342346,320
869.459717,321
869.577026,318
869.694336,317
869.811707,326
869.929016,311
870.046326,318
870.163635,312
870.280945,321
870.398254,309
870.515564,317
870.632812,305
870.750183,304
870.867432,321
870.984741,333
871.102051,318
871.219299,331
871.336609,302
871.453918,325
871.571106,311
871.688416,326
871.805664,303
871.922852,333
872.040222,304
872.157471,309
872.274719,306
872.391968,316
872.509155,307
872.626465,328
872.743652,316
872.860962,321
872.978149,315
873.095337,319
873.212646,304
873.329834,320
873.44696,307
873.564209,304
873.681396,306
873.798645,323
873.915894,297
874.03302,325
874.150208,313
874.267456,310
874.384583,307
874.501831,311
874.618958,311
874.736145,324
874.853333,294
874.970459,310
875.087646,307
875.204834,319
875.32196,314
875.439148,325
875.556274,316
875.673401,318
875.790527,307
875.907715,324
876.024841,299
876.141968,329
876.259094,305
876.376282,315
876.493347,308
876.610474,313
876.7276,297
876.844727,327
876.961853,316
877.078918,317
877.195984,317
877.313171,325
877.430237,297
877.547302,325
877.664368,313
877.781433,318
877.898499,311
878.015625,319
878.13269,320
878.249695,320
878.366821,315
878.483887,330
878.600952,312
878.717957,325
878.834961,320
878.952087,326
879.069092,315
879.186157,314
879.303162,318
879.420227,328
879.537231,330
879.654236,324
879.77124,318
879.888306,325
880.005249,308
880.122314,324
880.239319,294
880.356323,332
880.473328,313
880.590271,303
880.707275,322
880.824341,323
880.941284,315
881.058228,320
881.175232,313
881.292236,315
881.40918,303
881.526123,307
881.643066,307
881.760071,314
881.877014,311
881.993958,321
882.11084,324
882.227783,317
882.344727,314
882.46167,316
882.578613,301
882.695618,327
882.812439,311
882.929382,319
883.046326,311
883.163208,318
883.280151,309
883.397034,312
883.513916,328
883.630798,315
883.747742,305
883.864563,324
883.981506,318
884.098389,313
884.21521,314
884.332153,314
884.448975,307
884.565796,335
884.682678,322
884.7995,322
884.916443,312
885.033264,311
885.150085,316
885.266968,316
885.383789,315
885.500671,318
885.617493,314
885.734314,312
885.851196,326
885.967896,325
886.084717,303
886.201599,319
886.318359,315
886.435181,315
886.552002,311
886.668762,315
886.785645,317
886.902344,327
887.019165,329
887.135925,320
887.252747,309
887.369446,324
887.486267,313
887.603027,330
887.719788,310
887.836548,309
887.953247,315
888.070068,315
888.186829,316
888.303528,315
888.420288,303
888.536987,329
888.653687,321
888.770447,320
888.887146,320
889.003967,309
889.120667,315
889.237305,323
889.354065,311
889.470703,316
889.587463,316
889.704163,325
889.820862,307
889.937561,323
890.054199,321
890.170837,309
890.287598,303
890.404236,319
890.520874,310
890.637634,319
890.754211,319
890.87085,315
890.987549,303
891.104187,313
891.220886,309
891.337463,314
891.454102,311
891.57074,310
891.687378,325
891.804077,311
891.920654,312
892.037231,313
892.15387,312
892.270447,324
892.387085,314
892.503723,328
892.6203,302
892.736877,320
892.853516,307
892.970032,310
893.08667,315
893.203186,332
893.319763,307
893.43634,314
893.552917,310
893.669556,315
893.786011,306
893.902588,323
894.019165,320
894.135681,315
894.252197,317
894.368835,335
894.485291,314
894.601868,331
894.718384,320
894.8349,307
894.951355,333
895.067932,316
895.184448,317
895.300964,319
895.417419,299
895.533936,321
895.650452,311
895.766907,326
895.883423,315
895.999878,308
896.116333,328
896.232849,320
896.349304,310
896.465759,328
896.582214,323
896.698669,311
896.815125,305
896.931641,316
897.048035,319
897.164551,323
897.280884,321
897.397339,309
897.513794,325
897.630249,330
897.746582,309
897.863098,330
897.979431,311
898.095886,328
898.212341,319
898.328674,327
898.445129,315
898.561462,310
898.677795,329
898.794312,305
898.910645,310
899.026978,306
899.143433,316
899.259766,326
899.37616,300
899.492493,329
899.608765,314
899.725159,320
899.841553,328
899.957947,310
900.07428,323
900.190552,321
900.306946,316
900.423157,345
900.53949,322
900.655884,317
900.772156,328
900.888489,323
901.004822,314
901.121033,328
901.237366,302
901.353699,318
901.46991,324
901.586304,323
901.702515,317
901.818787,318
901.93512,307
902.051331,316
902.167603,306
902.283875,316
902.400085,318
902.516418,318
902.632629,316
902.74884,317
902.865112,324
902.981384,322
903.097595,318
903.213867,302
903.330017,309
903.446289,324
903.5625,307
903.67865,321
903.794922,301
903.911072,313
904.027344,303
904.143494,316
904.259705,316
904.375916,317
904.492065,309
904.608215,323
904.724426,316
904.840576,312
904.956726,316
905.072876,319
905.189087,315
905.305176,315
905.421387,332
905.537537,325
905.653687,313
905.769775,307
905.885925,318
906.002014,320
906.118164,318
906.234314,321
906.350403,318
906.466492,314
906.582642,313
906.69873,323
906.814758,317
906.930908,319
907.046936,301
907.163086,334
907.279175,334
907.395264,325
907.511353,318
907.62738,319
907.743408,321
907.859497,320
907.975525,315
908.091553,322
908.207703,318
908.32373,316
908.439758,322
908.555786,323
908.671814,315
908.787842,317
908.90387,307
909.019775,318
909.135864,301
909.251892,320
909.367859,322
909.483826,329
909.599854,306
909.715881,331
909.831848,320
909.947815,317
910.063782,314
910.179749,325
910.295776,325
910.411743,317
910.527649,311
910.643616,316
910.759583,319
910.875488,330
910.991455,311
911.107361,324
911.223267,311
911.339294,318
911.4552,309
911.571106,321
911.687073,318
911.802979,319
911.918823,322
912.034729,318
912.150635,317
912.266602,325
912.382446,298
912.498352,324
912.614197,306
912.730103,321
912.846008,303
