792.44574,307
792.56488,361
792.68396,386
792.80304,362
792.92218,331
793.041199,313
793.160339,318
793.279419,331
793.398499,338
793.517578,312
793.636658,311
793.755737,336
793.874817,347
793.993896,342
794.112976,322
794.232056,326
794.351074,316
794.470215,325
794.589233,334
794.708313,328
794.827393,333
794.946411,326
795.065552,346
795.18457,330
795.303589,326
795.422668,330
795.541687,343
795.660767,337
795.779846,327
795.898865,331
796.017883,329
796.136963,316
796.255981,331
796.375061,328
796.49408,336
796.613037,332
796.732117,316
796.851135,340
796.970154,326
797.089233,346
797.208191,312
797.327271,325
797.446228,337
797.565186,328
797.684265,322
797.803223,334
797.922241,329
798.04126,332
798.160278,334
798.279297,343
798.398315,319
798.517273,339
798.636292,328
798.75531,333
798.874268,322
798.993286,323
799.112244,340
799.231323,320
799.350281,323
799.469238,347
799.588257,327
799.707153,333
799.826111,327
799.945129,328
800.064087,322
800.183044,326
800.302063,335
800.421021,338
800.539978,321
800.658936,336
800.777893,330
800.896912,324
801.015747,338
801.134705,314
801.253723,330
801.37262,326
801.491638,329
801.610535,327
801.729492,318
801.84845,333
801.967407,317
802.086243,312
802.205261,336
802.324158,325
802.443115,324
802.562073,320
802.680969,342
802.799927,323
802.918762,326
803.037659,326
803.156677,328
803.275574,326
803.39447,324
803.513428,329
803.632263,329
803.751221,328
803.870117,339
803.989014,311
804.107971,318
804.226746,337
804.345642,335
804.4646,340
804.583496,340
804.702393,339
804.821228,318
804.940125,341
805.059021,320
805.177917,337
805.296814,322
805.415649,334
805.534546,295
805.653442,319
805.772278,321
805.891113,336
806.01001,323
806.128906,334
806.247742,338
806.366577,321
806.485413,321
806.604309,347
806.723145,327
806.84198,329
806.960876,350
807.079712,327
807.198486,332
807.317383,326
807.436218,338
807.554993,312
807.673889,321
807.792725,327
807.91156,314
808.030396,332
808.14917,342
808.268005,321
808.386841,333
808.505676,335
808.624451,335
808.743286,325
808.862122,331
808.980896,323
809.099731,316
809.218506,339
809.337341,330
809.456116,314
809.57489,331
809.693726,335
809.8125,331
809.931274,330
810.050049,341
810.168884,325
810.287659,335
810.406372,347
810.525269,344
810.643982,343
810.762756,328
810.881531,336
811.000305,325
811.11908,334
811.237854,331
811.356567,335
811.475403,334
811.594116,320
811.71283,338
811.831604,327
811.950378,336
812.069153,339
812.187927,336
812.30658,341
812.425415,326
812.544128,344
812.662781,330
812.781616,325
812.900269,346
813.019043,303
813.137756,333
813.256531,335
813.375244,328
813.493896,330
813.612671,324
813.731384,334
813.850037,325
813.96875,332
814.087524,328
814.206238,319
814.324951,320
814.443604,330
814.562256,337
814.68103,332
814.799683,331
814.918335,338
815.037109,326
815.155762,327
815.274475,329
815.393188,328
815.511841,350
815.630554,328
815.749146,325
815.867859,323
815.986572,330
816.105164,335
816.223877,343
816.342529,329
816.461182,343
816.579895,320
816.698486,320
816.817139,326
816.935791,337
817.054504,324
817.173096,342
817.291748,342
817.4104,320
817.529053,334
817.647644,327
817.766235,337
817.884949,330
818.00354,320
818.122192,324
818.240845,316
818.359436,327
818.478088,333
818.59668,329
818.715271,324
818.833923,317
818.952515,337
819.071106,313
819.189758,331
819.30835,320
819.426941,316
819.545532,315
819.664124,324
819.782715,298
819.901306,319
820.019897,316
820.138489,323
820.25708,322
820.375671,326
820.494202,316
820.612732,317
820.731384,316
820.849915,323
820.968506,308
821.087097,333
821.205627,324
821.324158,316
821.442749,319
821.561279,321
821.679871,321
821.798401,321
821.916931,319
822.035461,331
822.154053,320
822.272583,331
822.391174,325
822.509583,316
822.628174,323
822.746704,323
822.865234,320
822.983765,316
823.102295,316
823.220825,312
823.339294,319
823.457825,307
823.576355,313
823.694824,321
823.813354,328
823.931885,332
824.050354,321
824.168884,317
824.287354,319
824.405823,338
824.524353,323
824.642822,322
824.761353,314
824.879822,317
824.998291,327
825.116699,329
825.235291,314
825.353699,324
825.472168,319
825.590637,312
825.709106,305
825.827576,319
825.946045,316
826.064453,317
826.182983,323
826.301392,314
826.4198,332
826.53833,324
826.656738,318
826.775208,312
826.893677,314
827.012024,310
827.130493,312
827.248962,316
827.36731,329
827.485779,316
827.604248,313
827.722595,321
827.841064,309
827.959412,323
828.077942,311
828.196289,312
828.314636,305
828.433105,323
828.551514,306
828.669861,321
828.78833,297
828.906677,315
829.025085,306
829.143433,311
829.261841,313
829.38031,308
829.498657,316
829.617004,309
829.735413,326
829.85376,321
829.972107,304
830.090515,330
830.208862,321
830.327209,308
830.445557,310
830.563904,319
830.682312,304
830.800659,311
830.919006,311
831.037354,309
831.155701,310
831.274048,309
831.392395,310
831.51062,319
831.629028,309
831.747314,331
831.865662,296
831.984009,337
832.102356,314
832.220642,321
832.338928,310
832.457275,319
832.575623,317
832.693909,302
832.812134,310
832.930481,328
833.048828,309
833.167114,316
833.2854,304
833.403687,312
833.521973,320
833.640259,315
833.758545,312
833.876831,322
833.995056,306
834.113281,311
834.231628,315
834.349915,321
834.468201,316
834.586426,318
834.704651,321
834.822998,307
834.941162,306
835.059448,319
835.177673,309
835.295959,309
835.414246,318
835.53241,321
835.650635,309
835.768921,313
835.887146,319
836.005371,335
836.123596,317
836.241821,315
836.360046,319
836.478271,323
836.596497,314
836.714722,314
836.832886,322
836.95105,336
837.069336,320
837.1875,323
837.305725,311
837.423889,318
837.542053,317
837.660339,329
837.778503,324
837.896667,310
838.014832,310
838.132996,305
838.25116,305
838.369385,316
838.487488,321
838.605713,322
838.723877,314
838.84198,308
838.960205,301
839.078308,324
839.196472,315
839.314636,329
839.4328,315
839.550964,330
839.669067,309
839.787231,318
839.905396,318
840.023499,329
840.141602,306
840.259766,326
840.377869,336
840.495972,320
840.614136,317
840.732239,308
840.850342,305
840.968445,324
841.086548,323
841.204651,316
841.322754,309
841.440918,319
841.55896,315
841.677002,320
841.795166,309
841.913208,321
842.031311,314
842.149353,316
842.267456,315
842.385498,306
842.503601,308
842.621643,303
842.739746,319
842.857788,319
842.97583,300
843.093933,315
843.211975,297
843.330017,317
843.44812,297
843.566101,334
843.684204,316
843.802246,309
843.920227,311
844.038269,326
844.156311,307
844.274292,322
844.392395,310
844.510376,313
844.628357,300
844.74646,323
844.864441,314
844.982422,310
845.100403,306
845.218384,331
845.336426,316
845.454468,327
845.572449,315
845.69043,310
845.808411,325
845.926453,323
846.044373,308
846.162354,315
846.280396,318
846.398315,312
846.516296,320
846.634216,320
846.752197,308
846.870178,319
846.988098,307
847.106079,314
847.22406,317
847.34198,314
847.4599,307
847.577881,310
847.695801,322
847.813782,320
847.931641,309
848.049561,326
848.167603,322
848.285461,326
848.403381,315
848.521362,308
848.639221,316
848.75708,313
848.875,316
848.99292,313
849.110901,324
849.22876,305
849.34668,310
849.464539,313
849.582458,314
849.700317,310
849.818176,322
849.936096,305
850.053955,315
850.171875,308
850.289673,314
850.407593,319
850.525452,315
850.643311,321
850.761169,303
850.878967,319
850.996887,321
851.114746,327
851.232544,303
851.350403,320
851.468262,307
851.58606,317
851.703979,302
851.821777,331
851.939636,317
852.057434,308
852.175232,315
852.293091,328
852.410889,325
852.528687,316
852.646545,305
852.764343,319
852.88208,302
852.999939,314
853.117676,319
853.235535,310
853.353271,317
853.471069,315
853.588928,312
853.706604,318
853.824402,316
853.9422,317
854.059998,308
854.177734,306
854.295532,308
854.413269,310
854.531006,332
854.648804,321
854.766541,326
854.884277,306
855.002014,314
855.119751,329
855.237549,314
855.355225,317
855.473022,322
855.590698,317
855.708435,307
855.826172,318
855.943848,315
856.061646,321
856.179321,318
856.296997,319
856.414795,311
856.53241,312
856.650085,307
856.767822,308
856.885559,309
857.003174,316
857.120911,328
857.238586,305
857.356201,326
857.473938,294
857.591614,313
857.709351,315
857.826965,314
857.944641,312
858.062317,316
858.179993,318
858.297668,325
858.415283,325
858.532959,314
858.650574,321
858.768188,307
858.885803,299
859.003479,323
859.121094,294
859.23877,321
859.356384,314
859.473999,317
859.591675,317
859.709229,311
859.826843,325
859.944458,308
860.062012,310
860.179626,312
860.297302,311
860.414856,302
860.532471,312
860.650024,320
860.767639,321
860.885193,304
861.002808,303
861.120361,308
861.237976,324
861.35553,314
861.473022,314
861.590698,325
861.708191,311
861.825745,323
861.943298,309
862.060852,318
862.178406,311
862.295959,303
862.413513,317
862.531006,316
862.64856,309
862.766113,303
862.883667,310
863.00116,310
863.118713,324
863.236206,315
863.353699,321
863.471252,311
863.588745,315
863.706177,324
863.82373,307
863.941162,304
864.058716,316
864.176208,319
864.29364,312
864.411194,314
864.528687,316
864.646118,315
864.763611,328
864.881042,309
864.998535,324
865.116028,326
865.233459,310
865.350891,322
865.468384,310
865.585754,328
865.703308,309
865.820679,303
865.938171,323
866.055542,309
866.173035,310
866.290466,320
866.407837,312
866.52533,309
866.6427,320
866.760071,311
866.877563,314
866.994934,309
867.112305,316
867.229736,312
867.347107,308
867.464539,319
867.58197,312
867.699341,309
867.81665,313
867.934082,303
868.051453,315
868.168823,326
868.286194,327
868.403564,326
868.520935,319
868.638306,322
868.755676,306
868.872986,321
868.990295,308
869.107727,318
869.225037,299
869.342346,313
869.459717,310
869.577026,325
869.694336,317
869.811707,316
869.929016,325
870.046326,314
870.163635,322
870.280945,317
870.398254,326
870.515564,309
870.632812,322
870.750183,315
870.867432,318
870.984741,316
871.102051,320
871.219299,311
871.336609,309
871.453918,308
871.571106,323
871.688416,312
871.805664,318
871.922852,308
872.040222,312
872.157471,309
872.274719,310
872.391968,316
872.509155,313
872.626465,312
872.743652,327
872.860962,319
872.978149,313
873.095337,314
873.212646,312
873.329834,322
873.44696,315
873.564209,316
873.681396,305
873.798645,321
873.915894,316
874.03302,316
874.150208,320
874.267456,319
874.384583,312
874.501831,315
874.618958,312
874.736145,319
874.853333,320
874.970459,310
875.087646,315
875.204834,306
875.32196,318
875.439148,308
875.556274,321
875.673401,304
875.790527,322
875.907715,309
876.024841,304
876.141968,311
876.259094,311
876.376282,318
876.493347,310
876.610474,309
876.7276,316
876.844727,316
876.961853,316
877.078918,319
877.195984,315
877.313171,293
877.430237,327
877.547302,329
877.664368,317
877.781433,314
877.898499,320
878.015625,299
878.13269,323
878.249695,318
878.366821,313
878.483887,318
878.600952,326
878.717957,316
878.834961,319
878.952087,301
879.069092,316
879.186157,310
879.303162,323
879.420227,321
879.537231,309
879.654236,314
879.77124,307
879.888306,305
880.005249,314
880.122314,304
880.239319,323
880.356323,313
880.473328,322
880.590271,318
880.707275,313
880.824341,303
880.941284,312
881.058228,315
881.175232,326
881.292236,312
881.40918,314
881.526123,304
881.643066,312
881.760071,311
881.877014,322
881.993958,307
882.11084,322
882.227783,311
882.344727,320
882.46167,296
882.578613,311
882.695618,308
882.812439,316
882.929382,304
883.046326,319
883.163208,309
883.280151,310
883.397034,300
883.513916,327
883.630798,322
883.747742,316
883.864563,322
883.981506,319
884.098389,309
884.21521,316
884.332153,320
884.448975,314
884.565796,318
884.682678,309
884.7995,310
884.916443,307
885.033264,307
885.150085,310
885.266968,310
885.383789,322
885.500671,316
885.617493,325
885.734314,308
885.851196,309
885.967896,324
886.084717,308
886.201599,317
886.318359,300
886.435181,309
886.552002,316
886.668762,313
886.785645,313
886.902344,303
887.019165,302
887.135925,318
887.252747,324
887.369446,308
887.486267,320
887.603027,311
887.719788,315
887.836548,316
887.953247,306
888.070068,300
888.186829,311
888.303528,297
888.420288,312
888.536987,318
888.653687,316
888.770447,315
888.887146,306
889.003967,307
889.120667,305
889.237305,316
889.354065,321
889.470703,321
889.587463,317
889.704163,331
889.820862,319
889.937561,324
890.054199,314
890.170837,297
890.287598,317
890.404236,308
890.520874,319
890.637634,313
890.754211,319
890.87085,309
890.987549,320
891.104187,309
891.220886,324
891.337463,317
891.454102,321
891.57074,311
891.687378,316
891.804077,322
891.920654,311
892.037231,315
892.15387,331
892.270447,310
892.387085,315
892.503723,312
892.6203,312
892.736877,312
892.853516,315
892.970032,322
893.08667,312
893.203186,318
893.319763,291
893.43634,318
893.552917,313
893.669556,296
893.786011,319
893.902588,323
894.019165,329
894.135681,323
894.252197,317
894.368835,326
894.485291,313
894.601868,323
894.718384,321
894.8349,312
894.951355,335
895.067932,320
895.184448,308
895.300964,311
895.417419,320
895.533936,304
895.650452,302
895.766907,318
895.883423,335
895.999878,316
896.116333,328
896.232849,311
896.349304,303
896.465759,320
896.582214,311
896.698669,317
896.815125,320
896.931641,323
897.048035,313
897.164551,313
897.280884,318
897.397339,313
897.513794,315
897.630249,311
897.746582,328
897.863098,309
897.979431,306
898.095886,314
898.212341,320
898.328674,311
898.445129,320
898.561462,309
898.677795,318
898.794312,316
898.910645,304
899.026978,310
899.143433,308
899.259766,321
899.37616,330
899.492493,310
899.608765,317
899.725159,310
899.841553,316
899.957947,305
900.07428,318
900.190552,315
900.306946,313
900.423157,318
900.53949,323
900.655884,311
900.772156,315
900.888489,320
901.004822,321
901.121033,322
901.237366,314
901.353699,328
901.46991,325
901.586304,328
901.702515,329
901.818787,319
901.93512,319
902.051331,302
902.167603,319
902.283875,314
902.400085,316
902.516418,310
902.632629,313
902.74884,318
902.865112,327
902.981384,314
903.097595,325
903.213867,308
903.330017,310
903.446289,311
903.5625,325
903.67865,322
903.794922,307
903.911072,320
904.027344,318
904.143494,306
904.259705,308
904.375916,314
904.492065,312
904.608215,311
904.724426,324
904.840576,317
904.956726,331
905.072876,307
905.189087,308
905.305176,309
905.421387,318
905.537537,314
905.653687,313
905.769775,325
905.885925,314
906.002014,311
906.118164,314
906.234314,322
906.350403,322
906.466492,318
906.582642,306
906.69873,306
906.814758,322
906.930908,308
907.046936,315
907.163086,314
907.279175,312
907.395264,317
907.511353,319
907.62738,316
907.743408,317
907.859497,305
907.975525,329
908.091553,318
908.207703,336
908.32373,321
908.439758,323
908.555786,316
908.671814,323
908.787842,308
908.90387,330
909.019775,300
909.135864,317
909.251892,309
909.367859,326
909.483826,313
909.599854,316
909.715881,310
909.831848,320
909.947815,304
910.063782,319
910.179749,325
910.295776,323
910.411743,316
910.527649,313
910.643616,329
910.759583,331
910.875488,337
910.991455,307
911.107361,308
911.223267,320
911.339294,320
911.4552,328
911.571106,319
911.687073,317
911.802979,315
911.918823,329
912.034729,307
912.150635,334
912.266602,316
912.382446,317
912.498352,307
912.614197,328
912.730103,309
912.846008,327
792.44574,312
792.56488,348
792.68396,409
792.80304,361
792.92218,337
793.041199,308
793.160339,316
793.279419,346
793.398499,323
793.517578,309
793.636658,312
793.755737,339
793.874817,339
793.993896,349
794.112976,330
794.232056,324
794.351074,338
794.470215,343
794.589233,331
794.708313,336
794.827393,315
794.946411,328
795.065552,329
795.18457,319
795.303589,342
795.422668,343
795.541687,334
795.660767,328
795.779846,333
795.898865,327
796.017883,329
796.136963,340
796.255981,340
796.375061,326
796.49408,337
796.613037,337
796.732117,332
796.851135,323
796.970154,328
797.089233,319
797.208191,329
797.327271,326
797.446228,331
797.565186,324
797.684265,338
797.803223,328
797.922241,333
798.04126,314
798.160278,336
798.279297,318
798.398315,322
798.517273,336
798.636292,338
798.75531,329
798.874268,333
798.993286,317
799.112244,335
799.231323,326
799.350281,332
799.469238,333
799.588257,326
799.707153,322
799.826111,331
799.945129,334
800.064087,341
800.183044,331
800.302063,353
800.421021,326
800.539978,328
800.658936,333
800.777893,327
800.896912,320
801.015747,334
801.134705,331
801.253723,330
801.37262,329
801.491638,347
801.610535,331
801.729492,326
801.84845,343
801.967407,328
802.086243,331
802.205261,321
802.324158,330
802.443115,322
802.562073,330
802.680969,346
802.799927,331
802.918762,325
803.037659,325
803.156677,324
803.275574,320
803.39447,347
803.513428,309
803.632263,351
803.751221,330
803.870117,334
803.989014,320
804.107971,335
804.226746,331
804.345642,313
804.4646,325
804.583496,333
804.702393,320
804.821228,331
804.940125,322
805.059021,341
805.177917,328
805.296814,328
805.415649,331
805.534546,339
805.653442,331
805.772278,334
805.891113,321
806.01001,355
806.128906,324
806.247742,343
806.366577,330
806.485413,323
806.604309,321
806.723145,331
806.84198,349
806.960876,336
807.079712,323
807.198486,332
807.317383,342
807.436218,332
807.554993,336
807.673889,324
807.792725,323
807.91156,307
808.030396,334
808.14917,337
808.268005,325
808.386841,340
808.505676,322
808.624451,343
808.743286,316
808.862122,333
808.980896,324
809.099731,321
809.218506,345
809.337341,320
809.456116,342
809.57489,331
809.693726,332
809.8125,330
809.931274,341
810.050049,322
810.168884,344
810.287659,342
810.406372,326
810.525269,326
810.643982,334
810.762756,344
810.881531,345
811.000305,346
811.11908,319
811.237854,330
811.356567,332
811.475403,343
811.594116,345
811.71283,339
811.831604,321
811.950378,344
812.069153,329
812.187927,345
812.30658,354
812.425415,343
812.544128,338
812.662781,334
812.781616,337
812.900269,339
813.019043,336
813.137756,348
813.256531,327
813.375244,323
813.493896,334
813.612671,335
813.731384,322
813.850037,322
813.96875,327
814.087524,323
814.206238,339
814.324951,344
814.443604,324
814.562256,338
814.68103,331
814.799683,330
814.918335,340
815.037109,335
815.155762,333
815.274475,337
815.393188,343
815.511841,334
815.630554,331
815.749146,340
815.867859,329
815.986572,346
816.105164,337
816.223877,324
816.342529,343
816.461182,334
816.579895,338
816.698486,333
816.817139,308
816.935791,335
817.054504,337
817.173096,332
817.291748,330
817.4104,335
817.529053,314
817.647644,340
817.766235,324
817.884949,318
818.00354,320
818.122192,330
818.240845,332
818.359436,323
818.478088,330
818.59668,321
818.715271,325
818.833923,315
818.952515,320
819.071106,322
819.189758,321
819.30835,309
819.426941,321
819.545532,323
819.664124,300
819.782715,320
819.901306,319
820.019897,326
820.138489,336
820.25708,321
820.375671,326
820.494202,338
820.612732,322
820.731384,326
820.849915,301
820.968506,313
821.087097,317
821.205627,311
821.324158,329
821.442749,325
821.561279,308
821.679871,315
821.798401,323
821.916931,310
822.035461,319
822.154053,324
822.272583,307
822.391174,325
822.509583,307
822.628174,318
822.746704,323
822.865234,318
822.983765,314
823.102295,313
823.220825,303
823.339294,318
823.457825,314
823.576355,326
823.694824,311
823.813354,318
823.931885,324
824.050354,313
824.168884,326
824.287354,323
824.405823,317
824.524353,324
824.642822,316
824.761353,317
824.879822,323
824.998291,311
825.116699,308
825.235291,323
825.353699,317
825.472168,329
825.590637,320
825.709106,322
825.827576,312
825.946045,336
826.064453,317
826.182983,329
826.301392,304
826.4198,318
826.53833,316
826.656738,326
826.775208,309
826.893677,322
827.012024,321
827.130493,317
827.248962,312
827.36731,328
827.485779,313
827.604248,324
827.722595,296
827.841064,316
827.959412,324
828.077942,314
828.196289,315
828.314636,316
828.433105,313
828.551514,319
828.669861,319
828.78833,322
828.906677,312
829.025085,325
829.143433,308
829.261841,337
829.38031,320
829.498657,322
829.617004,321
829.735413,321
829.85376,317
829.972107,319
830.090515,327
830.208862,317
830.327209,312
830.445557,321
830.563904,312
830.682312,317
830.800659,321
830.919006,318
831.037354,318
831.155701,319
831.274048,312
831.392395,315
831.51062,315
831.629028,327
831.747314,315
831.865662,323
831.984009,311
832.102356,314
832.220642,313
832.338928,306
832.457275,300
832.575623,320
832.693909,322
832.812134,317
832.930481,312
833.048828,319
833.167114,323
833.2854,328
833.403687,315
833.521973,323
833.640259,313
833.758545,311
833.876831,312
833.995056,314
834.113281,312
834.231628,319
834.349915,301
834.468201,311
834.586426,319
834.704651,329
834.822998,307
834.941162,322
835.059448,313
835.177673,314
835.295959,313
835.414246,314
835.53241,319
835.650635,324
835.768921,313
835.887146,307
836.005371,320
836.123596,307
836.241821,320
836.360046,330
836.478271,314
836.596497,316
836.714722,317
836.832886,318
836.95105,317
837.069336,319
837.1875,318
837.305725,308
837.423889,326
837.542053,316
837.660339,325
837.778503,313
837.896667,306
838.014832,319
838.132996,312
838.25116,300
838.369385,316
838.487488,312
838.605713,322
838.723877,320
838.84198,331
838.960205,322
839.078308,317
839.196472,326
839.314636,318
839.4328,318
839.550964,315
839.669067,314
839.787231,316
839.905396,318
840.023499,317
840.141602,309
840.259766,314
840.377869,308
840.495972,309
840.614136,317
840.732239,310
840.850342,302
840.968445,301
841.086548,320
841.204651,319
841.322754,319
841.440918,305
841.55896,320
841.677002,303
841.795166,298
841.913208,315
842.031311,309
842.149353,319
842.267456,319
842.385498,315
842.503601,334
842.621643,322
842.739746,316
842.857788,306
842.97583,331
843.093933,303
843.211975,319
843.330017,311
843.44812,303
843.566101,320
843.684204,317
843.802246,311
843.920227,310
844.038269,300
844.156311,324
844.274292,328
844.392395,318
844.510376,311
844.628357,322
844.74646,317
844.864441,319
844.982422,312
845.100403,313
845.218384,314
845.336426,319
845.454468,313
845.572449,320
845.69043,312
845.808411,331
845.926453,310
846.044373,318
846.162354,311
846.280396,314
846.398315,314
846.516296,321
846.634216,317
846.752197,307
846.870178,318
846.988098,321
847.106079,310
847.22406,326
847.34198,318
847.4599,323
847.577881,312
847.695801,321
847.813782,308
847.931641,319
848.049561,321
848.167603,318
848.285461,308
848.403381,326
848.521362,314
848.639221,323
848.75708,316
848.875,324
848.99292,312
849.110901,313
849.22876,326
849.34668,325
849.464539,305
849.582458,328
849.700317,316
849.818176,304
849.936096,311
850.053955,321
850.171875,314
850.289673,303
850.407593,318
850.525452,321
850.643311,315
850.761169,308
850.878967,311
850.996887,314
851.114746,313
851.232544,329
851.350403,313
851.468262,322
851.58606,317
851.703979,319
851.821777,323
851.939636,325
852.057434,311
852.175232,306
852.293091,316
852.410889,326
852.528687,318
852.646545,311
852.764343,331
852.88208,313
852.999939,311
853.117676,326
853.235535,305
853.353271,316
853.471069,311
853.588928,321
853.706604,302
853.824402,307
853.9422,311
854.059998,308
854.177734,312
854.295532,315
854.413269,312
854.531006,311
854.648804,317
854.766541,319
854.884277,311
855.002014,316
855.119751,308
855.237549,321
855.355225,309
855.473022,322
855.590698,305
855.708435,320
855.826172,307
855.943848,308
856.061646,326
856.179321,318
856.296997,313
856.414795,319
856.53241,321
856.650085,316
856.767822,296
856.885559,320
857.003174,315
857.120911,319
857.238586,315
857.356201,320
857.473938,304
857.591614,324
857.709351,318
857.826965,319
857.944641,302
858.062317,319
858.179993,313
858.297668,312
858.415283,307
858.532959,325
858.650574,311
858.768188,315
858.885803,324
859.003479,320
859.121094,320
859.23877,324
859.356384,324
859.473999,328
859.591675,321
859.709229,308
859.826843,309
859.944458,319
860.062012,312
860.179626,312
860.297302,311
860.414856,311
860.532471,310
860.650024,327
860.767639,314
860.885193,326
861.002808,312
861.120361,309
861.237976,309
861.35553,315
861.473022,310
861.590698,313
861.708191,307
861.825745,322
861.943298,314
862.060852,317
862.178406,318
862.295959,321
862.413513,328
862.531006,314
862.64856,316
862.766113,307
862.883667,313
863.00116,310
863.118713,303
863.236206,299
863.353699,314
863.471252,311
863.588745,315
863.706177,309
863.82373,317
863.941162,330
864.058716,306
864.176208,318
864.29364,320
864.411194,309
864.528687,310
864.646118,328
864.763611,317
864.881042,312
864.998535,317
865.116028,317
865.233459,321
865.350891,313
865.468384,305
865.585754,320
865.703308,319
865.820679,313
865.938171,315
866.055542,316
866.173035,302
866.290466,317
866.407837,309
866.52533,315
866.6427,317
866.760071,315
866.877563,316
866.994934,325
867.112305,312
867.229736,330
867.347107,314
867.464539,328
867.58197,305
867.699341,331
867.81665,309
867.934082,323
868.051453,313
868.168823,309
868.286194,330
868.403564,320
868.520935,307
868.638306,320
868.755676,303
868.872986,323
868.990295,305
869.107727,307
869.225037,327
869.342346,311
869.459717,314
869.577026,327
869.694336,304
869.811707,330
869.929016,314
870.046326,317
870.163635,314
870.280945,324
870.398254,311
870.515564,326
870.632812,308
870.750183,315
870.867432,306
870.984741,312
871.102051,309
871.219299,317
871.336609,312
871.453918,317
871.571106,319
871.688416,325
871.805664,323
871.922852,324
872.040222,318
872.157471,312
872.274719,320
872.391968,321
872.509155,328
872.626465,320
872.743652,326
872.860962,304
872.978149,303
873.095337,326
873.212646,306
873.329834,308
873.44696,330
873.564209,317
873.681396,309
873.798645,322
873.915894,310
874.03302,316
874.150208,321
874.267456,311
874.384583,321
874.501831,321
874.618958,304
874.736145,321
874.853333,317
874.970459,315
875.087646,318
875.204834,316
875.32196,311
875.439148,307
875.556274,311
875.673401,317
875.790527,303
875.907715,323
876.024841,302
876.141968,314
876.259094,321
876.376282,311
876.493347,314
876.610474,318
876.7276,312
876.844727,329
876.961853,310
877.078918,309
877.195984,312
877.313171,321
877.430237,305
877.547302,317
877.664368,325
877.781433,309
877.898499,302
878.015625,315
878.13269,320
878.249695,315
878.366821,326
878.483887,315
878.600952,317
878.717957,327
878.834961,314
878.952087,312
879.069092,304
879.186157,325
879.303162,310
879.420227,330
879.537231,299
879.654236,301
879.77124,321
879.888306,317
880.005249,311
880.122314,330
880.239319,304
880.356323,322
880.473328,291
880.590271,320
880.707275,308
880.824341,326
880.941284,320
881.058228,333
881.175232,308
881.292236,313
881.40918,315
881.526123,315
881.643066,312
881.760071,319
881.877014,305
881.993958,318
882.11084,327
882.227783,315
882.344727,309
882.46167,303
882.578613,304
882.695618,323
882.812439,305
882.929382,322
883.046326,318
883.163208,329
883.280151,316
883.397034,307
883.513916,316
883.630798,329
883.747742,324
883.864563,325
883.981506,323
884.098389,333
884.21521,322
884.332153,311
884.448975,320
884.565796,302
884.682678,319
884.7995,325
884.916443,308
885.033264,320
885.150085,315
885.266968,324
885.383789,323
885.500671,316
885.617493,314
885.734314,317
885.851196,303
885.967896,314
886.084717,310
886.201599,322
886.318359,314
886.435181,334
886.552002,318
886.668762,302
886.785645,319
886.902344,318
887.019165,320
887.135925,306
887.252747,306
887.369446,306
887.486267,321
887.603027,320
887.719788,296
887.836548,319
887.953247,301
888.070068,321
888.186829,314
888.303528,323
888.420288,303
888.536987,311
888.653687,307
888.770447,327
888.887146,313
889.003967,311
889.120667,322
889.237305,323
889.354065,320
889.470703,315
889.587463,321
889.704163,317
889.820862,303
889.937561,328
890.054199,311
890.170837,323
890.287598,294
890.404236,328
890.520874,315
890.637634,312
890.754211,306
890.87085,308
890.987549,306
891.104187,323
891.220886,321
891.337463,309
891.454102,316
891.57074,326
891.687378,310
891.804077,324
891.920654,308
892.037231,314
892.15387,308
892.270447,335
892.387085,318
892.503723,310
892.6203,320
892.736877,308
892.853516,309
892.970032,319
893.08667,316
893.203186,314
893.319763,318
893.43634,332
893.552917,322
893.669556,320
893.786011,326
893.902588,303
894.019165,323
894.135681,318
894.252197,310
894.368835,312
894.485291,308
894.601868,324
894.718384,316
894.8349,319
894.951355,320
895.067932,319
895.184448,318
895.300964,316
895.417419,308
895.533936,324
895.650452,301
895.766907,326
895.883423,318
895.999878,301
896.116333,321
896.232849,323
896.349304,320
896.465759,333
896.582214,311
896.698669,317
896.815125,311
896.931641,325
897.048035,317
897.164551,318
897.280884,320
897.397339,313
897.513794,317
897.630249,318
897.746582,307
897.863098,311
897.979431,318
898.095886,312
898.212341,317
898.328674,313
898.445129,305
898.561462,315
898.677795,314
898.794312,322
898.910645,315
899.026978,321
899.143433,316
899.259766,316
899.37616,313
899.492493,309
899.608765,324
899.725159,310
899.841553,317
899.957947,316
900.07428,308
900.190552,315
900.306946,302
900.423157,321
900.53949,309
900.655884,319
900.772156,305
900.888489,311
901.004822,316
901.121033,322
901.237366,318
901.353699,309
901.46991,322
901.586304,323
901.702515,311
901.818787,317
901.93512,307
902.051331,315
902.167603,321
902.283875,327
902.400085,298
902.516418,309
902.632629,324
902.74884,323
902.865112,304
902.981384,322
903.097595,308
903.213867,323
903.330017,309
903.446289,319
903.5625,323
903.67865,311
903.794922,314
903.911072,333
904.027344,319
904.143494,312
904.259705,312
904.375916,339
904.492065,307
904.608215,313
904.724426,315
904.840576,319
904.956726,307
905.072876,322
905.189087,322
905.305176,327
905.421387,311
905.537537,309
905.653687,314
905.769775,323
905.885925,309
906.002014,319
906.118164,320
906.234314,321
906.350403,316
906.466492,315
906.582642,319
906.69873,316
906.814758,319
906.930908,318
907.046936,309
907.163086,317
907.279175,313
907.395264,316
907.511353,323
907.62738,318
907.743408,317
907.859497,299
907.975525,317
908.091553,318
908.207703,324
908.32373,309
908.439758,310
908.555786,313
908.671814,328
908.787842,324
908.90387,318
909.019775,317
909.135864,326
909.251892,316
909.367859,310
909.483826,315
909.599854,307
909.715881,331
909.831848,314
909.947815,323
910.063782,305
910.179749,299
910.295776,317
910.411743,312
910.527649,310
910.643616,315
910.759583,309
910.875488,327
910.991455,313
911.107361,323
911.223267,307
911.339294,322
911.4552,318
911.571106,318
911.687073,320
911.802979,325
911.918823,316
912.034729,319
912.150635,324
912.266602,324
912.382446,301
912.498352,308
912.614197,308
912.730103,327
912.846008,310
792.44574,307
792.56488,344
792.68396,396
792.80304,377
792.92218,338
793.041199,326
793.160339,320
793.279419,329
793.398499,326
793.517578,307
793.636658,327
793.755737,335
793.874817,346
793.993896,344
794.112976,331
794.232056,335
794.351074,328
794.470215,325
794.589233,327
794.708313,329
794.827393,315
794.946411,349
795.065552,330
795.18457,345
795.303589,332
795.422668,324
795.541687,326
795.660767,338
795.779846,327
795.898865,333
796.017883,315
796.136963,350
796.255981,330
796.375061,339
796.49408,332
796.613037,329
796.732117,332
796.851135,330
796.970154,344
797.089233,328
797.208191,332
797.327271,331
797.446228,326
797.565186,326
797.684265,353
797.803223,333
797.922241,337
798.04126,318
798.160278,339
798.279297,330
798.398315,326
798.517273,326
798.636292,329
798.75531,328
798.874268,335
798.993286,327
799.112244,328
799.231323,337
799.350281,327
799.469238,327
799.588257,337
799.707153,331
799.826111,334
799.945129,325
800.064087,324
800.183044,320
800.302063,319
800.421021,325
800.539978,330
800.658936,329
800.777893,335
800.896912,333
801.015747,331
801.134705,327
801.253723,336
801.37262,321
801.491638,333
801.610535,315
801.729492,341
801.84845,342
801.967407,326
802.086243,337
802.205261,321
802.324158,333
802.443115,336
802.562073,329
802.680969,338
802.799927,314
802.918762,332
803.037659,323
803.156677,330
803.275574,330
803.39447,317
803.513428,328
803.632263,335
803.751221,329
803.870117,338
803.989014,341
804.107971,327
804.226746,338
804.345642,339
804.4646,328
804.583496,323
804.702393,331
804.821228,322
804.940125,326
805.059021,324
805.177917,326
805.296814,327
805.415649,333
805.534546,328
805.653442,343
805.772278,317
805.891113,329
806.01001,331
806.128906,348
806.247742,314
806.366577,340
806.485413,327
806.604309,325
806.723145,335
806.84198,340
806.960876,343
807.079712,333
807.198486,330
807.317383,326
807.436218,324
807.554993,332
807.673889,334
807.792725,330
807.91156,327
808.030396,336
808.14917,317
808.268005,334
808.386841,330
808.505676,349
808.624451,318
808.743286,339
808.862122,334
808.980896,333
809.099731,326
809.218506,335
809.337341,328
809.456116,333
809.57489,331
809.693726,332
809.8125,340
809.931274,328
810.050049,346
810.168884,321
810.287659,331
810.406372,344
810.525269,330
810.643982,339
810.762756,339
810.881531,342
811.000305,336
811.11908,339
811.237854,325
811.356567,327
811.475403,325
811.594116,337
811.71283,324
811.831604,330
811.950378,317
812.069153,344
812.187927,346
812.30658,320
812.425415,332
812.544128,340
812.662781,326
812.781616,339
812.900269,324
813.019043,327
813.137756,345
813.256531,342
813.375244,336
813.493896,328
813.612671,341
813.731384,324
813.850037,336
813.96875,332
814.087524,325
814.206238,333
814.324951,327
814.443604,332
814.562256,336
814.68103,337
814.799683,334
814.918335,340
815.037109,328
815.155762,329
815.274475,343
815.393188,331
815.511841,327
815.630554,331
815.749146,334
815.867859,328
815.986572,319
816.105164,323
816.223877,337
816.342529,333
816.461182,336
816.579895,340
816.698486,330
816.817139,332
816.935791,335
817.054504,346
817.173096,328
817.291748,340
817.4104,338
817.529053,320
817.647644,323
817.766235,325
817.884949,332
818.00354,338
818.122192,321
818.240845,327
818.359436,320
818.478088,331
818.59668,327
818.715271,324
818.833923,326
818.952515,311
819.071106,317
819.189758,325
819.30835,317
819.426941,322
819.545532,336
819.664124,311
819.782715,322
819.901306,322
820.019897,313
820.138489,328
820.25708,328
820.375671,316
820.494202,318
820.612732,321
820.731384,325
820.849915,311
820.968506,324
821.087097,313
821.205627,324
821.324158,315
821.442749,324
821.561279,322
821.679871,326
821.798401,320
821.916931,308
822.035461,326
822.154053,317
822.272583,328
822.391174,319
822.509583,330
822.628174,327
822.746704,316
822.865234,310
822.983765,327
823.102295,317
823.220825,325
823.339294,322
823.457825,316
823.576355,316
823.694824,310
823.813354,316
823.931885,308
824.050354,330
824.168884,318
824.287354,314
824.405823,323
824.524353,315
824.642822,314
824.761353,316
824.879822,304
824.998291,321
825.116699,317
825.235291,313
825.353699,318
825.472168,324
825.590637,324
825.709106,313
825.827576,301
825.946045,330
826.064453,325
826.182983,326
826.301392,316
826.4198,308
826.53833,310
826.656738,326
826.775208,310
826.893677,308
827.012024,306
827.130493,303
827.248962,313
827.36731,308
827.485779,328
827.604248,325
827.722595,315
827.841064,314
827.959412,326
828.077942,323
828.196289,311
828.314636,315
828.433105,312
828.551514,329
828.669861,328
828.78833,306
828.906677,322
829.025085,316
829.143433,314
829.261841,322
829.38031,324
829.498657,310
829.617004,319
829.735413,310
829.85376,326
829.972107,310
830.090515,327
830.208862,305
830.327209,313
830.445557,326
830.563904,316
830.682312,326
830.800659,309
830.919006,319
831.037354,313
831.155701,312
831.274048,321
831.392395,317
831.51062,308
831.629028,316
831.747314,307
831.865662,324
831.984009,318
832.102356,321
832.220642,322
832.338928,324
832.457275,321
832.575623,309
832.693909,317
832.812134,317
832.930481,323
833.048828,315
833.167114,324
833.2854,323
833.403687,317
833.521973,318
833.640259,313
833.758545,318
833.876831,323
833.995056,320
834.113281,307
834.231628,330
834.349915,312
834.468201,309
834.586426,322
834.704651,324
834.822998,313
834.941162,314
835.059448,306
835.177673,315
835.295959,324
835.414246,309
835.53241,312
835.650635,322
835.768921,334
835.887146,321
836.005371,325
836.123596,332
836.241821,320
836.360046,314
836.478271,322
836.596497,308
836.714722,317
836.832886,330
836.95105,304
837.069336,321
837.1875,323
837.305725,320
837.423889,311
837.542053,316
837.660339,326
837.778503,312
837.896667,315
838.014832,320
838.132996,313
838.25116,312
838.369385,322
838.487488,322
838.605713,312
838.723877,333
838.84198,328
838.960205,305
839.078308,324
839.196472,307
839.314636,320
839.4328,307
839.550964,307
839.669067,323
839.787231,317
839.905396,317
840.023499,321
840.141602,316
840.259766,328
840.377869,306
840.495972,321
840.614136,311
840.732239,326
840.850342,318
840.968445,304
841.086548,326
841.204651,319
841.322754,318
841.440918,318
841.55896,318
841.677002,315
841.795166,314
841.913208,322
842.031311,311
842.149353,318
842.267456,331
842.385498,310
842.503601,317
842.621643,319
842.739746,314
842.857788,318
842.97583,311
843.093933,314
843.211975,313
843.330017,329
843.44812,303
843.566101,320
843.684204,310
843.802246,326
843.920227,324
844.038269,316
844.156311,312
844.274292,313
844.392395,308
844.510376,307
844.628357,301
844.74646,321
844.864441,317
844.982422,319
845.100403,317
845.218384,324
845.336426,312
845.454468,307
845.572449,322
845.69043,307
845.808411,314
845.926453,321
846.044373,305
846.162354,329
846.280396,307
846.398315,315
846.516296,315
846.634216,318
846.752197,310
846.870178,310
846.988098,321
847.106079,300
847.22406,305
847.34198,306
847.4599,322
847.577881,318
847.695801,318
847.813782,321
847.931641,298
848.049561,306
848.167603,325
848.285461,312
848.403381,323
848.521362,311
848.639221,304
848.75708,309
848.875,316
848.99292,323
849.110901,309
849.22876,310
849.34668,323
849.464539,322
849.582458,314
849.700317,323
849.818176,322
849.936096,312
850.053955,314
850.171875,320
850.289673,323
850.407593,317
850.525452,312
850.643311,321
850.761169,316
850.878967,318
850.996887,296
851.114746,319
851.232544,324
851.350403,317
851.468262,299
851.58606,320
851.703979,319
851.821777,311
851.939636,306
852.057434,319
852.175232,306
852.293091,318
852.410889,315
852.528687,308
852.646545,314
852.764343,313
852.88208,319
852.999939,306
853.117676,317
853.235535,313
853.353271,315
853.471069,307
853.588928,312
853.706604,318
853.824402,320
853.9422,327
854.059998,307
854.177734,306
854.295532,307
854.413269,311
854.531006,323
854.648804,320
854.766541,308
854.884277,326
855.002014,310
855.119751,301
855.237549,330
855.355225,331
855.473022,292
855.590698,314
855.708435,312
855.826172,304
855.943848,317
856.061646,312
856.179321,309
856.296997,313
856.414795,319
856.53241,328
856.650085,312
856.767822,307
856.885559,311
857.003174,311
857.120911,318
857.238586,306
857.356201,325
857.473938,322
857.591614,313
857.709351,331
857.826965,317
857.944641,319
858.062317,315
858.179993,318
858.297668,328
858.415283,312
858.532959,323
858.650574,316
858.768188,318
858.885803,315
859.003479,321
859.121094,313
859.23877,315
859.356384,313
859.473999,321
859.591675,326
859.709229,314
859.826843,316
859.944458,327
860.062012,312
860.179626,310
860.297302,318
860.414856,317
860.532471,312
860.650024,316
860.767639,319
860.885193,312
861.002808,315
861.120361,310
861.237976,317
861.35553,324
861.473022,303
861.590698,310
861.708191,316
861.825745,307
861.943298,328
862.060852,310
862.178406,322
862.295959,317
862.413513,322
862.531006,315
862.64856,328
862.766113,303
862.883667,329
863.00116,318
863.118713,316
863.236206,328
863.353699,327
863.471252,311
863.588745,325
863.706177,311
863.82373,312
863.941162,314
864.058716,308
864.176208,305
864.29364,323
864.411194,317
864.528687,310
864.646118,305
864.763611,329
864.881042,307
864.998535,319
865.116028,299
865.233459,318
865.350891,320
865.468384,325
865.585754,318
865.703308,311
865.820679,317
865.938171,320
866.055542,325
866.173035,313
866.290466,312
866.407837,312
866.52533,309
866.6427,309
866.760071,309
866.877563,313
866.994934,311
867.112305,315
867.229736,304
867.347107,322
867.464539,309
867.58197,324
867.699341,316
867.81665,315
867.934082,314
868.051453,319
868.168823,320
868.286194,318
868.403564,308
868.520935,322
868.638306,304
868.755676,320
868.872986,313
868.990295,319
869.107727,314
869.225037,311
869.342346,315
869.459717,319
869.577026,322
869.694336,318
869.811707,318
869.929016,323
870.046326,315
870.163635,320
870.280945,311
870.398254,309
870.515564,319
870.632812,323
870.750183,314
870.867432,314
870.984741,309
871.102051,315
871.219299,308
871.336609,300
871.453918,327
871.571106,311
871.688416,316
871.805664,314
871.922852,307
872.040222,320
872.157471,302
872.274719,309
872.391968,313
872.509155,319
872.626465,326
872.743652,322
872.860962,328
872.978149,314
873.095337,315
873.212646,313
873.329834,315
873.44696,324
873.564209,324
873.681396,312
873.798645,316
873.915894,311
874.03302,300
874.150208,318
874.267456,301
874.384583,320
874.501831,309
874.618958,312
874.736145,318
874.853333,314
874.970459,322
875.087646,322
875.204834,313
875.32196,321
875.439148,309
875.556274,319
875.673401,320
875.790527,320
875.907715,311
876.024841,309
876.141968,321
876.259094,314
876.376282,317
876.493347,320
876.610474,320
876.7276,318
876.844727,318
876.961853,317
877.078918,313
877.195984,314
877.313171,305
877.430237,321
877.547302,314
877.664368,319
877.781433,314
877.898499,305
878.015625,318
878.13269,314
878.249695,323
878.366821,317
878.483887,306
878.600952,311
878.717957,312
878.834961,310
878.952087,320
879.069092,312
879.186157,304
879.303162,309
879.420227,313
879.537231,304
879.654236,309
879.77124,327
879.888306,312
880.005249,312
880.122314,320
880.239319,326
880.356323,298
880.473328,308
880.590271,320
880.707275,315
880.824341,319
880.941284,321
881.058228,323
881.175232,305
881.292236,306
881.40918,329
881.526123,305
881.643066,318
881.760071,306
881.877014,326
881.993958,318
882.11084,314
882.227783,329
882.344727,311
882.46167,317
882.578613,313
882.695618,306
882.812439,321
882.929382,312
883.046326,303
883.163208,303
883.280151,328
883.397034,301
883.513916,320
883.630798,308
883.747742,311
883.864563,310
883.981506,322
884.098389,318
884.21521,310
884.332153,328
884.448975,312
884.565796,314
884.682678,306
884.7995,323
884.916443,310
885.033264,310
885.150085,321
885.266968,326
885.383789,318
885.500671,330
885.617493,310
885.734314,302
885.851196,313
885.967896,322
886.084717,313
886.201599,317
886.318359,336
886.435181,318
886.552002,314
886.668762,311
886.785645,327
886.902344,316
887.019165,311
887.135925,296
887.252747,321
887.369446,314
887.486267,317
887.603027,316
887.719788,311
887.836548,315
887.953247,311
888.070068,308
888.186829,322
888.303528,317
888.420288,315
888.536987,313
888.653687,326
888.770447,317
888.887146,312
889.003967,310
889.120667,316
889.237305,319
889.354065,323
889.470703,309
889.587463,316
889.704163,303
889.820862,331
889.937561,298
890.054199,305
890.170837,322
890.287598,316
890.404236,311
890.520874,305
890.637634,316
890.754211,306
890.87085,305
890.987549,315
891.104187,315
891.220886,309
891.337463,329
891.454102,316
891.57074,317
891.687378,315
891.804077,315
891.920654,323
892.037231,310
892.15387,327
892.270447,326
892.387085,325
892.503723,312
892.6203,317
892.736877,312
892.853516,312
892.970032,322
893.08667,321
893.203186,312
893.319763,330
893.43634,301
893.552917,326
893.669556,320
893.786011,313
893.902588,313
894.019165,312
894.135681,310
894.252197,334
894.368835,316
894.485291,318
894.601868,312
894.718384,318
894.8349,312
894.951355,317
895.067932,313
895.184448,317
895.300964,316
895.417419,314
895.533936,324
895.650452,305
895.766907,318
895.883423,315
895.999878,322
896.116333,328
896.232849,320
896.349304,303
896.465759,316
896.582214,319
896.698669,322
896.815125,319
896.931641,316
897.048035,314
897.164551,315
897.280884,311
897.397339,322
897.513794,310
897.630249,326
897.746582,312
897.863098,316
897.979431,314
898.095886,327
898.212341,321
898.328674,322
898.445129,319
898.561462,313
898.677795,325
898.794312,319
898.910645,322
899.026978,311
899.143433,330
899.259766,310
899.37616,324
899.492493,320
899.608765,312
899.725159,311
899.841553,316
899.957947,319
900.07428,304
900.190552,313
900.306946,341
900.423157,316
900.53949,324
900.655884,327
900.772156,327
900.888489,312
901.004822,312
901.121033,326
901.237366,321
901.353699,304
901.46991,315
901.586304,315
901.702515,311
901.818787,322
901.93512,320
902.051331,322
902.167603,321
902.283875,321
902.400085,313
902.516418,302
902.632629,319
902.74884,320
902.865112,309
902.981384,314
903.097595,323
903.213867,323
903.330017,300
903.446289,323
903.5625,311
903.67865,322
903.794922,317
903.911072,315
904.027344,319
904.143494,317
904.259705,316
904.375916,321
904.492065,327
904.608215,327
904.724426,322
904.840576,310
904.956726,324
905.072876,325
905.189087,329
905.305176,325
905.421387,323
905.537537,312
905.653687,326
905.769775,312
905.885925,333
906.002014,309
906.118164,317
906.234314,314
906.350403,321
906.466492,315
906.582642,325
906.69873,317
906.814758,334
906.930908,299
907.046936,315
907.163086,314
907.279175,324
907.395264,325
907.511353,324
907.62738,301
907.743408,329
907.859497,318
907.975525,336
908.091553,303
908.207703,317
908.32373,313
908.439758,325
908.555786,312
908.671814,309
908.787842,316
908.90387,316
909.019775,314
909.135864,319
909.251892,314
909.367859,314
909.483826,309
909.599854,318
909.715881,314
909.831848,323
909.947815,309
910.063782,306
910.179749,300
910.295776,338
910.411743,311
910.527649,318
910.643616,313
910.759583,318
910.875488,316
910.991455,310
911.107361,322
911.223267,309
911.339294,305
911.4552,322
911.571106,310
911.687073,317
911.802979,308
911.918823,314
912.034729,320
912.150635,314
912.266602,318
912.382446,314
912.498352,323
912.614197,313
912.730103,314
912.846008,316
