792.44574,305
792.56488,373
792.68396,404
792.80304,373
792.92218,339
793.041199,319
793.160339,324
793.279419,338
793.398499,337
793.517578,329
793.636658,337
793.755737,324
793.874817,362
793.993896,356
794.112976,336
794.232056,325
794.351074,339
794.470215,335
794.589233,329
794.708313,313
794.827393,339
794.946411,339
795.065552,339
795.18457,332
795.303589,331
795.422668,332
795.541687,329
795.660767,333
795.779846,327
795.898865,318
796.017883,327
796.136963,336
796.255981,333
796.375061,325
796.49408,336
796.613037,329
796.732117,335
796.851135,337
796.970154,326
797.089233,325
797.208191,331
797.327271,335
797.446228,323
797.565186,317
797.684265,324
797.803223,328
797.922241,338
798.04126,338
798.160278,339
798.279297,322
798.398315,329
798.517273,338
798.636292,329
798.75531,323
798.874268,328
798.993286,329
799.112244,325
799.231323,320
799.350281,337
799.469238,321
799.588257,328
799.707153,340
799.826111,318
799.945129,337
800.064087,333
800.183044,335
800.302063,330
800.421021,311
800.539978,326
800.658936,324
800.777893,338
800.896912,328
801.015747,351
801.134705,334
801.253723,331
801.37262,333
801.491638,325
801.610535,324
801.729492,329
801.84845,329
801.967407,337
802.086243,339
802.205261,334
802.324158,327
802.443115,351
802.562073,333
802.680969,329
802.799927,336
802.918762,329
803.037659,321
803.156677,322
803.275574,341
803.39447,350
803.513428,327
803.632263,349
803.751221,326
803.870117,335
803.989014,336
804.107971,341
804.226746,329
804.345642,343
804.4646,345
804.583496,324
804.702393,339
804.821228,324
804.940125,341
805.059021,331
805.177917,340
805.296814,336
805.415649,351
805.534546,324
805.653442,328
805.772278,339
805.891113,339
806.01001,325
806.128906,328
806.247742,332
806.366577,343
806.485413,332
806.604309,338
806.723145,328
806.84198,332
806.960876,329
807.079712,340
807.198486,328
807.317383,326
807.436218,345
807.554993,329
807.673889,336
807.792725,337
807.91156,358
808.030396,325
808.14917,337
808.268005,327
808.386841,325
808.505676,338
808.624451,332
808.743286,335
808.862122,348
808.980896,341
809.099731,340
809.218506,324
809.337341,342
809.456116,341
809.57489,330
809.693726,334
809.8125,341
809.931274,325
810.050049,327
810.168884,331
810.287659,332
810.406372,345
810.525269,330
810.643982,320
810.762756,352
810.881531,340
811.000305,339
811.11908,328
811.237854,333
811.356567,352
811.475403,332
811.594116,343
811.71283,345
811.831604,328
811.950378,321
812.069153,350
812.187927,321
812.30658,345
812.425415,328
812.544128,331
812.662781,335
812.781616,324
812.900269,337
813.019043,326
813.137756,328
813.256531,334
813.375244,343
813.493896,337
813.612671,343
813.731384,338
813.850037,336
813.96875,329
814.087524,337
814.206238,327
814.324951,335
814.443604,321
814.562256,344
814.68103,340
814.799683,341
814.918335,338
815.037109,337
815.155762,348
815.274475,331
815.393188,322
815.511841,326
815.630554,335
815.749146,343
815.867859,332
815.986572,328
816.105164,333
816.223877,332
816.342529,340
816.461182,334
816.579895,326
816.698486,325
816.817139,344
816.935791,320
817.054504,350
817.173096,330
817.291748,326
817.4104,333
817.529053,326
817.647644,339
817.766235,327
817.884949,321
818.00354,339
818.122192,326
818.240845,331
818.359436,309
818.478088,317
818.59668,324
818.715271,332
818.833923,326
818.952515,325
819.071106,327
819.189758,305
819.30835,321
819.426941,324
819.545532,330
819.664124,315
819.782715,324
819.901306,338
820.019897,322
820.138489,309
820.25708,322
820.375671,324
820.494202,333
820.612732,331
820.731384,321
820.849915,320
820.968506,315
821.087097,320
821.205627,315
821.324158,321
821.442749,325
821.561279,309
821.679871,326
821.798401,318
821.916931,323
822.035461,312
822.154053,324
822.272583,311
822.391174,321
822.509583,323
822.628174,318
822.746704,319
822.865234,328
822.983765,324
823.102295,317
823.220825,309
823.339294,318
823.457825,318
823.576355,325
823.694824,318
823.813354,313
823.931885,312
824.050354,321
824.168884,323
824.287354,313
824.405823,333
824.524353,315
824.642822,334
824.761353,328
824.879822,320
824.998291,311
825.116699,328
825.235291,312
825.353699,341
825.472168,325
825.590637,338
825.709106,317
825.827576,322
825.946045,314
826.064453,332
826.182983,309
826.301392,317
826.4198,312
826.53833,322
826.656738,321
826.775208,318
826.893677,323
827.012024,315
827.130493,322
827.248962,329
827.36731,314
827.485779,319
827.604248,325
827.722595,318
827.841064,315
827.959412,312
828.077942,307
828.196289,327
828.314636,315
828.433105,315
828.551514,314
828.669861,306
828.78833,321
828.906677,311
829.025085,326
829.143433,322
829.261841,324
829.38031,312
829.498657,319
829.617004,318
829.735413,308
829.85376,303
829.972107,320
830.090515,323
830.208862,310
830.327209,317
830.445557,329
830.563904,329
830.682312,320
830.800659,322
830.919006,321
831.037354,317
831.155701,311
831.274048,315
831.392395,306
831.51062,313
831.629028,333
831.747314,328
831.865662,313
831.984009,326
832.102356,316
832.220642,314
832.338928,315
832.457275,329
832.575623,302
832.693909,322
832.812134,301
832.930481,319
833.048828,327
833.167114,310
833.2854,299
833.403687,321
833.521973,325
833.640259,313
833.758545,310
833.876831,303
833.995056,329
834.113281,323
834.231628,315
834.349915,319
834.468201,317
834.586426,322
834.704651,315
834.822998,309
834.941162,316
835.059448,331
835.177673,321
835.295959,314
835.414246,319
835.53241,314
835.650635,313
835.768921,323
835.887146,294
836.005371,326
836.123596,322
836.241821,321
836.360046,315
836.478271,331
836.596497,329
836.714722,321
836.832886,323
836.95105,319
837.069336,322
837.1875,322
837.305725,315
837.423889,315
837.542053,319
837.660339,319
837.778503,312
837.896667,331
838.014832,325
838.132996,319
838.25116,314
838.369385,319
838.487488,314
838.605713,322
838.723877,315
838.84198,327
838.960205,314
839.078308,327
839.196472,314
839.314636,315
839.4328,311
839.550964,320
839.669067,315
839.787231,311
839.905396,316
840.023499,321
840.141602,306
840.259766,316
840.377869,324
840.495972,323
840.614136,319
840.732239,325
840.850342,308
840.968445,319
841.086548,317
841.204651,316
841.322754,328
841.440918,310
841.55896,315
841.677002,316
841.795166,306
841.913208,320
842.031311,309
842.149353,328
842.267456,309
842.385498,329
842.503601,311
842.621643,321
842.739746,319
842.857788,317
842.97583,314
843.093933,322
843.211975,307
843.330017,304
843.44812,316
843.566101,317
843.684204,325
843.802246,319
843.920227,326
844.038269,324
844.156311,315
844.274292,310
844.392395,328
844.510376,327
844.628357,319
844.74646,323
844.864441,314
844.982422,324
845.100403,304
845.218384,328
845.336426,306
845.454468,313
845.572449,300
845.69043,313
845.808411,305
845.926453,311
846.044373,318
846.162354,321
846.280396,324
846.398315,311
846.516296,320
846.634216,320
846.752197,316
846.870178,319
846.988098,323
847.106079,318
847.22406,313
847.34198,315
847.4599,323
847.577881,313
847.695801,314
847.813782,319
847.931641,301
848.049561,336
848.167603,310
848.285461,322
848.403381,314
848.521362,313
848.639221,318
848.75708,310
848.875,324
848.99292,321
849.110901,317
849.22876,311
849.34668,309
849.464539,313
849.582458,311
849.700317,317
849.818176,317
849.936096,317
850.053955,322
850.171875,329
850.289673,315
850.407593,324
850.525452,306
850.643311,312
850.761169,314
850.878967,314
850.996887,304
851.114746,303
851.232544,320
851.350403,309
851.468262,304
851.58606,320
851.703979,317
851.821777,326
851.939636,322
852.057434,319
852.175232,316
852.293091,312
852.410889,311
852.528687,326
852.646545,314
852.764343,320
852.88208,315
852.999939,320
853.117676,311
853.235535,319
853.353271,308
853.471069,312
853.588928,308
853.706604,320
853.824402,309
853.9422,321
854.059998,314
854.177734,314
854.295532,327
854.413269,325
854.531006,304
854.648804,322
854.766541,317
854.884277,329
855.002014,314
855.119751,309
855.237549,330
855.355225,311
855.473022,308
855.590698,325
855.708435,320
855.826172,320
855.943848,320
856.061646,324
856.179321,312
856.296997,322
856.414795,312
856.53241,323
856.650085,316
856.767822,319
856.885559,326
857.003174,335
857.120911,321
857.238586,326
857.356201,307
857.473938,323
857.591614,318
857.709351,295
857.826965,306
857.944641,327
858.062317,311
858.179993,321
858.297668,319
858.415283,312
858.532959,315
858.650574,322
858.768188,324
858.885803,318
859.003479,322
859.121094,315
859.23877,306
859.356384,308
859.473999,314
859.591675,325
859.709229,315
859.826843,318
859.944458,321
860.062012,316
860.179626,312
860.297302,315
860.414856,315
860.532471,322
860.650024,320
860.767639,305
860.885193,313
861.002808,308
861.120361,318
861.237976,307
861.35553,314
861.473022,316
861.590698,308
861.708191,315
861.825745,322
861.943298,317
862.060852,322
862.178406,320
862.295959,311
862.413513,313
862.531006,309
862.64856,309
862.766113,315
862.883667,316
863.00116,326
863.118713,317
863.236206,310
863.353699,303
863.471252,319
863.588745,317
863.706177,316
863.82373,313
863.941162,330
864.058716,326
864.176208,307
864.29364,313
864.411194,318
864.528687,305
864.646118,314
864.763611,322
864.881042,326
864.998535,317
865.116028,318
865.233459,347
865.350891,315
865.468384,316
865.585754,322
865.703308,315
865.820679,317
865.938171,320
866.055542,302
866.173035,309
866.290466,319
866.407837,324
866.52533,325
866.6427,305
866.760071,321
866.877563,322
866.994934,310
867.112305,324
867.229736,312
867.347107,328
867.464539,311
867.58197,305
867.699341,314
867.81665,328
867.934082,329
868.051453,305
868.168823,316
868.286194,322
868.403564,315
868.520935,304
868.638306,316
868.755676,321
868.872986,325
868.990295,318
869.107727,311
869.225037,315
869.342346,316
869.459717,315
869.577026,313
869.694336,318
869.811707,316
869.929016,315
870.046326,315
870.163635,312
870.280945,326
870.398254,321
870.515564,321
870.632812,321
870.750183,314
870.867432,316
870.984741,322
871.102051,322
871.219299,312
871.336609,315
871.453918,315
871.571106,316
871.688416,319
871.805664,324
871.922852,316
872.040222,312
872.157471,304
872.274719,331
872.391968,312
872.509155,316
872.626465,309
872.743652,323
872.860962,311
872.978149,321
873.095337,315
873.212646,322
873.329834,309
873.44696,303
873.564209,310
873.681396,324
873.798645,317
873.915894,318
874.03302,310
874.150208,309
874.267456,322
874.384583,329
874.501831,316
874.618958,328
874.736145,305
874.853333,314
874.970459,311
875.087646,322
875.204834,310
875.32196,306
875.439148,311
875.556274,315
875.673401,325
875.790527,318
875.907715,319
876.024841,326
876.141968,315
876.259094,308
876.376282,313
876.493347,320
876.610474,316
876.7276,315
876.844727,315
876.961853,318
877.078918,316
877.195984,316
877.313171,310
877.430237,326
877.547302,311
877.664368,307
877.781433,312
877.898499,320
878.015625,308
878.13269,311
878.249695,325
878.366821,312
878.483887,303
878.600952,329
878.717957,311
878.834961,317
878.952087,311
879.069092,330
879.186157,312
879.303162,312
879.420227,316
879.537231,318
879.654236,319
879.77124,313
879.888306,302
880.005249,326
880.122314,312
880.239319,315
880.356323,318
880.473328,321
880.590271,326
880.707275,312
880.824341,311
880.941284,324
881.058228,313
881.175232,316
881.292236,308
881.40918,314
881.526123,308
881.643066,303
881.760071,309
881.877014,320
881.993958,324
882.11084,317
882.227783,329
882.344727,320
882.46167,310
882.578613,313
882.695618,323
882.812439,317
882.929382,313
883.046326,321
883.163208,323
883.280151,324
883.397034,321
883.513916,312
883.630798,317
883.747742,323
883.864563,310
883.981506,313
884.098389,308
884.21521,314
884.332153,307
884.448975,332
884.565796,328
884.682678,322
884.7995,312
884.916443,323
885.033264,310
885.150085,309
885.266968,319
885.383789,318
885.500671,316
885.617493,316
885.734314,317
885.851196,323
885.967896,316
886.084717,321
886.201599,309
886.318359,325
886.435181,317
886.552002,330
886.668762,306
886.785645,322
886.902344,319
887.019165,317
887.135925,331
887.252747,331
887.369446,317
887.486267,328
887.603027,315
887.719788,322
887.836548,307
887.953247,326
888.070068,313
888.186829,318
888.303528,314
888.420288,325
888.536987,307
888.653687,314
888.770447,315
888.887146,306
889.003967,313
889.120667,322
889.237305,320
889.354065,315
889.470703,307
889.587463,320
889.704163,326
889.820862,322
889.937561,317
890.054199,323
890.170837,318
890.287598,339
890.404236,313
890.520874,327
890.637634,311
890.754211,319
890.87085,312
890.987549,325
891.104187,323
891.220886,320
891.337463,311
891.454102,325
891.57074,297
891.687378,325
891.804077,331
891.920654,316
892.037231,319
892.15387,318
892.270447,314
892.387085,313
892.503723,299
892.6203,321
892.736877,311
892.853516,329
892.970032,296
893.08667,318
893.203186,315
893.319763,321
893.43634,314
893.552917,323
893.669556,308
893.786011,325
893.902588,312
894.019165,308
894.135681,317
894.252197,317
894.368835,311
894.485291,315
894.601868,328
894.718384,329
894.8349,317
894.951355,325
895.067932,311
895.184448,321
895.300964,312
895.417419,314
895.533936,326
895.650452,321
895.766907,320
895.883423,325
895.999878,310
896.116333,314
896.232849,318
896.349304,321
896.465759,321
896.582214,319
896.698669,307
896.815125,309
896.931641,315
897.048035,312
897.164551,306
897.280884,318
897.397339,327
897.513794,321
897.630249,322
897.746582,311
897.863098,323
897.979431,321
898.095886,311
898.212341,327
898.328674,312
898.445129,311
898.561462,308
898.677795,318
898.794312,315
898.910645,317
899.026978,322
899.143433,313
899.259766,313
899.37616,313
899.492493,320
899.608765,315
899.725159,312
899.841553,311
899.957947,316
900.07428,325
900.190552,322
900.306946,314
900.423157,322
900.53949,320
900.655884,308
900.772156,330
900.888489,322
901.004822,321
901.121033,317
901.237366,313
901.353699,310
901.46991,312
901.586304,309
901.702515,322
901.818787,309
901.93512,327
902.051331,318
902.167603,325
902.283875,313
902.400085,316
902.516418,311
902.632629,312
902.74884,318
902.865112,327
902.981384,314
903.097595,316
903.213867,324
903.330017,309
903.446289,317
903.5625,311
903.67865,302
903.794922,306
903.911072,319
904.027344,338
904.143494,311
904.259705,327
904.375916,309
904.492065,320
904.608215,313
904.724426,321
904.840576,319
904.956726,314
905.072876,324
905.189087,323
905.305176,297
905.421387,325
905.537537,315
905.653687,307
905.769775,327
905.885925,318
906.002014,315
906.118164,313
906.234314,323
906.350403,328
906.466492,319
906.582642,325
906.69873,324
906.814758,322
906.930908,305
907.046936,311
907.163086,312
907.279175,325
907.395264,311
907.511353,319
907.62738,317
907.743408,323
907.859497,306
907.975525,324
908.091553,306
908.207703,322
908.32373,317
908.439758,313
908.555786,336
908.671814,326
908.787842,321
908.90387,321
909.019775,317
909.135864,315
909.251892,319
909.367859,315
909.483826,319
909.599854,312
909.715881,318
909.831848,300
909.947815,308
910.063782,311
910.179749,312
910.295776,330
910.411743,327
910.527649,304
910.643616,318
910.759583,325
910.875488,330
910.991455,325
911.107361,312
911.223267,318
911.339294,321
911.4552,323
911.571106,314
911.687073,305
911.802979,316
911.918823,312
912.034729,326
912.150635,320
912.266602,312
912.382446,313
912.498352,318
912.614197,317
912.730103,315
912.846008,319
792.44574,323
792.56488,360
792.68396,406
792.80304,392
792.92218,344
793.041199,317
793.160339,320
793.279419,344
793.398499,337
793.517578,321
793.636658,324
793.755737,330
793.874817,359
793.993896,332
794.112976,325
794.232056,331
794.351074,335
794.470215,344
794.589233,327
794.708313,319
794.827393,339
794.946411,339
795.065552,345
795.18457,357
795.303589,347
795.422668,334
795.541687,335
795.660767,326
795.779846,338
795.898865,331
796.017883,320
796.136963,332
796.255981,331
796.375061,338
796.49408,337
796.613037,339
796.732117,322
796.851135,329
796.970154,332
797.089233,313
797.208191,337
797.327271,334
797.446228,344
797.565186,333
797.684265,336
797.803223,339
797.922241,325
798.04126,327
798.160278,318
798.279297,331
798.398315,327
798.517273,332
798.636292,328
798.75531,330
798.874268,333
798.993286,338
799.112244,333
799.231323,331
799.350281,339
799.469238,333
799.588257,327
799.707153,344
799.826111,331
799.945129,333
800.064087,335
800.183044,342
800.302063,328
800.421021,330
800.539978,323
800.658936,330
800.777893,339
800.896912,338
801.015747,335
801.134705,330
801.253723,331
801.37262,333
801.491638,319
801.610535,324
801.729492,327
801.84845,345
801.967407,330
802.086243,341
802.205261,334
802.324158,346
802.443115,326
802.562073,329
802.680969,332
802.799927,334
802.918762,329
803.037659,315
803.156677,333
803.275574,317
803.39447,333
803.513428,332
803.632263,342
803.751221,335
803.870117,333
803.989014,328
804.107971,317
804.226746,337
804.345642,329
804.4646,315
804.583496,324
804.702393,340
804.821228,333
804.940125,335
805.059021,332
805.177917,329
805.296814,336
805.415649,329
805.534546,338
805.653442,327
805.772278,353
805.891113,339
806.01001,328
806.128906,330
806.247742,321
806.366577,325
806.485413,337
806.604309,328
806.723145,320
806.84198,338
806.960876,353
807.079712,330
807.198486,323
807.317383,333
807.436218,329
807.554993,333
807.673889,324
807.792725,331
807.91156,331
808.030396,329
808.14917,338
808.268005,336
808.386841,339
808.505676,336
808.624451,331
808.743286,339
808.862122,336
808.980896,334
809.099731,340
809.218506,332
809.337341,331
809.456116,318
809.57489,330
809.693726,331
809.8125,341
809.931274,325
810.050049,338
810.168884,340
810.287659,329
810.406372,328
810.525269,328
810.643982,332
810.762756,335
810.881531,341
811.000305,330
811.11908,328
811.237854,329
811.356567,336
811.475403,350
811.594116,320
811.71283,331
811.831604,329
811.950378,340
812.069153,335
812.187927,342
812.30658,333
812.425415,338
812.544128,329
812.662781,337
812.781616,331
812.900269,345
813.019043,335
813.137756,332
813.256531,327
813.375244,337
813.493896,341
813.612671,329
813.731384,334
813.850037,337
813.96875,331
814.087524,334
814.206238,323
814.324951,330
814.443604,342
814.562256,335
814.68103,338
814.799683,330
814.918335,336
815.037109,334
815.155762,350
815.274475,329
815.393188,337
815.511841,336
815.630554,334
815.749146,327
815.867859,329
815.986572,341
816.105164,333
816.223877,344
816.342529,337
816.461182,325
816.579895,334
816.698486,322
816.817139,333
816.935791,332
817.054504,331
817.173096,345
817.291748,342
817.4104,341
817.529053,328
817.647644,335
817.766235,332
817.884949,338
818.00354,334
818.122192,321
818.240845,325
818.359436,324
818.478088,333
818.59668,322
818.715271,330
818.833923,317
818.952515,316
819.071106,339
819.189758,326
819.30835,329
819.426941,328
819.545532,325
819.664124,336
819.782715,321
819.901306,319
820.019897,316
820.138489,331
820.25708,318
820.375671,315
820.494202,328
820.612732,320
820.731384,321
820.849915,319
820.968506,308
821.087097,322
821.205627,328
821.324158,333
821.442749,325
821.561279,325
821.679871,313
821.798401,305
821.916931,324
822.035461,317
822.154053,319
822.272583,324
822.391174,311
822.509583,328
822.628174,308
822.746704,330
822.865234,297
822.983765,322
823.102295,330
823.220825,322
823.339294,329
823.457825,318
823.576355,341
823.694824,325
823.813354,316
823.931885,329
824.050354,311
824.168884,321
824.287354,321
824.405823,336
824.524353,325
824.642822,306
824.761353,316
824.879822,318
824.998291,332
825.116699,306
825.235291,328
825.353699,314
825.472168,321
825.590637,303
825.709106,334
825.827576,321
825.946045,320
826.064453,313
826.182983,322
826.301392,314
826.4198,309
826.53833,317
826.656738,308
826.775208,326
826.893677,316
827.012024,313
827.130493,313
827.248962,317
827.36731,332
827.485779,319
827.604248,313
827.722595,314
827.841064,327
827.959412,322
828.077942,318
828.196289,316
828.314636,312
828.433105,312
828.551514,325
828.669861,318
828.78833,311
828.906677,318
829.025085,311
829.143433,314
829.261841,321
829.38031,320
829.498657,324
829.617004,309
829.735413,319
829.85376,336
829.972107,300
830.090515,328
830.208862,313
830.327209,320
830.445557,301
830.563904,317
830.682312,318
830.800659,304
830.919006,309
831.037354,312
831.155701,312
831.274048,316
831.392395,317
831.51062,314
831.629028,319
831.747314,307
831.865662,316
831.984009,310
832.102356,320
832.220642,317
832.338928,319
832.457275,316
832.575623,319
832.693909,321
832.812134,333
832.930481,310
833.048828,323
833.167114,323
833.2854,311
833.403687,329
833.521973,316
833.640259,339
833.758545,304
833.876831,334
833.995056,314
834.113281,322
834.231628,314
834.349915,312
834.468201,320
834.586426,312
834.704651,314
834.822998,321
834.941162,327
835.059448,310
835.177673,316
835.295959,330
835.414246,327
835.53241,318
835.650635,311
835.768921,322
835.887146,322
836.005371,318
836.123596,322
836.241821,320
836.360046,319
836.478271,321
836.596497,318
836.714722,322
836.832886,311
836.95105,319
837.069336,318
837.1875,312
837.305725,305
837.423889,315
837.542053,313
837.660339,313
837.778503,320
837.896667,333
838.014832,324
838.132996,306
838.25116,316
838.369385,324
838.487488,326
838.605713,318
838.723877,317
838.84198,312
838.960205,316
839.078308,323
839.196472,325
839.314636,310
839.4328,307
839.550964,326
839.669067,311
839.787231,313
839.905396,323
840.023499,322
840.141602,312
840.259766,310
840.377869,313
840.495972,319
840.614136,322
840.732239,310
840.850342,316
840.968445,325
841.086548,328
841.204651,333
841.322754,315
841.440918,309
841.55896,314
841.677002,323
841.795166,308
841.913208,309
842.031311,314
842.149353,328
842.267456,324
842.385498,318
842.503601,305
842.621643,323
842.739746,313
842.857788,324
842.97583,310
843.093933,317
843.211975,315
843.330017,327
843.44812,322
843.566101,312
843.684204,318
843.802246,325
843.920227,312
844.038269,313
844.156311,308
844.274292,318
844.392395,309
844.510376,323
844.628357,321
844.74646,313
844.864441,326
844.982422,316
845.100403,313
845.218384,316
845.336426,315
845.454468,314
845.572449,312
845.69043,330
845.808411,320
845.926453,315
846.044373,316
846.162354,320
846.280396,311
846.398315,317
846.516296,311
846.634216,328
846.752197,320
846.870178,313
846.988098,311
847.106079,317
847.22406,315
847.34198,321
847.4599,313
847.577881,316
847.695801,320
847.813782,322
847.931641,305
848.049561,328
848.167603,315
848.285461,308
848.403381,319
848.521362,315
848.639221,317
848.75708,308
848.875,306
848.99292,310
849.110901,296
849.22876,318
849.34668,311
849.464539,311
849.582458,319
849.700317,310
849.818176,321
849.936096,319
850.053955,300
850.171875,321
850.289673,302
850.407593,315
850.525452,322
850.643311,324
850.761169,323
850.878967,316
850.996887,313
851.114746,305
851.232544,320
851.350403,309
851.468262,322
851.58606,314
851.703979,320
851.821777,332
851.939636,311
852.057434,314
852.175232,331
852.293091,317
852.410889,307
852.528687,320
852.646545,305
852.764343,321
852.88208,315
852.999939,314
853.117676,323
853.235535,304
853.353271,317
853.471069,313
853.588928,321
853.706604,321
853.824402,308
853.9422,321
854.059998,318
854.177734,311
854.295532,317
854.413269,313
854.531006,317
854.648804,313
854.766541,311
854.884277,322
855.002014,316
855.119751,330
855.237549,310
855.355225,314
855.473022,317
855.590698,306
855.708435,315
855.826172,322
855.943848,317
856.061646,322
856.179321,318
856.296997,326
856.414795,314
856.53241,321
856.650085,321
856.767822,305
856.885559,309
857.003174,316
857.120911,317
857.238586,313
857.356201,314
857.473938,321
857.591614,304
857.709351,321
857.826965,310
857.944641,308
858.062317,316
858.179993,319
858.297668,318
858.415283,322
858.532959,315
858.650574,312
858.768188,300
858.885803,306
859.003479,318
859.121094,311
859.23877,312
859.356384,327
859.473999,316
859.591675,313
859.709229,323
859.826843,307
859.944458,311
860.062012,312
860.179626,318
860.297302,312
860.414856,318
860.532471,312
860.650024,311
860.767639,311
860.885193,322
861.002808,331
861.120361,320
861.237976,308
861.35553,327
861.473022,322
861.590698,325
861.708191,323
861.825745,315
861.943298,316
862.060852,314
862.178406,324
862.295959,320
862.413513,315
862.531006,323
862.64856,310
862.766113,312
862.883667,315
863.00116,308
863.118713,317
863.236206,323
863.353699,329
863.471252,311
863.588745,306
863.706177,311
863.82373,298
863.941162,325
864.058716,319
864.176208,311
864.29364,327
864.411194,317
864.528687,316
864.646118,316
864.763611,315
864.881042,313
864.998535,325
865.116028,321
865.233459,328
865.350891,316
865.468384,316
865.585754,321
865.703308,331
865.820679,308
865.938171,328
866.055542,307
866.173035,316
866.290466,310
866.407837,320
866.52533,322
866.6427,307
866.760071,314
866.877563,322
866.994934,306
867.112305,326
867.229736,313
867.347107,307
867.464539,310
867.58197,324
867.699341,311
867.81665,313
867.934082,302
868.051453,330
868.168823,312
868.286194,322
868.403564,320
868.520935,305
868.638306,314
868.755676,323
868.872986,305
868.990295,312
869.107727,307
869.225037,322
869.342346,317
869.459717,311
869.577026,331
869.694336,308
869.811707,312
869.929016,310
870.046326,300
870.163635,318
870.280945,319
870.398254,324
870.515564,318
870.632812,320
870.750183,310
870.867432,308
870.984741,315
871.102051,303
871.219299,321
871.336609,333
871.453918,313
871.571106,319
871.688416,319
871.805664,317
871.922852,317
872.040222,318
872.157471,321
872.274719,311
872.391968,302
872.509155,309
872.626465,311
872.743652,325
872.860962,315
872.978149,319
873.095337,318
873.212646,312
873.329834,317
873.44696,317
873.564209,321
873.681396,310
873.798645,303
873.915894,315
874.03302,318
874.150208,324
874.267456,315
874.384583,320
874.501831,314
874.618958,325
874.736145,307
874.853333,319
874.970459,309
875.087646,313
875.204834,308
875.32196,323
875.439148,311
875.556274,316
875.673401,310
875.790527,307
875.907715,320
876.024841,321
876.141968,322
876.259094,310
876.376282,308
876.493347,319
876.610474,311
876.7276,315
876.844727,317
876.961853,312
877.078918,307
877.195984,320
877.313171,313
877.430237,325
877.547302,321
877.664368,306
877.781433,319
877.898499,314
878.015625,311
878.13269,320
878.249695,309
878.366821,322
878.483887,315
878.600952,316
878.717957,316
878.834961,310
878.952087,310
879.069092,313
879.186157,317
879.303162,308
879.420227,329
879.537231,325
879.654236,307
879.77124,323
879.888306,314
880.005249,306
880.122314,314
880.239319,322
880.356323,320
880.473328,316
880.590271,316
880.707275,311
880.824341,319
880.941284,323
881.058228,321
881.175232,308
881.292236,312
881.40918,309
881.526123,321
881.643066,323
881.760071,307
881.877014,321
881.993958,309
882.11084,314
882.227783,317
882.344727,309
882.46167,313
882.578613,303
882.695618,321
882.812439,323
882.929382,305
883.046326,312
883.163208,312
883.280151,290
883.397034,315
883.513916,321
883.630798,308
883.747742,328
883.864563,320
883.981506,312
884.098389,297
884.21521,316
884.332153,310
884.448975,318
884.565796,318
884.682678,309
884.7995,323
884.916443,309
885.033264,314
885.150085,303
885.266968,316
885.383789,318
885.500671,304
885.617493,327
885.734314,310
885.851196,326
885.967896,320
886.084717,319
886.201599,314
886.318359,310
886.435181,319
886.552002,320
886.668762,310
886.785645,318
886.902344,314
887.019165,313
887.135925,313
887.252747,315
887.369446,316
887.486267,314
887.603027,315
887.719788,313
887.836548,308
887.953247,334
888.070068,311
888.186829,317
888.303528,319
888.420288,324
888.536987,319
888.653687,308
888.770447,315
888.887146,321
889.003967,304
889.120667,324
889.237305,317
889.354065,313
889.470703,317
889.587463,309
889.704163,317
889.820862,307
889.937561,320
890.054199,318
890.170837,311
890.287598,323
890.404236,317
890.520874,321
890.637634,309
890.754211,307
890.87085,320
890.987549,317
891.104187,332
891.220886,307
891.337463,317
891.454102,320
891.57074,326
891.687378,335
891.804077,309
891.920654,322
892.037231,303
892.15387,327
892.270447,323
892.387085,316
892.503723,322
892.6203,312
892.736877,324
892.853516,314
892.970032,321
893.08667,323
893.203186,314
893.319763,319
893.43634,326
893.552917,316
893.669556,299
893.786011,319
893.902588,309
894.019165,314
894.135681,302
894.252197,301
894.368835,314
894.485291,325
894.601868,320
894.718384,313
894.8349,316
894.951355,326
895.067932,315
895.184448,315
895.300964,322
895.417419,316
895.533936,320
895.650452,317
895.766907,314
895.883423,305
895.999878,314
896.116333,337
896.232849,318
896.349304,302
896.465759,308
896.582214,318
896.698669,316
896.815125,329
896.931641,315
897.048035,313
897.164551,307
897.280884,317
897.397339,315
897.513794,327
897.630249,330
897.746582,317
897.863098,309
897.979431,303
898.095886,314
898.212341,326
898.328674,311
898.445129,313
898.561462,313
898.677795,304
898.794312,311
898.910645,310
899.026978,319
899.143433,316
899.259766,318
899.37616,314
899.492493,314
899.608765,313
899.725159,305
899.841553,321
899.957947,307
900.07428,315
900.190552,317
900.306946,337
900.423157,311
900.53949,318
900.655884,312
900.772156,328
900.888489,312
901.004822,313
901.121033,308
901.237366,318
901.353699,308
901.46991,316
901.586304,309
901.702515,307
901.818787,317
901.93512,321
902.051331,308
902.167603,326
902.283875,315
902.400085,318
902.516418,320
902.632629,319
902.74884,318
902.865112,321
902.981384,328
903.097595,331
903.213867,316
903.330017,318
903.446289,324
903.5625,300
903.67865,314
903.794922,317
903.911072,321
904.027344,311
904.143494,299
904.259705,329
904.375916,303
904.492065,317
904.608215,314
904.724426,313
904.840576,312
904.956726,318
905.072876,313
905.189087,323
905.305176,314
905.421387,322
905.537537,321
905.653687,327
905.769775,305
905.885925,330
906.002014,310
906.118164,315
906.234314,314
906.350403,303
906.466492,309
906.582642,329
906.69873,330
906.814758,307
906.930908,318
907.046936,328
907.163086,327
907.279175,316
907.395264,315
907.511353,316
907.62738,297
907.743408,318
907.859497,316
907.975525,306
908.091553,322
908.207703,317
908.32373,317
908.439758,321
908.555786,306
908.671814,324
908.787842,299
908.90387,324
909.019775,326
909.135864,322
909.251892,311
909.367859,315
909.483826,313
909.599854,312
909.715881,318
909.831848,314
909.947815,310
910.063782,324
910.179749,315
910.295776,305
910.411743,323
910.527649,308
910.643616,309
910.759583,317
910.875488,322
910.991455,320
911.107361,308
911.223267,319
911.339294,318
911.4552,308
911.571106,317
911.687073,330
911.802979,316
911.918823,316
912.034729,319
912.150635,325
912.266602,317
912.382446,322
912.498352,315
912.614197,310
912.730103,317
912.846008,321
792.44574,320
792.56488,361
792.68396,401
792.80304,376
792.92218,343
793.041199,321
793.160339,324
793.279419,327
793.398499,329
793.517578,332
793.636658,334
793.755737,330
793.874817,348
793.993896,346
794.112976,338
794.232056,328
794.351074,329
794.470215,338
794.589233,323
794.708313,328
794.827393,334
794.946411,334
795.065552,345
795.18457,341
795.303589,326
795.422668,322
795.541687,319
795.660767,338
795.779846,332
795.898865,332
796.017883,333
796.136963,327
796.255981,340
796.375061,326
796.49408,336
796.613037,343
796.732117,316
796.851135,327
796.970154,329
797.089233,334
797.208191,345
797.327271,331
797.446228,325
797.565186,328
797.684265,328
797.803223,319
797.922241,329
798.04126,325
798.160278,328
798.279297,326
798.398315,332
798.517273,327
798.636292,346
798.75531,329
798.874268,337
798.993286,330
799.112244,331
799.231323,335
799.350281,321
799.469238,329
799.588257,330
799.707153,338
799.826111,335
799.945129,319
800.064087,327
800.183044,325
800.302063,336
800.421021,329
800.539978,331
800.658936,326
800.777893,341
800.896912,334
801.015747,314
801.134705,334
801.253723,342
801.37262,324
801.491638,328
801.610535,338
801.729492,337
801.84845,318
801.967407,341
802.086243,314
802.205261,333
802.324158,335
802.443115,321
802.562073,326
802.680969,330
802.799927,331
802.918762,327
803.037659,335
803.156677,338
803.275574,324
803.39447,333
803.513428,337
803.632263,335
803.751221,335
803.870117,336
803.989014,333
804.107971,324
804.226746,340
804.345642,319
804.4646,336
804.583496,341
804.702393,341
804.821228,335
804.940125,350
805.059021,319
805.177917,326
805.296814,343
805.415649,328
805.534546,316
805.653442,332
805.772278,336
805.891113,353
806.01001,333
806.128906,330
806.247742,338
806.366577,343
806.485413,344
806.604309,330
806.723145,336
806.84198,315
806.960876,330
807.079712,324
807.198486,343
807.317383,331
807.436218,340
807.554993,328
807.673889,327
807.792725,335
807.91156,334
808.030396,339
808.14917,333
808.268005,341
808.386841,326
808.505676,339
808.624451,324
808.743286,333
808.862122,345
808.980896,329
809.099731,337
809.218506,326
809.337341,341
809.456116,334
809.57489,325
809.693726,346
809.8125,332
809.931274,331
810.050049,340
810.168884,343
810.287659,337
810.406372,332
810.525269,337
810.643982,337
810.762756,352
810.881531,336
811.000305,347
811.11908,332
811.237854,339
811.356567,333
811.475403,351
811.594116,337
811.71283,342
811.831604,332
811.950378,329
812.069153,326
812.187927,341
812.30658,321
812.425415,335
812.544128,333
812.662781,334
812.781616,336
812.900269,337
813.019043,343
813.137756,337
813.256531,325
813.375244,324
813.493896,340
813.612671,331
813.731384,331
813.850037,346
813.96875,335
814.087524,335
814.206238,335
814.324951,337
814.443604,324
814.562256,332
814.68103,328
814.799683,331
814.918335,335
815.037109,344
815.155762,327
815.274475,335
815.393188,331
815.511841,326
815.630554,332
815.749146,337
815.867859,339
815.986572,327
816.105164,326
816.223877,328
816.342529,330
816.461182,317
816.579895,318
816.698486,342
816.817139,343
816.935791,349
817.054504,327
817.173096,324
817.291748,326
817.4104,333
817.529053,315
817.647644,333
817.766235,323
817.884949,338
818.00354,329
818.122192,327
818.240845,325
818.359436,324
818.478088,334
818.59668,324
818.715271,312
818.833923,323
818.952515,315
819.071106,333
819.189758,310
819.30835,323
819.426941,330
819.545532,310
819.664124,328
819.782715,327
819.901306,315
820.019897,314
820.138489,325
820.25708,311
820.375671,323
820.494202,319
820.612732,326
820.731384,319
820.849915,335
820.968506,327
821.087097,312
821.205627,323
821.324158,319
821.442749,321
821.561279,314
821.679871,341
821.798401,318
821.916931,316
822.035461,316
822.154053,324
822.272583,320
822.391174,318
822.509583,307
822.628174,327
822.746704,327
822.865234,314
822.983765,330
823.102295,306
823.220825,314
823.339294,326
823.457825,321
823.576355,326
823.694824,323
823.813354,318
823.931885,325
824.050354,320
824.168884,321
824.287354,324
824.405823,313
824.524353,312
824.642822,317
824.761353,314
824.879822,323
824.998291,325
825.116699,320
825.235291,331
825.353699,324
825.472168,321
825.590637,323
825.709106,326
825.827576,318
825.946045,328
826.064453,319
826.182983,318
826.301392,311
826.4198,337
826.53833,316
826.656738,322
826.775208,315
826.893677,306
827.012024,325
827.130493,332
827.248962,303
827.36731,321
827.485779,311
827.604248,316
827.722595,310
827.841064,321
827.959412,318
828.077942,323
828.196289,312
828.314636,323
828.433105,300
828.551514,320
828.669861,302
828.78833,325
828.906677,323
829.025085,324
829.143433,328
829.261841,323
829.38031,316
829.498657,337
829.617004,319
829.735413,322
829.85376,320
829.972107,321
830.090515,315
830.208862,332
830.327209,322
830.445557,315
830.563904,311
830.682312,321
830.800659,321
830.919006,309
831.037354,333
831.155701,323
831.274048,333
831.392395,329
831.51062,324
831.629028,330
831.747314,308
831.865662,323
831.984009,327
832.102356,315
832.220642,318
832.338928,313
832.457275,312
832.575623,311
832.693909,305
832.812134,320
832.930481,304
833.048828,327
833.167114,311
833.2854,321
833.403687,320
833.521973,315
833.640259,314
833.758545,329
833.876831,322
833.995056,315
834.113281,309
834.231628,329
834.349915,307
834.468201,323
834.586426,302
834.704651,321
834.822998,312
834.941162,316
835.059448,324
835.177673,325
835.295959,307
835.414246,314
835.53241,318
835.650635,316
835.768921,316
835.887146,312
836.005371,322
836.123596,312
836.241821,331
836.360046,327
836.478271,312
836.596497,327
836.714722,312
836.832886,331
836.95105,320
837.069336,333
837.1875,320
837.305725,324
837.423889,303
837.542053,327
837.660339,308
837.778503,322
837.896667,313
838.014832,321
838.132996,324
838.25116,318
838.369385,318
838.487488,316
838.605713,317
838.723877,319
838.84198,312
838.960205,324
839.078308,318
839.196472,319
839.314636,321
839.4328,312
839.550964,324
839.669067,329
839.787231,331
839.905396,322
840.023499,320
840.141602,329
840.259766,318
840.377869,322
840.495972,319
840.614136,311
840.732239,310
840.850342,324
840.968445,302
841.086548,321
841.204651,317
841.322754,322
841.440918,312
841.55896,325
841.677002,327
841.795166,318
841.913208,321
842.031311,321
842.149353,321
842.267456,330
842.385498,307
842.503601,328
842.621643,327
842.739746,322
842.857788,304
842.97583,322
843.093933,315
843.211975,319
843.330017,320
843.44812,314
843.566101,320
843.684204,322
843.802246,307
843.920227,324
844.038269,317
844.156311,313
844.274292,303
844.392395,314
844.510376,317
844.628357,308
844.74646,303
844.864441,326
844.982422,315
845.100403,324
845.218384,312
845.336426,318
845.454468,317
845.572449,315
845.69043,314
845.808411,321
845.926453,319
846.044373,311
846.162354,322
846.280396,326
846.398315,317
846.516296,310
846.634216,303
846.752197,310
846.870178,319
846.988098,323
847.106079,326
847.22406,314
847.34198,314
847.4599,319
847.577881,304
847.695801,296
847.813782,303
847.931641,316
848.049561,312
848.167603,313
848.285461,303
848.403381,310
848.521362,304
848.639221,325
848.75708,323
848.875,313
848.99292,314
849.110901,315
849.22876,325
849.34668,323
849.464539,319
849.582458,305
849.700317,290
849.818176,315
849.936096,303
850.053955,320
850.171875,319
850.289673,317
850.407593,320
850.525452,318
850.643311,318
850.761169,323
850.878967,299
850.996887,322
851.114746,307
851.232544,304
851.350403,310
851.468262,309
851.58606,313
851.703979,315
851.821777,305
851.939636,326
852.057434,299
852.175232,328
852.293091,313
852.410889,316
852.528687,314
852.646545,316
852.764343,318
852.88208,323
852.999939,320
853.117676,325
853.235535,304
853.353271,327
853.471069,321
853.588928,309
853.706604,314
853.824402,310
853.9422,314
854.059998,334
854.177734,314
854.295532,321
854.413269,312
854.531006,318
854.648804,323
854.766541,315
854.884277,312
855.002014,302
855.119751,315
855.237549,322
855.355225,313
855.473022,304
855.590698,319
855.708435,325
855.826172,326
855.943848,318
856.061646,315
856.179321,312
856.296997,319
856.414795,327
856.53241,320
856.650085,313
856.767822,316
856.885559,315
857.003174,317
857.120911,308
857.238586,318
857.356201,317
857.473938,325
857.591614,325
857.709351,322
857.826965,333
857.944641,312
858.062317,321
858.179993,319
858.297668,313
858.415283,317
858.532959,307
858.650574,328
858.768188,320
858.885803,326
859.003479,302
859.121094,320
859.23877,311
859.356384,323
859.473999,323
859.591675,323
859.709229,309
859.826843,329
859.944458,324
860.062012,318
860.179626,315
860.297302,310
860.414856,321
860.532471,317
860.650024,319
860.767639,311
860.885193,322
861.002808,318
861.120361,313
861.237976,320
861.35553,305
861.473022,319
861.590698,313
861.708191,319
861.825745,318
861.943298,320
862.060852,314
862.178406,303
862.295959,320
862.413513,318
862.531006,320
862.64856,298
862.766113,334
862.883667,319
863.00116,323
863.118713,310
863.236206,306
863.353699,317
863.471252,320
863.588745,314
863.706177,318
863.82373,314
863.941162,319
864.058716,307
864.176208,307
864.29364,312
864.411194,321
864.528687,306
864.646118,316
864.763611,321
864.881042,324
864.998535,316
865.116028,315
865.233459,305
865.350891,325
865.468384,314
865.585754,330
865.703308,308
865.820679,311
865.938171,313
866.055542,325
866.173035,322
866.290466,320
866.407837,310
866.52533,305
866.6427,319
866.760071,324
866.877563,327
866.994934,326
867.112305,319
867.229736,321
867.347107,312
867.464539,318
867.58197,317
867.699341,323
867.81665,310
867.934082,323
868.051453,309
868.168823,318
868.286194,320
868.403564,322
868.520935,320
868.638306,320
868.755676,314
868.872986,317
868.990295,322
869.107727,331
869.225037,305
869.342346,337
869.459717,311
869.577026,316
869.694336,315
869.811707,330
869.929016,313
870.046326,329
870.163635,319
870.280945,323
870.398254,310
870.515564,322
870.632812,295
870.750183,315
870.867432,314
870.984741,318
871.102051,304
871.219299,309
871.336609,323
871.453918,327
871.571106,306
871.688416,323
871.805664,316
871.922852,320
872.040222,331
872.157471,313
872.274719,319
872.391968,313
872.509155,309
872.626465,316
872.743652,316
872.860962,327
872.978149,311
873.095337,319
873.212646,311
873.329834,326
873.44696,305
873.564209,313
873.681396,323
873.798645,320
873.915894,316
874.03302,299
874.150208,301
874.267456,322
874.384583,311
874.501831,325
874.618958,308
874.736145,320
874.853333,303
874.970459,320
875.087646,320
875.204834,321
875.32196,308
875.439148,329
875.556274,302
875.673401,316
875.790527,312
875.907715,315
876.024841,317
876.141968,302
876.259094,298
876.376282,331
876.493347,306
876.610474,325
876.7276,311
876.844727,306
876.961853,325
877.078918,325
877.195984,320
877.313171,311
877.430237,315
877.547302,316
877.664368,299
877.781433,316
877.898499,316
878.015625,316
878.13269,316
878.249695,314
878.366821,302
878.483887,313
878.600952,304
878.717957,304
878.834961,309
878.952087,314
879.069092,318
879.186157,313
879.303162,323
879.420227,333
879.537231,326
879.654236,318
879.77124,319
879.888306,319
880.005249,305
880.122314,314
880.239319,321
880.356323,326
880.473328,307
880.590271,318
880.707275,305
880.824341,315
880.941284,320
881.058228,333
881.175232,315
881.292236,314
881.40918,305
881.526123,308
881.643066,317
881.760071,317
881.877014,298
881.993958,308
882.11084,312
882.227783,314
882.344727,313
882.46167,318
882.578613,315
882.695618,327
882.812439,316
882.929382,325
883.046326,312
883.163208,310
883.280151,317
883.397034,315
883.513916,306
883.630798,321
883.747742,316
883.864563,322
883.981506,311
884.098389,317
884.21521,319
884.332153,310
884.448975,320
884.565796,318
884.682678,314
884.7995,324
884.916443,328
885.033264,325
885.150085,318
885.266968,317
885.383789,317
885.500671,316
885.617493,325
885.734314,320
885.851196,310
885.967896,324
886.084717,312
886.201599,325
886.318359,309
886.435181,315
886.552002,322
886.668762,314
886.785645,309
886.902344,317
887.019165,315
887.135925,312
887.252747,306
887.369446,324
887.486267,300
887.603027,325
887.719788,324
887.836548,331
887.953247,315
888.070068,324
888.186829,324
888.303528,305
888.420288,307
888.536987,316
888.653687,316
888.770447,317
888.887146,309
889.003967,309
889.120667,315
889.237305,320
889.354065,312
889.470703,313
889.587463,315
889.704163,325
889.820862,299
889.937561,329
890.054199,311
890.170837,330
890.287598,314
890.404236,320
890.520874,311
890.637634,320
890.754211,303
890.87085,313
890.987549,304
891.104187,319
891.220886,320
891.337463,322
891.454102,319
891.57074,319
891.687378,325
891.804077,324
891.920654,326
892.037231,320
892.15387,321
892.270447,307
892.387085,315
892.503723,310
892.6203,327
892.736877,317
892.853516,320
892.970032,329
893.08667,311
893.203186,319
893.319763,331
893.43634,308
893.552917,317
893.669556,303
893.786011,315
893.902588,334
894.019165,326
894.135681,325
894.252197,322
894.368835,321
894.485291,305
894.601868,317
894.718384,309
894.8349,321
894.951355,313
895.067932,320
895.184448,326
895.300964,318
895.417419,307
895.533936,321
895.650452,315
895.766907,326
895.883423,330
895.999878,320
896.116333,310
896.232849,316
896.349304,303
896.465759,331
896.582214,308
896.698669,313
896.815125,316
896.931641,323
897.048035,331
897.164551,326
897.280884,317
897.397339,316
897.513794,318
897.630249,322
897.746582,304
897.863098,333
897.979431,316
898.095886,324
898.212341,327
898.328674,305
898.445129,306
898.561462,329
898.677795,325
898.794312,315
898.910645,306
899.026978,316
899.143433,315
899.259766,319
899.37616,326
899.492493,316
899.608765,324
899.725159,311
899.841553,311
899.957947,329
900.07428,301
900.190552,324
900.306946,314
900.423157,310
900.53949,308
900.655884,315
900.772156,324
900.888489,329
901.004822,315
901.121033,323
901.237366,317
901.353699,324
901.46991,322
901.586304,321
901.702515,306
901.818787,313
901.93512,316
902.051331,318
902.167603,312
902.283875,332
902.400085,306
902.516418,326
902.632629,313
902.74884,317
902.865112,327
902.981384,326
903.097595,320
903.213867,325
903.330017,323
903.446289,315
903.5625,308
903.67865,321
903.794922,315
903.911072,311
904.027344,315
904.143494,306
904.259705,311
904.375916,318
904.492065,306
904.608215,324
904.724426,303
904.840576,331
904.956726,305
905.072876,308
905.189087,315
905.305176,309
905.421387,307
905.537537,320
905.653687,313
905.769775,311
905.885925,321
906.002014,328
906.118164,311
906.234314,324
906.350403,317
906.466492,324
906.582642,329
906.69873,331
906.814758,311
906.930908,317
907.046936,314
907.163086,327
907.279175,321
907.395264,311
907.511353,319
907.62738,323
907.743408,300
907.859497,322
907.975525,312
908.091553,317
908.207703,318
908.32373,337
908.439758,325
908.555786,321
908.671814,322
908.787842,316
908.90387,310
909.019775,308
909.135864,315
909.251892,324
909.367859,312
909.483826,319
909.599854,302
909.715881,302
909.831848,317
909.947815,333
910.063782,317
910.179749,335
910.295776,303
910.411743,328
910.527649,316
910.643616,320
910.759583,306
910.875488,331
910.991455,315
911.107361,307
911.223267,309
911.339294,318
911.4552,323
911.571106,314
911.687073,312
911.802979,324
911.918823,317
912.034729,323
912.150635,314
912.266602,318
912.382446,318
912.498352,311
912.614197,307
912.730103,322
912.846008,324
