792.44574,311
792.56488,342
792.68396,395
792.80304,383
792.92218,336
793.041199,313
793.160339,322
793.279419,340
793.398499,338
793.517578,319
793.636658,335
793.755737,330
793.874817,359
793.993896,345
794.112976,339
794.232056,328
794.351074,346
794.470215,340
794.589233,340
794.708313,331
794.827393,312
794.946411,328
795.065552,344
795.18457,342
795.303589,343
795.422668,331
795.541687,333
795.660767,331
795.779846,320
795.898865,333
796.017883,330
796.136963,329
796.255981,340
796.375061,351
796.49408,334
796.613037,331
796.732117,332
796.851135,337
796.970154,347
797.089233,332
797.208191,332
797.327271,325
797.446228,332
797.565186,328
797.684265,321
797.803223,326
797.922241,342
798.04126,330
798.160278,326
798.279297,328
798.398315,334
798.517273,323
798.636292,343
798.75531,321
798.874268,335
798.993286,322
799.112244,317
799.231323,342
799.350281,333
799.469238,326
799.588257,326
799.707153,339
799.826111,334
799.945129,340
800.064087,330
800.183044,334
800.302063,337
800.421021,325
800.539978,332
800.658936,323
800.777893,330
800.896912,332
801.015747,337
801.134705,340
801.253723,330
801.37262,334
801.491638,321
801.610535,332
801.729492,328
801.84845,323
801.967407,314
802.086243,332
802.205261,311
802.324158,336
802.443115,322
802.562073,335
802.680969,332
802.799927,333
802.918762,342
803.037659,323
803.156677,334
803.275574,319
803.39447,329
803.513428,337
803.632263,325
803.751221,336
803.870117,316
803.989014,338
804.107971,319
804.226746,332
804.345642,326
804.4646,326
804.583496,326
804.702393,335
804.821228,327
804.940125,327
805.059021,321
805.177917,348
805.296814,331
805.415649,341
805.534546,325
805.653442,335
805.772278,326
805.891113,333
806.01001,329
806.128906,333
806.247742,349
806.366577,329
806.485413,334
806.604309,335
806.723145,337
806.84198,318
806.960876,323
807.079712,343
807.198486,329
807.317383,335
807.436218,325
807.554993,339
807.673889,323
807.792725,337
807.91156,339
808.030396,334
808.14917,321
808.268005,346
808.386841,329
808.505676,329
808.624451,334
808.743286,332
808.862122,341
808.980896,332
809.099731,315
809.218506,353
809.337341,348
809.456116,320
809.57489,330
809.693726,330
809.8125,344
809.931274,332
810.050049,324
810.168884,330
810.287659,312
810.406372,328
810.525269,330
810.643982,344
810.762756,337
810.881531,325
811.000305,348
811.11908,340
811.237854,327
811.356567,330
811.475403,338
811.594116,354
811.71283,329
811.831604,340
811.950378,328
812.069153,340
812.187927,332
812.30658,340
812.425415,335
812.544128,333
812.662781,340
812.781616,326
812.900269,330
813.019043,341
813.137756,336
813.256531,330
813.375244,325
813.493896,318
813.612671,327
813.731384,318
813.850037,337
813.96875,329
814.087524,342
814.206238,340
814.324951,328
814.443604,329
814.562256,317
814.68103,332
814.799683,344
814.918335,331
815.037109,332
815.155762,337
815.274475,327
815.393188,323
815.511841,326
815.630554,343
815.749146,346
815.867859,321
815.986572,324
816.105164,325
816.223877,327
816.342529,350
816.461182,333
816.579895,334
816.698486,326
816.817139,338
816.935791,338
817.054504,337
817.173096,320
817.291748,340
817.4104,331
817.529053,332
817.647644,327
817.766235,334
817.884949,334
818.00354,331
818.122192,319
818.240845,328
818.359436,342
818.478088,321
818.59668,318
818.715271,324
818.833923,332
818.952515,320
819.071106,338
819.189758,317
819.30835,327
819.426941,319
819.545532,326
819.664124,328
819.782715,326
819.901306,316
820.019897,308
820.138489,318
820.25708,318
820.375671,318
820.494202,312
820.612732,328
820.731384,320
820.849915,319
820.968506,306
821.087097,320
821.205627,317
821.324158,316
821.442749,323
821.561279,323
821.679871,319
821.798401,319
821.916931,327
822.035461,330
822.154053,330
822.272583,308
822.391174,315
822.509583,322
822.628174,320
822.746704,315
822.865234,333
822.983765,323
823.102295,308
823.220825,310
823.339294,325
823.457825,312
823.576355,315
823.694824,323
823.813354,323
823.931885,320
824.050354,315
824.168884,321
824.287354,310
824.405823,312
824.524353,325
824.642822,329
824.761353,315
824.879822,317
824.998291,310
825.116699,306
825.235291,318
825.353699,318
825.472168,329
825.590637,322
825.709106,324
825.827576,310
825.946045,309
826.064453,327
826.182983,325
826.301392,315
826.4198,317
826.53833,307
826.656738,323
826.775208,330
826.893677,311
827.012024,310
827.130493,329
827.248962,321
827.36731,321
827.485779,320
827.604248,323
827.722595,331
827.841064,310
827.959412,326
828.077942,312
828.196289,326
828.314636,311
828.433105,314
828.551514,317
828.669861,306
828.78833,321
828.906677,326
829.025085,319
829.143433,320
829.261841,314
829.38031,311
829.498657,308
829.617004,307
829.735413,330
829.85376,322
829.972107,310
830.090515,324
830.208862,318
830.327209,329
830.445557,302
830.563904,320
830.682312,315
830.800659,304
830.919006,312
831.037354,325
831.155701,322
831.274048,315
831.392395,323
831.51062,304
831.629028,316
831.747314,301
831.865662,313
831.984009,336
832.102356,314
832.220642,305
832.338928,317
832.457275,325
832.575623,306
832.693909,318
832.812134,303
832.930481,317
833.048828,313
833.167114,322
833.2854,328
833.403687,318
833.521973,317
833.640259,309
833.758545,326
833.876831,314
833.995056,316
834.113281,324
834.231628,321
834.349915,318
834.468201,316
834.586426,324
834.704651,327
834.822998,314
834.941162,312
835.059448,318
835.177673,316
835.295959,319
835.414246,330
835.53241,319
835.650635,321
835.768921,319
835.887146,314
836.005371,326
836.123596,328
836.241821,314
836.360046,315
836.478271,335
836.596497,324
836.714722,333
836.832886,318
836.95105,316
837.069336,321
837.1875,323
837.305725,313
837.423889,321
837.542053,322
837.660339,315
837.778503,326
837.896667,315
838.014832,329
838.132996,312
838.25116,316
838.369385,315
838.487488,320
838.605713,317
838.723877,311
838.84198,324
838.960205,326
839.078308,327
839.196472,324
839.314636,311
839.4328,324
839.550964,315
839.669067,323
839.787231,326
839.905396,318
840.023499,317
840.141602,326
840.259766,323
840.377869,313
840.495972,321
840.614136,311
840.732239,304
840.850342,321
840.968445,319
841.086548,315
841.204651,310
841.322754,316
841.440918,322
841.55896,323
841.677002,324
841.795166,320
841.913208,330
842.031311,307
842.149353,326
842.267456,308
842.385498,310
842.503601,317
842.621643,316
842.739746,316
842.857788,324
842.97583,315
843.093933,327
843.211975,309
843.330017,326
843.44812,309
843.566101,332
843.684204,315
843.802246,326
843.920227,307
844.038269,318
844.156311,321
844.274292,319
844.392395,309
844.510376,319
844.628357,311
844.74646,329
844.864441,308
844.982422,307
845.100403,307
845.218384,328
845.336426,321
845.454468,318
845.572449,319
845.69043,316
845.808411,322
845.926453,316
846.044373,305
846.162354,322
846.280396,315
846.398315,312
846.516296,321
846.634216,322
846.752197,307
846.870178,319
846.988098,313
847.106079,324
847.22406,319
847.34198,329
847.4599,319
847.577881,316
847.695801,301
847.813782,322
847.931641,313
848.049561,330
848.167603,313
848.285461,315
848.403381,312
848.521362,320
848.639221,316
848.75708,322
848.875,307
848.99292,307
849.110901,324
849.22876,325
849.34668,318
849.464539,325
849.582458,307
849.700317,319
849.818176,321
849.936096,319
850.053955,316
850.171875,321
850.289673,314
850.407593,320
850.525452,310
850.643311,319
850.761169,309
850.878967,316
850.996887,312
851.114746,307
851.232544,309
851.350403,315
851.468262,306
851.58606,308
851.703979,319
851.821777,313
851.939636,308
852.057434,327
852.175232,325
852.293091,315
852.410889,315
852.528687,323
852.646545,314
852.764343,303
852.88208,303
852.999939,332
853.117676,317
853.235535,304
853.353271,329
853.471069,323
853.588928,312
853.706604,318
853.824402,307
853.9422,325
854.059998,317
854.177734,326
854.295532,323
854.413269,306
854.531006,323
854.648804,322
854.766541,316
854.884277,313
855.002014,310
855.119751,309
855.237549,302
855.355225,319
855.473022,301
855.590698,327
855.708435,307
855.826172,320
855.943848,317
856.061646,318
856.179321,310
856.296997,328
856.414795,311
856.53241,313
856.650085,329
856.767822,314
856.885559,308
857.003174,328
857.120911,326
857.238586,311
857.356201,320
857.473938,324
857.591614,314
857.709351,321
857.826965,311
857.944641,328
858.062317,319
858.179993,326
858.297668,318
858.415283,307
858.532959,314
858.650574,315
858.768188,311
858.885803,312
859.003479,303
859.121094,325
859.23877,324
859.356384,311
859.473999,315
859.591675,309
859.709229,326
859.826843,320
859.944458,304
860.062012,320
860.179626,317
860.297302,303
860.414856,318
860.532471,314
860.650024,303
860.767639,320
860.885193,322
861.002808,319
861.120361,325
861.237976,318
861.35553,305
861.473022,311
861.590698,313
861.708191,317
861.825745,325
861.943298,319
862.060852,327
862.178406,324
862.295959,320
862.413513,321
862.531006,321
862.64856,321
862.766113,318
862.883667,317
863.00116,305
863.118713,324
863.236206,316
863.353699,314
863.471252,325
863.588745,311
863.706177,322
863.82373,326
863.941162,311
864.058716,324
864.176208,312
864.29364,307
864.411194,307
864.528687,322
864.646118,315
864.763611,318
864.881042,318
864.998535,326
865.116028,309
865.233459,313
865.350891,309
865.468384,337
865.585754,319
865.703308,315
865.820679,323
865.938171,311
866.055542,318
866.173035,310
866.290466,315
866.407837,316
866.52533,323
866.6427,304
866.760071,304
866.877563,323
866.994934,319
867.112305,314
867.229736,306
867.347107,330
867.464539,326
867.58197,322
867.699341,309
867.81665,315
867.934082,301
868.051453,319
868.168823,306
868.286194,313
868.403564,308
868.520935,316
868.638306,322
868.755676,317
868.872986,324
868.990295,305
869.107727,313
869.225037,330
869.342346,308
869.459717,320
869.577026,313
869.694336,309
869.811707,314
869.929016,316
870.046326,305
870.163635,310
870.280945,311
870.398254,313
870.515564,307
870.632812,316
870.750183,317
870.867432,326
870.984741,316
871.102051,317
871.219299,323
871.336609,322
871.453918,305
871.571106,320
871.688416,304
871.805664,314
871.922852,306
872.040222,321
872.157471,314
872.274719,312
872.391968,315
872.509155,314
872.626465,304
872.743652,322
872.860962,316
872.978149,320
873.095337,310
873.212646,305
873.329834,311
873.44696,314
873.564209,314
873.681396,309
873.798645,316
873.915894,315
874.03302,314
874.150208,299
874.267456,306
874.384583,317
874.501831,315
874.618958,307
874.736145,321
874.853333,302
874.970459,326
875.087646,328
875.204834,317
875.32196,310
875.439148,318
875.556274,319
875.673401,314
875.790527,307
875.907715,312
876.024841,309
876.141968,305
876.259094,320
876.376282,304
876.493347,318
876.610474,314
876.7276,322
876.844727,307
876.961853,325
877.078918,311
877.195984,303
877.313171,317
877.430237,323
877.547302,323
877.664368,311
877.781433,313
877.898499,314
878.015625,310
878.13269,313
878.249695,313
878.366821,327
878.483887,296
878.600952,328
878.717957,330
878.834961,313
878.952087,315
879.069092,312
879.186157,326
879.303162,313
879.420227,324
879.537231,323
879.654236,319
879.77124,320
879.888306,308
880.005249,316
880.122314,309
880.239319,313
880.356323,310
880.473328,316
880.590271,308
880.707275,321
880.824341,334
880.941284,321
881.058228,305
881.175232,313
881.292236,309
881.40918,323
881.526123,320
881.643066,306
881.760071,309
881.877014,313
881.993958,320
882.11084,333
882.227783,317
882.344727,316
882.46167,309
882.578613,309
882.695618,318
882.812439,318
882.929382,315
883.046326,312
883.163208,322
883.280151,316
883.397034,313
883.513916,326
883.630798,315
883.747742,331
883.864563,314
883.981506,319
884.098389,335
884.21521,308
884.332153,319
884.448975,320
884.565796,305
884.682678,319
884.7995,317
884.916443,325
885.033264,315
885.150085,318
885.266968,319
885.383789,317
885.500671,310
885.617493,325
885.734314,314
885.851196,328
885.967896,321
886.084717,320
886.201599,311
886.318359,312
886.435181,320
886.552002,311
886.668762,308
886.785645,313
886.902344,312
887.019165,304
887.135925,320
887.252747,315
887.369446,311
887.486267,314
887.603027,330
887.719788,314
887.836548,316
887.953247,302
888.070068,313
888.186829,318
888.303528,319
888.420288,313
888.536987,307
888.653687,314
888.770447,310
888.887146,315
889.003967,318
889.120667,318
889.237305,322
889.354065,341
889.470703,309
889.587463,312
889.704163,315
889.820862,321
889.937561,317
890.054199,307
890.170837,318
890.287598,310
890.404236,312
890.520874,313
890.637634,306
890.754211,317
890.87085,318
890.987549,328
891.104187,310
891.220886,313
891.337463,317
891.454102,321
891.57074,323
891.687378,326
891.804077,329
891.920654,312
892.037231,313
892.15387,324
892.270447,311
892.387085,321
892.503723,321
892.6203,325
892.736877,314
892.853516,322
892.970032,311
893.08667,329
893.203186,308
893.319763,304
893.43634,310
893.552917,305
893.669556,323
893.786011,328
893.902588,310
894.019165,319
894.135681,326
894.252197,320
894.368835,320
894.485291,308
894.601868,318
894.718384,314
894.8349,318
894.951355,317
895.067932,306
895.184448,322
895.300964,318
895.417419,317
895.533936,308
895.650452,321
895.766907,310
895.883423,316
895.999878,313
896.116333,309
896.232849,304
896.349304,327
896.465759,309
896.582214,312
896.698669,328
896.815125,313
896.931641,316
897.048035,322
897.164551,318
897.280884,317
897.397339,310
897.513794,323
897.630249,314
897.746582,328
897.863098,311
897.979431,330
898.095886,313
898.212341,313
898.328674,321
898.445129,323
898.561462,312
898.677795,316
898.794312,313
898.910645,314
899.026978,314
899.143433,319
899.259766,315
899.37616,314
899.492493,321
899.608765,323
899.725159,312
899.841553,309
899.957947,314
900.07428,336
900.190552,325
900.306946,317
900.423157,313
900.53949,314
900.655884,302
900.772156,317
900.888489,303
901.004822,317
901.121033,314
901.237366,318
901.353699,305
901.46991,329
901.586304,305
901.702515,335
901.818787,321
901.93512,311
902.051331,311
902.167603,312
902.283875,308
902.400085,320
902.516418,306
902.632629,303
902.74884,317
902.865112,325
902.981384,321
903.097595,320
903.213867,322
903.330017,305
903.446289,300
903.5625,328
903.67865,314
903.794922,322
903.911072,305
904.027344,315
904.143494,327
904.259705,317
904.375916,317
904.492065,315
904.608215,324
904.724426,311
904.840576,324
904.956726,318
905.072876,309
905.189087,319
905.305176,327
905.421387,331
905.537537,316
905.653687,337
905.769775,322
905.885925,314
906.002014,313
906.118164,327
906.234314,319
906.350403,323
906.466492,321
906.582642,322
906.69873,314
906.814758,324
906.930908,308
907.046936,319
907.163086,311
907.279175,327
907.395264,322
907.511353,316
907.62738,323
907.743408,318
907.859497,301
907.975525,313
908.091553,316
908.207703,317
908.32373,320
908.439758,317
908.555786,320
908.671814,323
908.787842,315
908.90387,319
909.019775,332
909.135864,319
909.251892,310
909.367859,312
909.483826,306
909.599854,311
909.715881,308
909.831848,332
909.947815,328
910.063782,329
910.179749,313
910.295776,319
910.411743,317
910.527649,319
910.643616,316
910.759583,312
910.875488,324
910.991455,318
911.107361,314
911.223267,323
911.339294,306
911.4552,319
911.571106,306
911.687073,336
911.802979,322
911.918823,303
912.034729,312
912.150635,319
912.266602,318
912.382446,329
912.498352,322
912.614197,323
912.730103,299
912.846008,309
792.44574,328
792.56488,334
792.68396,408
792.80304,370
792.92218,329
793.041199,319
793.160339,327
793.279419,348
793.398499,343
793.517578,319
793.636658,329
793.755737,336
793.874817,347
793.993896,346
794.112976,323
794.232056,327
794.351074,348
794.470215,329
794.589233,337
794.708313,310
794.827393,325
794.946411,337
795.065552,324
795.18457,330
795.303589,345
795.422668,329
795.541687,321
795.660767,333
795.779846,331
795.898865,333
796.017883,330
796.136963,341
796.255981,334
796.375061,332
796.49408,331
796.613037,331
796.732117,324
796.851135,340
796.970154,326
797.089233,322
797.208191,320
797.327271,336
797.446228,325
797.565186,335
797.684265,346
797.803223,325
797.922241,329
798.04126,325
798.160278,346
798.279297,323
798.398315,343
798.517273,324
798.636292,336
798.75531,337
798.874268,327
798.993286,331
799.112244,324
799.231323,340
799.350281,307
799.469238,333
799.588257,338
799.707153,331
799.826111,332
799.945129,339
800.064087,335
800.183044,325
800.302063,338
800.421021,334
800.539978,331
800.658936,323
800.777893,346
800.896912,329
801.015747,329
801.134705,331
801.253723,340
801.37262,325
801.491638,321
801.610535,332
801.729492,325
801.84845,320
801.967407,336
802.086243,330
802.205261,335
802.324158,339
802.443115,317
802.562073,326
802.680969,340
802.799927,322
802.918762,322
803.037659,343
803.156677,330
803.275574,340
803.39447,325
803.513428,313
803.632263,342
803.751221,330
803.870117,322
803.989014,335
804.107971,351
804.226746,331
804.345642,328
804.4646,317
804.583496,338
804.702393,339
804.821228,325
804.940125,326
805.059021,337
805.177917,338
805.296814,324
805.415649,331
805.534546,343
805.653442,332
805.772278,340
805.891113,336
806.01001,348
806.128906,323
806.247742,336
806.366577,340
806.485413,327
806.604309,332
806.723145,333
806.84198,336
806.960876,324
807.079712,334
807.198486,325
807.317383,335
807.436218,326
807.554993,340
807.673889,327
807.792725,324
807.91156,344
808.030396,318
808.14917,339
808.268005,323
808.386841,333
808.505676,319
808.624451,331
808.743286,337
808.862122,328
808.980896,336
809.099731,335
809.218506,332
809.337341,329
809.456116,329
809.57489,334
809.693726,334
809.8125,349
809.931274,336
810.050049,339
810.168884,326
810.287659,332
810.406372,324
810.525269,338
810.643982,339
810.762756,327
810.881531,334
811.000305,341
811.11908,340
811.237854,330
811.356567,333
811.475403,332
811.594116,335
811.71283,331
811.831604,328
811.950378,336
812.069153,328
812.187927,335
812.30658,332
812.425415,323
812.544128,328
812.662781,318
812.781616,352
812.900269,338
813.019043,333
813.137756,343
813.256531,334
813.375244,346
813.493896,328
813.612671,330
813.731384,334
813.850037,335
813.96875,340
814.087524,337
814.206238,323
814.324951,334
814.443604,317
814.562256,332
814.68103,335
814.799683,321
814.918335,338
815.037109,329
815.155762,337
815.274475,332
815.393188,335
815.511841,330
815.630554,321
815.749146,342
815.867859,332
815.986572,328
816.105164,337
816.223877,329
816.342529,328
816.461182,328
816.579895,326
816.698486,336
816.817139,344
816.935791,329
817.054504,321
817.173096,324
817.291748,328
817.4104,324
817.529053,320
817.647644,331
817.766235,343
817.884949,333
818.00354,325
818.122192,319
818.240845,329
818.359436,331
818.478088,323
818.59668,327
818.715271,314
818.833923,323
818.952515,320
819.071106,325
819.189758,317
819.30835,332
819.426941,325
819.545532,323
819.664124,304
819.782715,316
819.901306,300
820.019897,329
820.138489,309
820.25708,323
820.375671,329
820.494202,322
820.612732,321
820.731384,330
820.849915,303
820.968506,321
821.087097,307
821.205627,331
821.324158,323
821.442749,318
821.561279,313
821.679871,316
821.798401,328
821.916931,299
822.035461,322
822.154053,314
822.272583,317
822.391174,318
822.509583,325
822.628174,320
822.746704,312
822.865234,317
822.983765,322
823.102295,329
823.220825,318
823.339294,318
823.457825,330
823.576355,316
823.694824,318
823.813354,313
823.931885,327
824.050354,312
824.168884,325
824.287354,324
824.405823,316
824.524353,316
824.642822,317
824.761353,315
824.879822,311
824.998291,335
825.116699,324
825.235291,318
825.353699,307
825.472168,311
825.590637,321
825.709106,329
825.827576,317
825.946045,322
826.064453,320
826.182983,309
826.301392,312
826.4198,307
826.53833,310
826.656738,317
826.775208,316
826.893677,322
827.012024,310
827.130493,335
827.248962,315
827.36731,316
827.485779,335
827.604248,327
827.722595,323
827.841064,312
827.959412,313
828.077942,307
828.196289,310
828.314636,314
828.433105,313
828.551514,311
828.669861,321
828.78833,322
828.906677,309
829.025085,331
829.143433,313
829.261841,317
829.38031,306
829.498657,325
829.617004,306
829.735413,334
829.85376,302
829.972107,324
830.090515,306
830.208862,324
830.327209,316
830.445557,317
830.563904,308
830.682312,313
830.800659,313
830.919006,326
831.037354,310
831.155701,319
831.274048,318
831.392395,322
831.51062,302
831.629028,322
831.747314,320
831.865662,309
831.984009,311
832.102356,313
832.220642,308
832.338928,308
832.457275,316
832.575623,313
832.693909,309
832.812134,316
832.930481,316
833.048828,305
833.167114,307
833.2854,322
833.403687,326
833.521973,321
833.640259,304
833.758545,313
833.876831,316
833.995056,317
834.113281,315
834.231628,315
834.349915,313
834.468201,312
834.586426,305
834.704651,309
834.822998,308
834.941162,330
835.059448,314
835.177673,314
835.295959,302
835.414246,321
835.53241,321
835.650635,315
835.768921,320
835.887146,324
836.005371,313
836.123596,314
836.241821,318
836.360046,317
836.478271,312
836.596497,324
836.714722,314
836.832886,328
836.95105,318
837.069336,315
837.1875,322
837.305725,314
837.423889,317
837.542053,317
837.660339,317
837.778503,308
837.896667,305
838.014832,312
838.132996,314
838.25116,320
838.369385,326
838.487488,309
838.605713,327
838.723877,317
838.84198,322
838.960205,319
839.078308,317
839.196472,321
839.314636,323
839.4328,306
839.550964,326
839.669067,318
839.787231,311
839.905396,323
840.023499,305
840.141602,320
840.259766,311
840.377869,301
840.495972,313
840.614136,321
840.732239,308
840.850342,313
840.968445,332
841.086548,321
841.204651,309
841.322754,318
841.440918,323
841.55896,315
841.677002,316
841.795166,307
841.913208,324
842.031311,314
842.149353,308
842.267456,325
842.385498,289
842.503601,320
842.621643,315
842.739746,339
842.857788,316
842.97583,316
843.093933,303
843.211975,322
843.330017,312
843.44812,331
843.566101,297
843.684204,306
843.802246,299
843.920227,319
844.038269,312
844.156311,311
844.274292,317
844.392395,314
844.510376,324
844.628357,312
844.74646,315
844.864441,316
844.982422,312
845.100403,313
845.218384,319
845.336426,306
845.454468,311
845.572449,308
845.69043,319
845.808411,311
845.926453,312
846.044373,326
846.162354,309
846.280396,328
846.398315,311
846.516296,316
846.634216,312
846.752197,322
846.870178,314
846.988098,320
847.106079,319
847.22406,319
847.34198,309
847.4599,329
847.577881,312
847.695801,306
847.813782,321
847.931641,310
848.049561,318
848.167603,321
848.285461,302
848.403381,308
848.521362,297
848.639221,309
848.75708,316
848.875,325
848.99292,309
849.110901,311
849.22876,320
849.34668,319
849.464539,309
849.582458,304
849.700317,312
849.818176,307
849.936096,324
850.053955,308
850.171875,319
850.289673,318
850.407593,293
850.525452,318
850.643311,308
850.761169,304
850.878967,320
850.996887,323
851.114746,311
851.232544,304
851.350403,305
851.468262,306
851.58606,312
851.703979,312
851.821777,311
851.939636,314
852.057434,314
852.175232,318
852.293091,304
852.410889,320
852.528687,319
852.646545,312
852.764343,321
852.88208,312
852.999939,312
853.117676,293
853.235535,313
853.353271,306
853.471069,307
853.588928,314
853.706604,308
853.824402,315
853.9422,311
854.059998,325
854.177734,306
854.295532,322
854.413269,306
854.531006,316
854.648804,315
854.766541,302
854.884277,315
855.002014,306
855.119751,314
855.237549,312
855.355225,318
855.473022,308
855.590698,315
855.708435,322
855.826172,312
855.943848,333
856.061646,304
856.179321,323
856.296997,306
856.414795,316
856.53241,314
856.650085,329
856.767822,310
856.885559,312
857.003174,323
857.120911,321
857.238586,317
857.356201,314
857.473938,324
857.591614,313
857.709351,315
857.826965,300
857.944641,318
858.062317,322
858.179993,307
858.297668,322
858.415283,326
858.532959,317
858.650574,313
858.768188,317
858.885803,324
859.003479,313
859.121094,324
859.23877,317
859.356384,307
859.473999,316
859.591675,318
859.709229,316
859.826843,320
859.944458,318
860.062012,300
860.179626,319
860.297302,309
860.414856,316
860.532471,308
860.650024,314
860.767639,313
860.885193,299
861.002808,331
861.120361,299
861.237976,316
861.35553,322
861.473022,308
861.590698,333
861.708191,316
861.825745,312
861.943298,303
862.060852,321
862.178406,319
862.295959,323
862.413513,314
862.531006,316
862.64856,320
862.766113,317
862.883667,303
863.00116,328
863.118713,316
863.236206,314
863.353699,312
863.471252,319
863.588745,302
863.706177,325
863.82373,319
863.941162,327
864.058716,330
864.176208,330
864.29364,314
864.411194,292
864.528687,314
864.646118,304
864.763611,304
864.881042,328
864.998535,304
865.116028,315
865.233459,309
865.350891,326
865.468384,306
865.585754,313
865.703308,308
865.820679,323
865.938171,303
866.055542,320
866.173035,314
866.290466,318
866.407837,309
866.52533,301
866.6427,306
866.760071,321
866.877563,316
866.994934,316
867.112305,314
867.229736,306
867.347107,316
867.464539,327
867.58197,299
867.699341,311
867.81665,310
867.934082,316
868.051453,314
868.168823,329
868.286194,310
868.403564,329
868.520935,312
868.638306,318
868.755676,313
868.872986,306
868.990295,320
869.107727,311
869.225037,315
869.342346,312
869.459717,306
869.577026,317
869.694336,319
869.811707,325
869.929016,315
870.046326,313
870.163635,311
870.280945,315
870.398254,319
870.515564,318
870.632812,306
870.750183,317
870.867432,311
870.984741,331
871.102051,322
871.219299,298
871.336609,309
871.453918,290
871.571106,305
871.688416,314
871.805664,308
871.922852,319
872.040222,308
872.157471,314
872.274719,300
872.391968,327
872.509155,332
872.626465,318
872.743652,317
872.860962,326
872.978149,306
873.095337,310
873.212646,314
873.329834,327
873.44696,317
873.564209,312
873.681396,314
873.798645,310
873.915894,324
874.03302,327
874.150208,319
874.267456,313
874.384583,308
874.501831,314
874.618958,319
874.736145,316
874.853333,322
874.970459,317
875.087646,318
875.204834,324
875.32196,309
875.439148,320
875.556274,311
875.673401,320
875.790527,315
875.907715,315
876.024841,316
876.141968,316
876.259094,308
876.376282,304
876.493347,319
876.610474,304
876.7276,313
876.844727,311
876.961853,307
877.078918,318
877.195984,305
877.313171,322
877.430237,321
877.547302,326
877.664368,297
877.781433,330
877.898499,321
878.015625,317
878.13269,317
878.249695,313
878.366821,320
878.483887,309
878.600952,312
878.717957,306
878.834961,315
878.952087,324
879.069092,305
879.186157,323
879.303162,318
879.420227,324
879.537231,311
879.654236,328
879.77124,314
879.888306,333
880.005249,300
880.122314,308
880.239319,314
880.356323,307
880.473328,312
880.590271,293
880.707275,302
880.824341,316
880.941284,312
881.058228,322
881.175232,304
881.292236,336
881.40918,319
881.526123,322
881.643066,316
881.760071,317
881.877014,314
881.993958,319
882.11084,303
882.227783,327
882.344727,311
882.46167,325
882.578613,300
882.695618,314
882.812439,314
882.929382,317
883.046326,320
883.163208,311
883.280151,318
883.397034,317
883.513916,323
883.630798,315
883.747742,316
883.864563,315
883.981506,315
884.098389,315
884.21521,324
884.332153,322
884.448975,320
884.565796,317
884.682678,309
884.7995,322
884.916443,318
885.033264,318
885.150085,304
885.266968,312
885.383789,303
885.500671,302
885.617493,307
885.734314,312
885.851196,293
885.967896,330
886.084717,306
886.201599,320
886.318359,320
886.435181,312
886.552002,314
886.668762,315
886.785645,320
886.902344,316
887.019165,315
887.135925,317
887.252747,319
887.369446,313
887.486267,318
887.603027,316
887.719788,318
887.836548,317
887.953247,303
888.070068,323
888.186829,298
888.303528,313
888.420288,309
888.536987,326
888.653687,318
888.770447,321
888.887146,302
889.003967,329
889.120667,327
889.237305,317
889.354065,311
889.470703,315
889.587463,307
889.704163,326
889.820862,314
889.937561,315
890.054199,310
890.170837,324
890.287598,324
890.404236,330
890.520874,319
890.637634,329
890.754211,311
890.87085,320
890.987549,305
891.104187,316
891.220886,300
891.337463,317
891.454102,304
891.57074,332
891.687378,311
891.804077,319
891.920654,305
892.037231,314
892.15387,311
892.270447,322
892.387085,320
892.503723,317
892.6203,311
892.736877,313
892.853516,306
892.970032,321
893.08667,323
893.203186,312
893.319763,306
893.43634,322
893.552917,309
893.669556,329
893.786011,328
893.902588,304
894.019165,307
894.135681,301
894.252197,311
894.368835,322
894.485291,322
894.601868,322
894.718384,318
894.8349,316
894.951355,294
895.067932,319
895.184448,309
895.300964,326
895.417419,315
895.533936,320
895.650452,324
895.766907,329
895.883423,322
895.999878,304
896.116333,311
896.232849,321
896.349304,316
896.465759,318
896.582214,304
896.698669,309
896.815125,318
896.931641,321
897.048035,313
897.164551,316
897.280884,306
897.397339,332
897.513794,311
897.630249,318
897.746582,313
897.863098,328
897.979431,302
898.095886,320
898.212341,318
898.328674,312
898.445129,314
898.561462,319
898.677795,313
898.794312,319
898.910645,313
899.026978,320
899.143433,314
899.259766,320
899.37616,313
899.492493,306
899.608765,318
899.725159,316
899.841553,309
899.957947,298
900.07428,303
900.190552,318
900.306946,309
900.423157,324
900.53949,317
900.655884,305
900.772156,311
900.888489,319
901.004822,312
901.121033,316
901.237366,311
901.353699,310
901.46991,310
901.586304,318
901.702515,319
901.818787,304
901.93512,325
902.051331,316
902.167603,301
902.283875,312
902.400085,312
902.516418,318
902.632629,317
902.74884,312
902.865112,319
902.981384,320
903.097595,324
903.213867,317
903.330017,299
903.446289,315
903.5625,305
903.67865,327
903.794922,294
903.911072,301
904.027344,310
904.143494,318
904.259705,312
904.375916,321
904.492065,309
904.608215,311
904.724426,297
904.840576,319
904.956726,310
905.072876,316
905.189087,310
905.305176,314
905.421387,317
905.537537,323
905.653687,321
905.769775,309
905.885925,319
906.002014,326
906.118164,322
906.234314,312
906.350403,313
906.466492,329
906.582642,311
906.69873,310
906.814758,301
906.930908,328
907.046936,303
907.163086,311
907.279175,317
907.395264,321
907.511353,314
907.62738,325
907.743408,307
907.859497,315
907.975525,310
908.091553,321
908.207703,304
908.32373,311
908.439758,324
908.555786,314
908.671814,322
908.787842,320
908.90387,301
909.019775,335
909.135864,310
909.251892,312
909.367859,321
909.483826,325
909.599854,325
909.715881,311
909.831848,306
909.947815,328
910.063782,301
910.179749,310
910.295776,314
910.411743,332
910.527649,317
910.643616,323
910.759583,310
910.875488,313
910.991455,326
911.107361,324
911.223267,314
911.339294,314
911.4552,313
911.571106,322
911.687073,311
911.802979,328
911.918823,316
912.034729,312
912.150635,313
912.266602,315
912.382446,311
912.498352,328
912.614197,303
912.730103,331
912.846008,305
792.44574,315
792.56488,368
792.68396,405
792.80304,378
792.92218,339
793.041199,319
793.160339,326
793.279419,338
793.398499,335
793.517578,307
793.636658,322
793.755737,338
793.874817,343
793.993896,354
794.112976,339
794.232056,318
794.351074,324
794.470215,330
794.589233,347
794.708313,330
794.827393,321
794.946411,331
795.065552,336
795.18457,333
795.303589,332
795.422668,325
795.541687,333
795.660767,322
795.779846,327
795.898865,333
796.017883,347
796.136963,329
796.255981,350
796.375061,331
796.49408,332
796.613037,325
796.732117,338
796.851135,329
796.970154,332
797.089233,321
797.208191,329
797.327271,323
797.446228,333
797.565186,317
797.684265,335
797.803223,320
797.922241,332
798.04126,324
798.160278,344
798.279297,332
798.398315,323
798.517273,326
798.636292,327
798.75531,323
798.874268,318
798.993286,330
799.112244,333
799.231323,325
799.350281,340
799.469238,334
799.588257,316
799.707153,336
799.826111,331
799.945129,325
800.064087,328
800.183044,329
800.302063,328
800.421021,325
800.539978,326
800.658936,325
800.777893,328
800.896912,332
801.015747,331
801.134705,331
801.253723,332
801.37262,328
801.491638,333
801.610535,324
801.729492,339
801.84845,313
801.967407,336
802.086243,318
802.205261,316
802.324158,332
802.443115,327
802.562073,334
802.680969,342
802.799927,323
802.918762,339
803.037659,322
803.156677,330
803.275574,315
803.39447,333
803.513428,330
803.632263,344
803.751221,329
803.870117,332
803.989014,330
804.107971,326
804.226746,335
804.345642,320
804.4646,334
804.583496,328
804.702393,333
804.821228,343
804.940125,323
805.059021,328
805.177917,324
805.296814,336
805.415649,326
805.534546,352
805.653442,312
805.772278,332
805.891113,318
806.01001,338
806.128906,323
806.247742,327
806.366577,321
806.485413,339
806.604309,322
806.723145,339
806.84198,331
806.960876,341
807.079712,337
807.198486,337
807.317383,339
807.436218,338
807.554993,313
807.673889,335
807.792725,334
807.91156,335
808.030396,329
808.14917,322
808.268005,344
808.386841,336
808.505676,337
808.624451,337
808.743286,342
808.862122,340
808.980896,334
809.099731,339
809.218506,323
809.337341,326
809.456116,332
809.57489,331
809.693726,329
809.8125,337
809.931274,324
810.050049,329
810.168884,337
810.287659,331
810.406372,317
810.525269,328
810.643982,332
810.762756,341
810.881531,336
811.000305,321
811.11908,327
811.237854,324
811.356567,313
811.475403,334
811.594116,336
811.71283,320
811.831604,340
811.950378,332
812.069153,342
812.187927,334
812.30658,341
812.425415,337
812.544128,339
812.662781,333
812.781616,328
812.900269,334
813.019043,346
813.137756,331
813.256531,329
813.375244,334
813.493896,317
813.612671,327
813.731384,342
813.850037,333
813.96875,324
814.087524,334
814.206238,338
814.324951,333
814.443604,350
814.562256,345
814.68103,326
814.799683,326
814.918335,328
815.037109,349
815.155762,317
815.274475,342
815.393188,317
815.511841,331
815.630554,322
815.749146,334
815.867859,327
815.986572,335
816.105164,340
816.223877,327
816.342529,332
816.461182,331
816.579895,335
816.698486,342
816.817139,322
816.935791,314
817.054504,332
817.173096,345
817.291748,325
817.4104,327
817.529053,326
817.647644,330
817.766235,331
817.884949,332
818.00354,321
818.122192,322
818.240845,329
818.359436,312
818.478088,322
818.59668,331
818.715271,336
818.833923,324
818.952515,322
819.071106,326
819.189758,321
819.30835,318
819.426941,319
819.545532,330
819.664124,320
819.782715,307
819.901306,323
820.019897,317
820.138489,327
820.25708,326
820.375671,308
820.494202,319
820.612732,308
820.731384,327
820.849915,322
820.968506,320
821.087097,318
821.205627,320
821.324158,320
821.442749,323
821.561279,325
821.679871,331
821.798401,312
821.916931,313
822.035461,345
822.154053,313
822.272583,315
822.391174,320
822.509583,326
822.628174,318
822.746704,319
822.865234,320
822.983765,309
823.102295,324
823.220825,313
823.339294,305
823.457825,324
823.576355,326
823.694824,318
823.813354,320
823.931885,317
824.050354,321
824.168884,316
824.287354,315
824.405823,312
824.524353,320
824.642822,310
824.761353,324
824.879822,314
824.998291,328
825.116699,295
825.235291,316
825.353699,318
825.472168,320
825.590637,324
825.709106,307
825.827576,318
825.946045,318
826.064453,318
826.182983,307
826.301392,321
826.4198,325
826.53833,312
826.656738,322
826.775208,316
826.893677,316
827.012024,310
827.130493,317
827.248962,330
827.36731,316
827.485779,321
827.604248,319
827.722595,317
827.841064,327
827.959412,310
828.077942,325
828.196289,303
828.314636,317
828.433105,317
828.551514,302
828.669861,319
828.78833,317
828.906677,303
829.025085,322
829.143433,312
829.261841,317
829.38031,311
829.498657,313
829.617004,300
829.735413,313
829.85376,318
829.972107,321
830.090515,314
830.208862,323
830.327209,321
830.445557,316
830.563904,316
830.682312,319
830.800659,303
830.919006,329
831.037354,317
831.155701,317
831.274048,310
831.392395,320
831.51062,318
831.629028,317
831.747314,314
831.865662,316
831.984009,325
832.102356,320
832.220642,324
832.338928,318
832.457275,310
832.575623,326
832.693909,311
832.812134,319
832.930481,316
833.048828,306
833.167114,317
833.2854,324
833.403687,316
833.521973,325
833.640259,321
833.758545,309
833.876831,314
833.995056,315
834.113281,316
834.231628,321
834.349915,329
834.468201,334
834.586426,319
834.704651,312
834.822998,291
834.941162,316
835.059448,323
835.177673,312
835.295959,324
835.414246,311
835.53241,313
835.650635,319
835.768921,308
835.887146,316
836.005371,312
836.123596,309
836.241821,309
836.360046,305
836.478271,309
836.596497,307
836.714722,319
836.832886,312
836.95105,311
837.069336,311
837.1875,306
837.305725,319
837.423889,316
837.542053,315
837.660339,323
837.778503,315
837.896667,310
838.014832,320
838.132996,307
838.25116,333
838.369385,318
838.487488,316
838.605713,305
838.723877,316
838.84198,316
838.960205,309
839.078308,318
839.196472,326
839.314636,315
839.4328,313
839.550964,302
839.669067,323
839.787231,319
839.905396,308
840.023499,314
840.141602,320
840.259766,321
840.377869,324
840.495972,314
840.614136,330
840.732239,321
840.850342,319
840.968445,317
841.086548,321
841.204651,308
841.322754,328
841.440918,305
841.55896,324
841.677002,308
841.795166,305
841.913208,302
842.031311,325
842.149353,318
842.267456,322
842.385498,312
842.503601,316
842.621643,321
842.739746,326
842.857788,312
842.97583,313
843.093933,308
843.211975,328
843.330017,326
843.44812,312
843.566101,305
843.684204,315
843.802246,307
843.920227,319
844.038269,321
844.156311,313
844.274292,328
844.392395,315
844.510376,306
844.628357,319
844.74646,311
844.864441,321
844.982422,329
845.100403,316
845.218384,309
845.336426,313
845.454468,310
845.572449,311
845.69043,307
845.808411,307
845.926453,303
846.044373,316
846.162354,325
846.280396,318
846.398315,308
846.516296,312
846.634216,304
846.752197,320
846.870178,307
846.988098,319
847.106079,317
847.22406,318
847.34198,326
847.4599,313
847.577881,306
847.695801,318
847.813782,302
847.931641,319
848.049561,316
848.167603,304
848.285461,326
848.403381,327
848.521362,324
848.639221,317
848.75708,323
848.875,319
848.99292,305
849.110901,326
849.22876,315
849.34668,314
849.464539,316
849.582458,316
849.700317,314
849.818176,322
849.936096,319
850.053955,323
850.171875,326
850.289673,311
850.407593,313
850.525452,322
850.643311,305
850.761169,316
850.878967,313
850.996887,319
851.114746,312
851.232544,315
851.350403,311
851.468262,305
851.58606,312
851.703979,309
851.821777,318
851.939636,323
852.057434,310
852.175232,308
852.293091,304
852.410889,322
852.528687,316
852.646545,315
852.764343,312
852.88208,313
852.999939,325
853.117676,323
853.235535,310
853.353271,320
853.471069,318
853.588928,313
853.706604,310
853.824402,329
853.9422,324
854.059998,313
854.177734,313
854.295532,316
854.413269,317
854.531006,310
854.648804,310
854.766541,321
854.884277,313
855.002014,310
855.119751,312
855.237549,325
855.355225,313
855.473022,308
855.590698,304
855.708435,319
855.826172,312
855.943848,321
856.061646,302
856.179321,317
856.296997,318
856.414795,320
856.53241,321
856.650085,327
856.767822,320
856.885559,316
857.003174,305
857.120911,315
857.238586,312
857.356201,315
857.473938,328
857.591614,316
857.709351,314
857.826965,316
857.944641,318
858.062317,317
858.179993,314
858.297668,314
858.415283,305
858.532959,336
858.650574,316
858.768188,302
858.885803,319
859.003479,322
859.121094,326
859.23877,312
859.356384,311
859.473999,329
859.591675,318
859.709229,316
859.826843,317
859.944458,309
860.062012,313
860.179626,314
860.297302,321
860.414856,320
860.532471,313
860.650024,314
860.767639,316
860.885193,317
861.002808,301
861.120361,312
861.237976,318
861.35553,318
861.473022,318
861.590698,313
861.708191,316
861.825745,317
861.943298,314
862.060852,313
862.178406,317
862.295959,331
862.413513,321
862.531006,308
862.64856,314
862.766113,306
862.883667,309
863.00116,308
863.118713,306
863.236206,323
863.353699,319
863.471252,317
863.588745,319
863.706177,323
863.82373,316
863.941162,314
864.058716,316
864.176208,310
864.29364,327
864.411194,307
864.528687,314
864.646118,315
864.763611,305
864.881042,318
864.998535,319
865.116028,322
865.233459,320
865.350891,312
865.468384,325
865.585754,323
865.703308,324
865.820679,319
865.938171,301
866.055542,305
866.173035,308
866.290466,327
866.407837,301
866.52533,307
866.6427,322
866.760071,315
866.877563,317
866.994934,326
867.112305,305
867.229736,318
867.347107,317
867.464539,323
867.58197,310
867.699341,315
867.81665,316
867.934082,332
868.051453,307
868.168823,327
868.286194,320
868.403564,320
868.520935,307
868.638306,325
868.755676,319
868.872986,314
868.990295,304
869.107727,316
869.225037,326
869.342346,312
869.459717,319
869.577026,312
869.694336,318
869.811707,306
869.929016,315
870.046326,312
870.163635,300
870.280945,332
870.398254,320
870.515564,313
870.632812,309
870.750183,316
870.867432,307
870.984741,330
871.102051,313
871.219299,329
871.336609,319
871.453918,319
871.571106,311
871.688416,305
871.805664,312
871.922852,311
872.040222,310
872.157471,326
872.274719,302
872.391968,326
872.509155,310
872.626465,320
872.743652,319
872.860962,319
872.978149,307
873.095337,320
873.212646,317
873.329834,329
873.44696,297
873.564209,314
873.681396,302
873.798645,324
873.915894,307
874.03302,308
874.150208,315
874.267456,317
874.384583,317
874.501831,318
874.618958,313
874.736145,313
874.853333,319
874.970459,311
875.087646,330
875.204834,316
875.32196,296
875.439148,328
875.556274,306
875.673401,335
875.790527,318
875.907715,326
876.024841,318
876.141968,329
876.259094,305
876.376282,314
876.493347,317
876.610474,315
876.7276,305
876.844727,314
876.961853,320
877.078918,305
877.195984,318
877.313171,308
877.430237,318
877.547302,317
877.664368,306
877.781433,314
877.898499,319
878.015625,315
878.13269,303
878.249695,326
878.366821,319
878.483887,331
878.600952,321
878.717957,310
878.834961,339
878.952087,314
879.069092,308
879.186157,313
879.303162,301
879.420227,318
879.537231,308
879.654236,312
879.77124,327
879.888306,306
880.005249,307
880.122314,311
880.239319,326
880.356323,306
880.473328,315
880.590271,319
880.707275,316
880.824341,312
880.941284,296
881.058228,307
881.175232,307
881.292236,330
881.40918,323
881.526123,311
881.643066,318
881.760071,301
881.877014,312
881.993958,314
882.11084,312
882.227783,319
882.344727,309
882.46167,325
882.578613,319
882.695618,311
882.812439,314
882.929382,314
883.046326,305
883.163208,310
883.280151,309
883.397034,329
883.513916,302
883.630798,314
883.747742,329
883.864563,323
883.981506,319
884.098389,308
884.21521,321
884.332153,323
884.448975,319
884.565796,311
884.682678,319
884.7995,312
884.916443,306
885.033264,322
885.150085,320
885.266968,318
885.383789,318
885.500671,313
885.617493,311
885.734314,309
885.851196,314
885.967896,316
886.084717,311
886.201599,319
886.318359,304
886.435181,318
886.552002,323
886.668762,321
886.785645,304
886.902344,321
887.019165,310
887.135925,323
887.252747,321
887.369446,321
887.486267,325
887.603027,317
887.719788,311
887.836548,324
887.953247,316
888.070068,318
888.186829,304
888.303528,318
888.420288,310
888.536987,319
888.653687,329
888.770447,319
888.887146,300
889.003967,321
889.120667,316
889.237305,314
889.354065,308
889.470703,309
889.587463,323
889.704163,317
889.820862,306
889.937561,323
890.054199,318
890.170837,327
890.287598,295
890.404236,324
890.520874,314
890.637634,320
890.754211,309
890.87085,310
890.987549,315
891.104187,339
891.220886,321
891.337463,328
891.454102,315
891.57074,314
891.687378,315
891.804077,311
891.920654,306
892.037231,312
892.15387,309
892.270447,316
892.387085,321
892.503723,304
892.6203,301
892.736877,323
892.853516,307
892.970032,324
893.08667,311
893.203186,335
893.319763,310
893.43634,314
893.552917,313
893.669556,332
893.786011,319
893.902588,314
894.019165,319
894.135681,323
894.252197,314
894.368835,317
894.485291,302
894.601868,317
894.718384,320
894.8349,329
894.951355,318
895.067932,314
895.184448,317
895.300964,322
895.417419,303
895.533936,312
895.650452,317
895.766907,309
895.883423,319
895.999878,317
896.116333,328
896.232849,320
896.349304,313
896.465759,321
896.582214,311
896.698669,324
896.815125,319
896.931641,314
897.048035,317
897.164551,327
897.280884,313
897.397339,326
897.513794,335
897.630249,313
897.746582,307
897.863098,317
897.979431,317
898.095886,326
898.212341,306
898.328674,323
898.445129,311
898.561462,324
898.677795,328
898.794312,322
898.910645,313
899.026978,308
899.143433,314
899.259766,311
899.37616,322
899.492493,328
899.608765,306
899.725159,317
899.841553,302
899.957947,317
900.07428,317
900.190552,325
900.306946,313
900.423157,329
900.53949,313
900.655884,322
900.772156,316
900.888489,317
901.004822,311
901.121033,312
901.237366,310
901.353699,311
901.46991,315
901.586304,314
901.702515,311
901.818787,311
901.93512,313
902.051331,310
902.167603,314
902.283875,321
902.400085,315
902.516418,326
902.632629,306
902.74884,320
902.865112,322
902.981384,326
903.097595,312
903.213867,330
903.330017,314
903.446289,323
903.5625,322
903.67865,331
903.794922,311
903.911072,316
904.027344,322
904.143494,320
904.259705,312
904.375916,312
904.492065,305
904.608215,320
904.724426,301
904.840576,330
904.956726,303
905.072876,319
905.189087,315
905.305176,322
905.421387,315
905.537537,317
905.653687,332
905.769775,313
905.885925,317
906.002014,317
906.118164,314
906.234314,307
906.350403,318
906.466492,313
906.582642,318
906.69873,314
906.814758,322
906.930908,319
907.046936,323
907.163086,327
907.279175,322
907.395264,321
907.511353,314
907.62738,329
907.743408,313
907.859497,319
907.975525,323
908.091553,302
908.207703,316
908.32373,311
908.439758,317
908.555786,309
908.671814,314
908.787842,315
908.90387,328
909.019775,319
909.135864,302
909.251892,320
909.367859,327
909.483826,328
909.599854,320
909.715881,332
909.831848,320
909.947815,325
910.063782,313
910.179749,308
910.295776,317
910.411743,313
910.527649,323
910.643616,318
910.759583,302
910.875488,331
910.991455,322
911.107361,320
911.223267,309
911.339294,313
911.4552,315
911.571106,317
911.687073,311
911.802979,319
911.918823,311
912.034729,322
912.150635,313
912.266602,310
912.382446,306
912.498352,306
912.614197,323
912.730103,312
912.846008,305
