792.44574,321
792.56488,351
792.68396,411
792.80304,385
792.92218,339
793.041199,317
793.160339,326
793.279419,349
793.398499,342
793.517578,327
793.636658,323
793.755737,328
793.874817,344
793.993896,350
794.112976,333
794.232056,330
794.351074,318
794.470215,338
794.589233,331
794.708313,331
794.827393,333
794.946411,339
795.065552,335
795.18457,341
795.303589,325
795.422668,326
795.541687,333
795.660767,331
795.779846,324
795.898865,329
796.017883,329
796.136963,336
796.255981,331
796.375061,339
796.49408,337
796.613037,328
796.732117,339
796.851135,332
796.970154,332
797.089233,335
797.208191,337
797.327271,324
797.446228,331
797.565186,335
797.684265,342
797.803223,328
797.922241,332
798.04126,320
798.160278,329
798.279297,316
798.398315,321
798.517273,332
798.636292,323
798.75531,328
798.874268,322
798.993286,333
799.112244,334
799.231323,328
799.350281,339
799.469238,311
799.588257,336
799.707153,323
799.826111,326
799.945129,319
800.064087,335
800.183044,324
800.302063,338
800.421021,311
800.539978,331
800.658936,336
800.777893,335
800.896912,321
801.015747,326
801.134705,330
801.253723,321
801.37262,347
801.491638,330
801.610535,338
801.729492,327
801.84845,328
801.967407,315
802.086243,335
802.205261,326
802.324158,317
802.443115,341
802.562073,330
802.680969,349
802.799927,329
802.918762,333
803.037659,335
803.156677,328
803.275574,332
803.39447,338
803.513428,333
803.632263,343
803.751221,339
803.870117,326
803.989014,325
804.107971,326
804.226746,320
804.345642,343
804.4646,324
804.583496,333
804.702393,337
804.821228,326
804.940125,338
805.059021,318
805.177917,317
805.296814,342
805.415649,334
805.534546,336
805.653442,344
805.772278,333
805.891113,331
806.01001,315
806.128906,325
806.247742,339
806.366577,327
806.485413,336
806.604309,332
806.723145,327
806.84198,337
806.960876,335
807.079712,330
807.198486,337
807.317383,335
807.436218,335
807.554993,313
807.673889,318
807.792725,320
807.91156,330
808.030396,339
808.14917,320
808.268005,330
808.386841,334
808.505676,325
808.624451,326
808.743286,333
808.862122,329
808.980896,327
809.099731,312
809.218506,334
809.337341,341
809.456116,333
809.57489,352
809.693726,339
809.8125,334
809.931274,333
810.050049,332
810.168884,336
810.287659,334
810.406372,339
810.525269,332
810.643982,326
810.762756,327
810.881531,336
811.000305,340
811.11908,336
811.237854,346
811.356567,331
811.475403,332
811.594116,325
811.71283,335
811.831604,340
811.950378,334
812.069153,325
812.187927,335
812.30658,321
812.425415,335
812.544128,321
812.662781,335
812.781616,338
812.900269,341
813.019043,335
813.137756,348
813.256531,335
813.375244,331
813.493896,319
813.612671,338
813.731384,327
813.850037,344
813.96875,304
814.087524,331
814.206238,344
814.324951,328
814.443604,327
814.562256,331
814.68103,314
814.799683,343
814.918335,326
815.037109,338
815.155762,337
815.274475,336
815.393188,324
815.511841,327
815.630554,342
815.749146,325
815.867859,331
815.986572,336
816.105164,326
816.223877,328
816.342529,333
816.461182,330
816.579895,329
816.698486,342
816.817139,330
816.935791,325
817.054504,323
817.173096,336
817.291748,317
817.4104,321
817.529053,328
817.647644,327
817.766235,334
817.884949,344
818.00354,329
818.122192,330
818.240845,346
818.359436,331
818.478088,324
818.59668,336
818.715271,304
818.833923,325
818.952515,325
819.071106,322
819.189758,322
819.30835,306
819.426941,317
819.545532,323
819.664124,331
819.782715,329
819.901306,326
820.019897,325
820.138489,322
820.25708,327
820.375671,320
820.494202,323
820.612732,322
820.731384,329
820.849915,316
820.968506,305
821.087097,318
821.205627,317
821.324158,323
821.442749,318
821.561279,320
821.679871,321
821.798401,318
821.916931,337
822.035461,319
822.154053,319
822.272583,309
822.391174,329
822.509583,316
822.628174,325
822.746704,317
822.865234,316
822.983765,308
823.102295,326
823.220825,306
823.339294,324
823.457825,323
823.576355,325
823.694824,320
823.813354,321
823.931885,322
824.050354,329
824.168884,327
824.287354,307
824.405823,306
824.524353,323
824.642822,320
824.761353,319
824.879822,321
824.998291,326
825.116699,306
825.235291,326
825.353699,314
825.472168,318
825.590637,311
825.709106,335
825.827576,321
825.946045,312
826.064453,312
826.182983,311
826.301392,328
826.4198,320
826.53833,320
826.656738,321
826.775208,310
826.893677,307
827.012024,315
827.130493,311
827.248962,307
827.36731,324
827.485779,319
827.604248,323
827.722595,310
827.841064,321
827.959412,325
828.077942,318
828.196289,297
828.314636,304
828.433105,320
828.551514,313
828.669861,315
828.78833,323
828.906677,314
829.025085,328
829.143433,328
829.261841,324
829.38031,316
829.498657,319
829.617004,329
829.735413,327
829.85376,309
829.972107,316
830.090515,307
830.208862,321
830.327209,311
830.445557,327
830.563904,317
830.682312,324
830.800659,306
830.919006,320
831.037354,318
831.155701,341
831.274048,314
831.392395,335
831.51062,295
831.629028,324
831.747314,305
831.865662,313
831.984009,318
832.102356,324
832.220642,323
832.338928,305
832.457275,293
832.575623,330
832.693909,316
832.812134,315
832.930481,319
833.048828,305
833.167114,318
833.2854,311
833.403687,317
833.521973,333
833.640259,322
833.758545,333
833.876831,311
833.995056,312
834.113281,316
834.231628,321
834.349915,321
834.468201,315
834.586426,328
834.704651,319
834.822998,311
834.941162,328
835.059448,311
835.177673,315
835.295959,315
835.414246,311
835.53241,312
835.650635,312
835.768921,313
835.887146,316
836.005371,310
836.123596,316
836.241821,324
836.360046,318
836.478271,312
836.596497,316
836.714722,313
836.832886,309
836.95105,322
837.069336,321
837.1875,311
837.305725,325
837.423889,317
837.542053,328
837.660339,312
837.778503,318
837.896667,311
838.014832,315
838.132996,328
838.25116,317
838.369385,313
838.487488,326
838.605713,319
838.723877,329
838.84198,319
838.960205,331
839.078308,303
839.196472,317
839.314636,311
839.4328,324
839.550964,312
839.669067,327
839.787231,322
839.905396,326
840.023499,324
840.141602,301
840.259766,313
840.377869,309
840.495972,326
840.614136,323
840.732239,304
840.850342,323
840.968445,307
841.086548,330
841.204651,318
841.322754,308
841.440918,303
841.55896,318
841.677002,315
841.795166,321
841.913208,320
842.031311,323
842.149353,326
842.267456,310
842.385498,323
842.503601,324
842.621643,301
842.739746,329
842.857788,314
842.97583,315
843.093933,305
843.211975,317
843.330017,308
843.44812,333
843.566101,312
843.684204,319
843.802246,317
843.920227,312
844.038269,315
844.156311,323
844.274292,319
844.392395,317
844.510376,309
844.628357,323
844.74646,301
844.864441,320
844.982422,321
845.100403,317
845.218384,320
845.336426,315
845.454468,309
845.572449,318
845.69043,321
845.808411,312
845.926453,323
846.044373,308
846.162354,312
846.280396,316
846.398315,318
846.516296,336
846.634216,305
846.752197,328
846.870178,303
846.988098,321
847.106079,322
847.22406,313
847.34198,308
847.4599,302
847.577881,310
847.695801,323
847.813782,319
847.931641,320
848.049561,311
848.167603,323
848.285461,318
848.403381,325
848.521362,303
848.639221,324
848.75708,313
848.875,318
848.99292,319
849.110901,315
849.22876,311
849.34668,312
849.464539,313
849.582458,316
849.700317,311
849.818176,318
849.936096,318
850.053955,316
850.171875,308
850.289673,317
850.407593,316
850.525452,328
850.643311,308
850.761169,329
850.878967,308
850.996887,323
851.114746,303
851.232544,309
851.350403,310
851.468262,315
851.58606,312
851.703979,314
851.821777,317
851.939636,312
852.057434,315
852.175232,322
852.293091,319
852.410889,314
852.528687,316
852.646545,320
852.764343,315
852.88208,324
852.999939,302
853.117676,319
853.235535,313
853.353271,321
853.471069,316
853.588928,319
853.706604,313
853.824402,323
853.9422,309
854.059998,323
854.177734,313
854.295532,308
854.413269,317
854.531006,320
854.648804,318
854.766541,310
854.884277,322
855.002014,315
855.119751,316
855.237549,321
855.355225,303
855.473022,312
855.590698,324
855.708435,297
855.826172,319
855.943848,326
856.061646,312
856.179321,314
856.296997,303
856.414795,309
856.53241,312
856.650085,323
856.767822,316
856.885559,310
857.003174,308
857.120911,320
857.238586,313
857.356201,320
857.473938,308
857.591614,322
857.709351,319
857.826965,318
857.944641,318
858.062317,315
858.179993,310
858.297668,326
858.415283,315
858.532959,316
858.650574,301
858.768188,323
858.885803,314
859.003479,314
859.121094,319
859.23877,332
859.356384,324
859.473999,332
859.591675,317
859.709229,317
859.826843,307
859.944458,303
860.062012,314
860.179626,317
860.297302,332
860.414856,329
860.532471,319
860.650024,325
860.767639,313
860.885193,317
861.002808,328
861.120361,320
861.237976,312
861.35553,319
861.473022,313
861.590698,311
861.708191,305
861.825745,318
861.943298,328
862.060852,319
862.178406,333
862.295959,323
862.413513,307
862.531006,307
862.64856,327
862.766113,310
862.883667,317
863.00116,320
863.118713,304
863.236206,299
863.353699,311
863.471252,324
863.588745,317
863.706177,319
863.82373,309
863.941162,309
864.058716,312
864.176208,315
864.29364,306
864.411194,328
864.528687,317
864.646118,318
864.763611,315
864.881042,321
864.998535,320
865.116028,322
865.233459,301
865.350891,316
865.468384,317
865.585754,319
865.703308,334
865.820679,316
865.938171,306
866.055542,309
866.173035,318
866.290466,317
866.407837,305
866.52533,324
866.6427,323
866.760071,319
866.877563,299
866.994934,321
867.112305,307
867.229736,324
867.347107,318
867.464539,324
867.58197,318
867.699341,332
867.81665,324
867.934082,319
868.051453,324
868.168823,303
868.286194,318
868.403564,315
868.520935,315
868.638306,315
868.755676,310
868.872986,302
868.990295,319
869.107727,320
869.225037,296
869.342346,310
869.459717,320
869.577026,321
869.694336,311
869.811707,309
869.929016,324
870.046326,317
870.163635,301
870.280945,308
870.398254,320
870.515564,322
870.632812,303
870.750183,319
870.867432,318
870.984741,333
871.102051,309
871.219299,325
871.336609,312
871.453918,324
871.571106,306
871.688416,317
871.805664,309
871.922852,324
872.040222,315
872.157471,328
872.274719,309
872.391968,310
872.509155,314
872.626465,340
872.743652,315
872.860962,334
872.978149,316
873.095337,308
873.212646,316
873.329834,305
873.44696,322
873.564209,313
873.681396,311
873.798645,324
873.915894,311
874.03302,329
874.150208,307
874.267456,310
874.384583,314
874.501831,339
874.618958,317
874.736145,323
874.853333,305
874.970459,318
875.087646,319
875.204834,331
875.32196,318
875.439148,304
875.556274,311
875.673401,318
875.790527,312
875.907715,319
876.024841,316
876.141968,326
876.259094,298
876.376282,310
876.493347,313
876.610474,313
876.7276,320
876.844727,322
876.961853,317
877.078918,321
877.195984,304
877.313171,319
877.430237,297
877.547302,322
877.664368,314
877.781433,327
877.898499,315
878.015625,316
878.13269,322
878.249695,320
878.366821,300
878.483887,324
878.600952,301
878.717957,316
878.834961,316
878.952087,300
879.069092,319
879.186157,333
879.303162,310
879.420227,333
879.537231,313
879.654236,316
879.77124,307
879.888306,335
880.005249,316
880.122314,316
880.239319,318
880.356323,317
880.473328,301
880.590271,314
880.707275,312
880.824341,305
880.941284,307
881.058228,318
881.175232,312
881.292236,311
881.40918,316
881.526123,329
881.643066,303
881.760071,321
881.877014,306
881.993958,313
882.11084,305
882.227783,329
882.344727,311
882.46167,316
882.578613,322
882.695618,311
882.812439,308
882.929382,323
883.046326,309
883.163208,310
883.280151,331
883.397034,302
883.513916,322
883.630798,313
883.747742,316
883.864563,322
883.981506,322
884.098389,298
884.21521,316
884.332153,320
884.448975,314
884.565796,334
884.682678,313
884.7995,322
884.916443,325
885.033264,311
885.150085,309
885.266968,329
885.383789,301
885.500671,320
885.617493,316
885.734314,324
885.851196,332
885.967896,311
886.084717,310
886.201599,312
886.318359,304
886.435181,316
886.552002,321
886.668762,316
886.785645,313
886.902344,322
887.019165,314
887.135925,321
887.252747,322
887.369446,333
887.486267,319
887.603027,326
887.719788,309
887.836548,305
887.953247,310
888.070068,319
888.186829,308
888.303528,316
888.420288,315
888.536987,308
888.653687,311
888.770447,318
888.887146,324
889.003967,324
889.120667,307
889.237305,320
889.354065,303
889.470703,319
889.587463,301
889.704163,317
889.820862,318
889.937561,319
890.054199,315
890.170837,314
890.287598,316
890.404236,335
890.520874,307
890.637634,311
890.754211,319
890.87085,319
890.987549,312
891.104187,313
891.220886,315
891.337463,313
891.454102,324
891.57074,313
891.687378,314
891.804077,318
891.920654,331
892.037231,323
892.15387,313
892.270447,330
892.387085,321
892.503723,324
892.6203,312
892.736877,317
892.853516,324
892.970032,322
893.08667,306
893.203186,320
893.319763,316
893.43634,319
893.552917,305
893.669556,319
893.786011,315
893.902588,312
894.019165,300
894.135681,321
894.252197,320
894.368835,308
894.485291,329
894.601868,317
894.718384,317
894.8349,315
894.951355,300
895.067932,319
895.184448,301
895.300964,314
895.417419,293
895.533936,311
895.650452,320
895.766907,315
895.883423,324
895.999878,323
896.116333,316
896.232849,319
896.349304,320
896.465759,318
896.582214,313
896.698669,316
896.815125,314
896.931641,314
897.048035,300
897.164551,322
897.280884,307
897.397339,315
897.513794,324
897.630249,321
897.746582,305
897.863098,325
897.979431,308
898.095886,320
898.212341,323
898.328674,321
898.445129,310
898.561462,323
898.677795,306
898.794312,312
898.910645,317
899.026978,317
899.143433,305
899.259766,320
899.37616,314
899.492493,308
899.608765,302
899.725159,322
899.841553,305
899.957947,305
900.07428,318
900.190552,309
900.306946,309
900.423157,325
900.53949,308
900.655884,313
900.772156,324
900.888489,329
901.004822,320
901.121033,320
901.237366,312
901.353699,318
901.46991,323
901.586304,304
901.702515,314
901.818787,323
901.93512,326
902.051331,324
902.167603,318
902.283875,328
902.400085,310
902.516418,322
902.632629,310
902.74884,329
902.865112,309
902.981384,329
903.097595,324
903.213867,326
903.330017,311
903.446289,325
903.5625,309
903.67865,314
903.794922,316
903.911072,318
904.027344,311
904.143494,314
904.259705,307
904.375916,324
904.492065,310
904.608215,313
904.724426,317
904.840576,316
904.956726,313
905.072876,315
905.189087,313
905.305176,314
905.421387,328
905.537537,321
905.653687,311
905.769775,325
905.885925,314
906.002014,329
906.118164,310
906.234314,325
906.350403,306
906.466492,311
906.582642,317
906.69873,323
906.814758,307
906.930908,312
907.046936,300
907.163086,314
907.279175,313
907.395264,313
907.511353,297
907.62738,316
907.743408,321
907.859497,321
907.975525,307
908.091553,324
908.207703,323
908.32373,297
908.439758,308
908.555786,322
908.671814,311
908.787842,332
908.90387,311
909.019775,327
909.135864,311
909.251892,319
909.367859,303
909.483826,315
909.599854,317
909.715881,317
909.831848,299
909.947815,325
910.063782,309
910.179749,321
910.295776,305
910.411743,321
910.527649,310
910.643616,331
910.759583,321
910.875488,330
910.991455,320
911.107361,315
911.223267,309
911.339294,325
911.4552,322
911.571106,321
911.687073,317
911.802979,315
911.918823,339
912.034729,320
912.150635,304
912.266602,319
912.382446,313
912.498352,326
912.614197,328
912.730103,316
912.846008,322
792.44574,318
792.56488,361
792.68396,401
792.80304,381
792.92218,341
793.041199,324
793.160339,321
793.279419,343
793.398499,360
793.517578,319
793.636658,324
793.755737,341
793.874817,351
793.993896,351
794.112976,330
794.232056,330
794.351074,337
794.470215,328
794.589233,339
794.708313,326
794.827393,335
794.946411,324
795.065552,360
795.18457,343
795.303589,320
795.422668,317
795.541687,330
795.660767,314
795.779846,342
795.898865,320
796.017883,324
796.136963,336
796.255981,326
796.375061,332
796.49408,349
796.613037,340
796.732117,328
796.851135,328
796.970154,311
797.089233,324
797.208191,325
797.327271,332
797.446228,320
797.565186,336
797.684265,333
797.803223,326
797.922241,332
798.04126,337
798.160278,341
798.279297,330
798.398315,328
798.517273,321
798.636292,328
798.75531,328
798.874268,318
798.993286,325
799.112244,321
799.231323,321
799.350281,332
799.469238,320
799.588257,332
799.707153,331
799.826111,333
799.945129,338
800.064087,332
800.183044,323
800.302063,318
800.421021,333
800.539978,325
800.658936,338
800.777893,341
800.896912,333
801.015747,342
801.134705,335
801.253723,327
801.37262,334
801.491638,339
801.610535,337
801.729492,327
801.84845,328
801.967407,315
802.086243,318
802.205261,323
802.324158,328
802.443115,337
802.562073,323
802.680969,326
802.799927,336
802.918762,323
803.037659,319
803.156677,327
803.275574,329
803.39447,332
803.513428,339
803.632263,342
803.751221,336
803.870117,325
803.989014,320
804.107971,333
804.226746,335
804.345642,332
804.4646,313
804.583496,322
804.702393,329
804.821228,335
804.940125,325
805.059021,327
805.177917,324
805.296814,342
805.415649,335
805.534546,327
805.653442,317
805.772278,333
805.891113,320
806.01001,329
806.128906,329
806.247742,335
806.366577,325
806.485413,319
806.604309,338
806.723145,341
806.84198,324
806.960876,325
807.079712,325
807.198486,328
807.317383,329
807.436218,330
807.554993,328
807.673889,334
807.792725,319
807.91156,332
808.030396,325
808.14917,325
808.268005,347
808.386841,330
808.505676,338
808.624451,338
808.743286,328
808.862122,340
808.980896,328
809.099731,338
809.218506,333
809.337341,328
809.456116,331
809.57489,339
809.693726,332
809.8125,337
809.931274,338
810.050049,343
810.168884,336
810.287659,342
810.406372,339
810.525269,340
810.643982,311
810.762756,333
810.881531,341
811.000305,326
811.11908,341
811.237854,326
811.356567,334
811.475403,346
811.594116,332
811.71283,339
811.831604,322
811.950378,353
812.069153,331
812.187927,330
812.30658,328
812.425415,331
812.544128,338
812.662781,341
812.781616,331
812.900269,337
813.019043,342
813.137756,332
813.256531,326
813.375244,340
813.493896,332
813.612671,330
813.731384,327
813.850037,335
813.96875,321
814.087524,339
814.206238,317
814.324951,338
814.443604,324
814.562256,349
814.68103,338
814.799683,327
814.918335,326
815.037109,343
815.155762,346
815.274475,335
815.393188,322
815.511841,329
815.630554,336
815.749146,324
815.867859,326
815.986572,328
816.105164,331
816.223877,332
816.342529,344
816.461182,332
816.579895,337
816.698486,323
816.817139,320
816.935791,335
817.054504,350
817.173096,349
817.291748,330
817.4104,326
817.529053,332
817.647644,323
817.766235,341
817.884949,324
818.00354,320
818.122192,318
818.240845,319
818.359436,329
818.478088,318
818.59668,312
818.715271,322
818.833923,325
818.952515,317
819.071106,327
819.189758,323
819.30835,321
819.426941,318
819.545532,325
819.664124,316
819.782715,321
819.901306,320
820.019897,312
820.138489,323
820.25708,321
820.375671,324
820.494202,331
820.612732,324
820.731384,325
820.849915,321
820.968506,322
821.087097,311
821.205627,328
821.324158,329
821.442749,328
821.561279,314
821.679871,325
821.798401,309
821.916931,326
822.035461,329
822.154053,323
822.272583,315
822.391174,315
822.509583,304
822.628174,326
822.746704,312
822.865234,339
822.983765,307
823.102295,324
823.220825,321
823.339294,326
823.457825,302
823.576355,316
823.694824,305
823.813354,309
823.931885,326
824.050354,326
824.168884,316
824.287354,320
824.405823,321
824.524353,323
824.642822,333
824.761353,313
824.879822,316
824.998291,313
825.116699,306
825.235291,318
825.353699,310
825.472168,328
825.590637,320
825.709106,323
825.827576,323
825.946045,313
826.064453,309
826.182983,307
826.301392,322
826.4198,320
826.53833,296
826.656738,325
826.775208,320
826.893677,305
827.012024,316
827.130493,309
827.248962,330
827.36731,309
827.485779,310
827.604248,313
827.722595,317
827.841064,320
827.959412,316
828.077942,327
828.196289,315
828.314636,305
828.433105,325
828.551514,315
828.669861,317
828.78833,330
828.906677,322
829.025085,324
829.143433,318
829.261841,325
829.38031,323
829.498657,328
829.617004,314
829.735413,326
829.85376,324
829.972107,331
830.090515,320
830.208862,333
830.327209,317
830.445557,323
830.563904,316
830.682312,308
830.800659,316
830.919006,313
831.037354,314
831.155701,323
831.274048,331
831.392395,322
831.51062,316
831.629028,309
831.747314,325
831.865662,314
831.984009,309
832.102356,310
832.220642,319
832.338928,322
832.457275,327
832.575623,323
832.693909,323
832.812134,315
832.930481,309
833.048828,311
833.167114,327
833.2854,307
833.403687,324
833.521973,326
833.640259,303
833.758545,319
833.876831,312
833.995056,332
834.113281,314
834.231628,314
834.349915,316
834.468201,317
834.586426,311
834.704651,321
834.822998,319
834.941162,313
835.059448,303
835.177673,322
835.295959,319
835.414246,319
835.53241,323
835.650635,312
835.768921,320
835.887146,313
836.005371,310
836.123596,320
836.241821,313
836.360046,321
836.478271,308
836.596497,318
836.714722,312
836.832886,332
836.95105,318
837.069336,306
837.1875,318
837.305725,334
837.423889,314
837.542053,333
837.660339,322
837.778503,322
837.896667,314
838.014832,315
838.132996,311
838.25116,326
838.369385,323
838.487488,323
838.605713,325
838.723877,321
838.84198,303
838.960205,305
839.078308,315
839.196472,321
839.314636,314
839.4328,331
839.550964,305
839.669067,321
839.787231,310
839.905396,329
840.023499,321
840.141602,329
840.259766,306
840.377869,310
840.495972,308
840.614136,318
840.732239,319
840.850342,331
840.968445,311
841.086548,314
841.204651,315
841.322754,327
841.440918,310
841.55896,325
841.677002,324
841.795166,317
841.913208,314
842.031311,317
842.149353,315
842.267456,315
842.385498,324
842.503601,326
842.621643,317
842.739746,324
842.857788,319
842.97583,311
843.093933,301
843.211975,323
843.330017,315
843.44812,327
843.566101,321
843.684204,314
843.802246,315
843.920227,314
844.038269,311
844.156311,318
844.274292,308
844.392395,314
844.510376,311
844.628357,325
844.74646,310
844.864441,314
844.982422,317
845.100403,325
845.218384,317
845.336426,328
845.454468,316
845.572449,314
845.69043,313
845.808411,314
845.926453,316
846.044373,317
846.162354,313
846.280396,318
846.398315,299
846.516296,320
846.634216,313
846.752197,322
846.870178,323
846.988098,329
847.106079,318
847.22406,308
847.34198,309
847.4599,330
847.577881,319
847.695801,311
847.813782,307
847.931641,315
848.049561,324
848.167603,323
848.285461,310
848.403381,310
848.521362,323
848.639221,319
848.75708,326
848.875,312
848.99292,307
849.110901,307
849.22876,322
849.34668,319
849.464539,317
849.582458,319
849.700317,303
849.818176,329
849.936096,306
850.053955,320
850.171875,312
850.289673,323
850.407593,313
850.525452,319
850.643311,309
850.761169,317
850.878967,306
850.996887,307
851.114746,304
851.232544,323
851.350403,305
851.468262,316
851.58606,321
851.703979,313
851.821777,301
851.939636,322
852.057434,312
852.175232,312
852.293091,312
852.410889,333
852.528687,303
852.646545,322
852.764343,316
852.88208,322
852.999939,308
853.117676,313
853.235535,307
853.353271,314
853.471069,314
853.588928,313
853.706604,318
853.824402,321
853.9422,313
854.059998,330
854.177734,322
854.295532,318
854.413269,313
854.531006,319
854.648804,318
854.766541,312
854.884277,317
855.002014,325
855.119751,322
855.237549,321
855.355225,302
855.473022,320
855.590698,313
855.708435,315
855.826172,314
855.943848,315
856.061646,325
856.179321,321
856.296997,312
856.414795,319
856.53241,310
856.650085,311
856.767822,302
856.885559,320
857.003174,321
857.120911,316
857.238586,314
857.356201,310
857.473938,324
857.591614,322
857.709351,309
857.826965,318
857.944641,319
858.062317,322
858.179993,321
858.297668,321
858.415283,304
858.532959,330
858.650574,295
858.768188,321
858.885803,319
859.003479,323
859.121094,309
859.23877,326
859.356384,315
859.473999,324
859.591675,310
859.709229,302
859.826843,320
859.944458,318
860.062012,329
860.179626,332
860.297302,309
860.414856,317
860.532471,301
860.650024,325
860.767639,312
860.885193,298
861.002808,313
861.120361,317
861.237976,323
861.35553,313
861.473022,304
861.590698,333
861.708191,317
861.825745,315
861.943298,303
862.060852,297
862.178406,315
862.295959,317
862.413513,312
862.531006,318
862.64856,301
862.766113,324
862.883667,310
863.00116,314
863.118713,315
863.236206,310
863.353699,312
863.471252,329
863.588745,314
863.706177,319
863.82373,310
863.941162,313
864.058716,310
864.176208,315
864.29364,322
864.411194,322
864.528687,299
864.646118,315
864.763611,313
864.881042,316
864.998535,322
865.116028,317
865.233459,324
865.350891,311
865.468384,321
865.585754,317
865.703308,308
865.820679,323
865.938171,314
866.055542,313
866.173035,313
866.290466,331
866.407837,291
866.52533,308
866.6427,312
866.760071,322
866.877563,305
866.994934,315
867.112305,313
867.229736,303
867.347107,306
867.464539,310
867.58197,298
867.699341,329
867.81665,322
867.934082,336
868.051453,314
868.168823,316
868.286194,312
868.403564,306
868.520935,309
868.638306,317
868.755676,318
868.872986,318
868.990295,317
869.107727,310
869.225037,305
869.342346,312
869.459717,307
869.577026,318
869.694336,308
869.811707,315
869.929016,297
870.046326,321
870.163635,314
870.280945,315
870.398254,331
870.515564,316
870.632812,313
870.750183,317
870.867432,328
870.984741,314
871.102051,314
871.219299,329
871.336609,307
871.453918,313
871.571106,308
871.688416,313
871.805664,305
871.922852,320
872.040222,326
872.157471,313
872.274719,318
872.391968,314
872.509155,320
872.626465,319
872.743652,309
872.860962,321
872.978149,311
873.095337,307
873.212646,334
873.329834,323
873.44696,317
873.564209,324
873.681396,301
873.798645,321
873.915894,303
874.03302,316
874.150208,303
874.267456,330
874.384583,292
874.501831,316
874.618958,310
874.736145,325
874.853333,316
874.970459,307
875.087646,313
875.204834,313
875.32196,316
875.439148,319
875.556274,294
875.673401,320
875.790527,310
875.907715,313
876.024841,305
876.141968,318
876.259094,307
876.376282,320
876.493347,310
876.610474,325
876.7276,316
876.844727,321
876.961853,315
877.078918,306
877.195984,315
877.313171,318
877.430237,316
877.547302,316
877.664368,320
877.781433,319
877.898499,315
878.015625,316
878.13269,319
878.249695,299
878.366821,308
878.483887,316
878.600952,313
878.717957,308
878.834961,309
878.952087,317
879.069092,316
879.186157,318
879.303162,307
879.420227,320
879.537231,301
879.654236,310
879.77124,314
879.888306,337
880.005249,311
880.122314,328
880.239319,318
880.356323,326
880.473328,308
880.590271,312
880.707275,308
880.824341,315
880.941284,307
881.058228,317
881.175232,319
881.292236,328
881.40918,309
881.526123,309
881.643066,317
881.760071,323
881.877014,311
881.993958,332
882.11084,321
882.227783,319
882.344727,310
882.46167,321
882.578613,310
882.695618,321
882.812439,324
882.929382,306
883.046326,315
883.163208,311
883.280151,322
883.397034,327
883.513916,320
883.630798,319
883.747742,322
883.864563,301
883.981506,314
884.098389,323
884.21521,298
884.332153,314
884.448975,315
884.565796,321
884.682678,314
884.7995,326
884.916443,326
885.033264,322
885.150085,317
885.266968,318
885.383789,308
885.500671,325
885.617493,317
885.734314,312
885.851196,314
885.967896,314
886.084717,308
886.201599,314
886.318359,317
886.435181,321
886.552002,316
886.668762,337
886.785645,318
886.902344,328
887.019165,316
887.135925,322
887.252747,328
887.369446,304
887.486267,317
887.603027,318
887.719788,304
887.836548,331
887.953247,306
888.070068,315
888.186829,320
888.303528,300
888.420288,315
888.536987,314
888.653687,310
888.770447,308
888.887146,316
889.003967,324
889.120667,313
889.237305,313
889.354065,307
889.470703,314
889.587463,316
889.704163,317
889.820862,329
889.937561,324
890.054199,305
890.170837,321
890.287598,320
890.404236,316
890.520874,304
890.637634,311
890.754211,311
890.87085,309
890.987549,323
891.104187,304
891.220886,321
891.337463,303
891.454102,324
891.57074,320
891.687378,313
891.804077,329
891.920654,318
892.037231,323
892.15387,311
892.270447,318
892.387085,307
892.503723,324
892.6203,325
892.736877,321
892.853516,313
892.970032,321
893.08667,307
893.203186,311
893.319763,315
893.43634,324
893.552917,316
893.669556,321
893.786011,323
893.902588,322
894.019165,313
894.135681,328
894.252197,317
894.368835,328
894.485291,307
894.601868,314
894.718384,316
894.8349,316
894.951355,308
895.067932,315
895.184448,304
895.300964,331
895.417419,316
895.533936,312
895.650452,318
895.766907,310
895.883423,305
895.999878,324
896.116333,321
896.232849,330
896.349304,317
896.465759,313
896.582214,317
896.698669,312
896.815125,316
896.931641,313
897.048035,316
897.164551,322
897.280884,306
897.397339,330
897.513794,322
897.630249,323
897.746582,320
897.863098,318
897.979431,312
898.095886,323
898.212341,302
898.328674,321
898.445129,304
898.561462,324
898.677795,311
898.794312,329
898.910645,314
899.026978,335
899.143433,323
899.259766,295
899.37616,316
899.492493,314
899.608765,316
899.725159,317
899.841553,315
899.957947,321
900.07428,326
900.190552,315
900.306946,315
900.423157,320
900.53949,321
900.655884,331
900.772156,310
900.888489,325
901.004822,303
901.121033,312
901.237366,297
901.353699,311
901.46991,312
901.586304,325
901.702515,311
901.818787,334
901.93512,313
902.051331,312
902.167603,314
902.283875,323
902.400085,321
902.516418,319
902.632629,321
902.74884,328
902.865112,303
902.981384,311
903.097595,313
903.213867,315
903.330017,314
903.446289,323
903.5625,328
903.67865,320
903.794922,321
903.911072,330
904.027344,317
904.143494,322
904.259705,311
904.375916,305
904.492065,317
904.608215,316
904.724426,312
904.840576,320
904.956726,339
905.072876,323
905.189087,322
905.305176,330
905.421387,316
905.537537,330
905.653687,328
905.769775,322
905.885925,309
906.002014,326
906.118164,312
906.234314,322
906.350403,316
906.466492,326
906.582642,317
906.69873,327
906.814758,317
906.930908,312
907.046936,329
907.163086,314
907.279175,322
907.395264,312
907.511353,312
907.62738,318
907.743408,301
907.859497,324
907.975525,325
908.091553,318
908.207703,298
908.32373,325
908.439758,313
908.555786,320
908.671814,318
908.787842,319
908.90387,319
909.019775,321
909.135864,323
909.251892,318
909.367859,326
909.483826,303
909.599854,316
909.715881,319
909.831848,310
909.947815,310
910.063782,300
910.179749,319
910.295776,301
910.411743,319
910.527649,302
910.643616,329
910.759583,317
910.875488,328
910.991455,310
911.107361,311
911.223267,315
911.339294,323
911.4552,305
911.571106,320
911.687073,315
911.802979,317
911.918823,318
912.034729,330
912.150635,306
912.266602,316
912.382446,309
912.498352,318
912.614197,313
912.730103,311
912.846008,308
792.44574,317
792.56488,359
792.68396,395
792.80304,389
792.92218,336
793.041199,328
793.160339,328
793.279419,339
793.398499,331
793.517578,335
793.636658,332
793.755737,343
793.874817,359
793.993896,337
794.112976,342
794.232056,335
794.351074,337
794.470215,334
794.589233,328
794.708313,330
794.827393,337
794.946411,318
795.065552,339
795.18457,321
795.303589,333
795.422668,335
795.541687,345
795.660767,328
795.779846,345
795.898865,335
796.017883,320
796.136963,323
796.255981,332
796.375061,342
796.49408,333
796.613037,340
796.732117,332
796.851135,333
796.970154,330
797.089233,338
797.208191,317
797.327271,332
797.446228,331
797.565186,343
797.684265,314
797.803223,341
797.922241,323
798.04126,322
798.160278,329
798.279297,330
798.398315,325
798.517273,328
798.636292,335
798.75531,346
798.874268,314
798.993286,325
799.112244,327
799.231323,313
799.350281,322
799.469238,336
799.588257,326
799.707153,332
799.826111,345
799.945129,329
800.064087,319
800.183044,337
800.302063,337
800.421021,325
800.539978,316
800.658936,337
800.777893,330
800.896912,326
801.015747,334
801.134705,325
801.253723,336
801.37262,323
801.491638,308
801.610535,349
801.729492,328
801.84845,335
801.967407,332
802.086243,328
802.205261,331
802.324158,313
802.443115,332
802.562073,318
802.680969,335
802.799927,322
802.918762,327
803.037659,335
803.156677,328
803.275574,327
803.39447,337
803.513428,341
803.632263,342
803.751221,332
803.870117,332
803.989014,319
804.107971,338
804.226746,337
804.345642,332
804.4646,333
804.583496,325
804.702393,332
804.821228,334
804.940125,336
805.059021,338
805.177917,322
805.296814,327
805.415649,327
805.534546,323
805.653442,331
805.772278,335
805.891113,322
806.01001,358
806.128906,319
806.247742,319
806.366577,326
806.485413,316
806.604309,331
806.723145,326
806.84198,334
806.960876,327
807.079712,319
807.198486,346
807.317383,325
807.436218,328
807.554993,336
807.673889,338
807.792725,325
807.91156,333
808.030396,323
808.14917,328
808.268005,348
808.386841,329
808.505676,313
808.624451,326
808.743286,328
808.862122,341
808.980896,327
809.099731,323
809.218506,332
809.337341,325
809.456116,333
809.57489,317
809.693726,337
809.8125,336
809.931274,331
810.050049,340
810.168884,331
810.287659,353
810.406372,334
810.525269,330
810.643982,340
810.762756,338
810.881531,345
811.000305,326
811.11908,345
811.237854,329
811.356567,346
811.475403,335
811.594116,330
811.71283,335
811.831604,332
811.950378,333
812.069153,339
812.187927,341
812.30658,315
812.425415,334
812.544128,329
812.662781,331
812.781616,337
812.900269,321
813.019043,331
813.137756,337
813.256531,336
813.375244,325
813.493896,329
813.612671,336
813.731384,326
813.850037,325
813.96875,331
814.087524,326
814.206238,336
814.324951,331
814.443604,334
814.562256,326
814.68103,334
814.799683,325
814.918335,316
815.037109,332
815.155762,340
815.274475,334
815.393188,326
815.511841,336
815.630554,330
815.749146,331
815.867859,331
815.986572,316
816.105164,320
816.223877,348
816.342529,338
816.461182,332
816.579895,325
816.698486,330
816.817139,334
816.935791,339
817.054504,310
817.173096,335
817.291748,342
817.4104,340
817.529053,328
817.647644,331
817.766235,312
817.884949,330
818.00354,322
818.122192,337
818.240845,322
818.359436,326
818.478088,328
818.59668,325
818.715271,315
818.833923,320
818.952515,318
819.071106,322
819.189758,315
819.30835,318
819.426941,328
819.545532,317
819.664124,316
819.782715,324
819.901306,321
820.019897,328
820.138489,306
820.25708,322
820.375671,324
820.494202,328
820.612732,325
820.731384,312
820.849915,319
820.968506,308
821.087097,320
821.205627,329
821.324158,320
821.442749,325
821.561279,334
821.679871,323
821.798401,327
821.916931,314
822.035461,316
822.154053,317
822.272583,325
822.391174,316
822.509583,320
822.628174,314
822.746704,314
822.865234,320
822.983765,309
823.102295,323
823.220825,323
823.339294,318
823.457825,325
823.576355,326
823.694824,308
823.813354,331
823.931885,321
824.050354,310
824.168884,318
824.287354,322
824.405823,320
824.524353,322
824.642822,306
824.761353,310
824.879822,320
824.998291,330
825.116699,310
825.235291,337
825.353699,335
825.472168,312
825.590637,328
825.709106,333
825.827576,317
825.946045,321
826.064453,318
826.182983,315
826.301392,298
826.4198,303
826.53833,319
826.656738,331
826.775208,325
826.893677,316
827.012024,316
827.130493,325
827.248962,317
827.36731,312
827.485779,312
827.604248,322
827.722595,314
827.841064,326
827.959412,320
828.077942,325
828.196289,317
828.314636,317
828.433105,319
828.551514,317
828.669861,320
828.78833,310
828.906677,316
829.025085,310
829.143433,319
829.261841,304
829.38031,317
829.498657,319
829.617004,318
829.735413,323
829.85376,326
829.972107,315
830.090515,315
830.208862,315
830.327209,319
830.445557,314
830.563904,325
830.682312,330
830.800659,304
830.919006,319
831.037354,317
831.155701,308
831.274048,312
831.392395,318
831.51062,317
831.629028,304
831.747314,306
831.865662,318
831.984009,326
832.102356,316
832.220642,312
832.338928,331
832.457275,313
832.575623,323
832.693909,308
832.812134,322
832.930481,315
833.048828,319
833.167114,310
833.2854,322
833.403687,318
833.521973,324
833.640259,315
833.758545,318
833.876831,322
833.995056,317
834.113281,307
834.231628,316
834.349915,313
834.468201,324
834.586426,313
834.704651,324
834.822998,310
834.941162,305
835.059448,313
835.177673,326
835.295959,308
835.414246,321
835.53241,320
835.650635,319
835.768921,323
835.887146,319
836.005371,318
836.123596,317
836.241821,310
836.360046,313
836.478271,318
836.596497,314
836.714722,317
836.832886,314
836.95105,307
837.069336,310
837.1875,330
837.305725,327
837.423889,315
837.542053,319
837.660339,325
837.778503,320
837.896667,325
838.014832,324
838.132996,321
838.25116,320
838.369385,321
838.487488,323
838.605713,311
838.723877,319
838.84198,320
838.960205,321
839.078308,325
839.196472,336
839.314636,320
839.4328,309
839.550964,312
839.669067,327
839.787231,317
839.905396,320
840.023499,311
840.141602,324
840.259766,323
840.377869,323
840.495972,314
840.614136,320
840.732239,320
840.850342,318
840.968445,317
841.086548,312
841.204651,306
841.322754,306
841.440918,315
841.55896,319
841.677002,324
841.795166,318
841.913208,304
842.031311,316
842.149353,332
842.267456,306
842.385498,320
842.503601,295
842.621643,320
842.739746,314
842.857788,308
842.97583,303
843.093933,316
843.211975,316
843.330017,318
843.44812,320
843.566101,314
843.684204,326
843.802246,312
843.920227,315
844.038269,314
844.156311,309
844.274292,322
844.392395,316
844.510376,315
844.628357,319
844.74646,323
844.864441,314
844.982422,323
845.100403,320
845.218384,308
845.336426,310
845.454468,321
845.572449,320
845.69043,316
845.808411,311
845.926453,333
846.044373,326
846.162354,328
846.280396,312
846.398315,317
846.516296,315
846.634216,313
846.752197,323
846.870178,313
846.988098,326
847.106079,318
847.22406,317
847.34198,309
847.4599,309
847.577881,326
847.695801,317
847.813782,321
847.931641,309
848.049561,333
848.167603,320
848.285461,302
848.403381,326
848.521362,317
848.639221,304
848.75708,315
848.875,317
848.99292,328
849.110901,311
849.22876,314
849.34668,314
849.464539,322
849.582458,318
849.700317,316
849.818176,310
849.936096,311
850.053955,312
850.171875,327
850.289673,303
850.407593,319
850.525452,317
850.643311,314
850.761169,325
850.878967,324
850.996887,333
851.114746,322
851.232544,309
851.350403,316
851.468262,315
851.58606,324
851.703979,298
851.821777,323
851.939636,312
852.057434,302
852.175232,320
852.293091,312
852.410889,309
852.528687,318
852.646545,327
852.764343,318
852.88208,324
852.999939,323
853.117676,314
853.235535,328
853.353271,330
853.471069,319
853.588928,313
853.706604,312
853.824402,313
853.9422,329
854.059998,311
854.177734,311
854.295532,320
854.413269,317
854.531006,313
854.648804,314
854.766541,318
854.884277,320
855.002014,302
855.119751,322
855.237549,303
855.355225,325
855.473022,319
855.590698,327
855.708435,310
855.826172,311
855.943848,301
856.061646,314
856.179321,305
856.296997,323
856.414795,324
856.53241,318
856.650085,313
856.767822,316
856.885559,322
857.003174,322
857.120911,316
857.238586,315
857.356201,314
857.473938,323
857.591614,325
857.709351,316
857.826965,327
857.944641,306
858.062317,314
858.179993,318
858.297668,318
858.415283,331
858.532959,303
858.650574,324
858.768188,313
858.885803,326
859.003479,318
859.121094,311
859.23877,313
859.356384,313
859.473999,317
859.591675,317
859.709229,316
859.826843,324
859.944458,321
860.062012,322
860.179626,314
860.297302,307
860.414856,320
860.532471,318
860.650024,299
860.767639,305
860.885193,309
861.002808,328
861.120361,315
861.237976,305
861.35553,315
861.473022,324
861.590698,294
861.708191,321
861.825745,316
861.943298,315
862.060852,312
862.178406,316
862.295959,322
862.413513,319
862.531006,310
862.64856,322
862.766113,329
862.883667,313
863.00116,303
863.118713,325
863.236206,309
863.353699,320
863.471252,319
863.588745,309
863.706177,318
863.82373,324
863.941162,308
864.058716,319
864.176208,322
864.29364,317
864.411194,320
864.528687,330
864.646118,315
864.763611,315
864.881042,310
864.998535,315
865.116028,325
865.233459,318
865.350891,323
865.468384,321
865.585754,316
865.703308,319
865.820679,325
865.938171,308
866.055542,315
866.173035,313
866.290466,319
866.407837,319
866.52533,298
866.6427,313
866.760071,321
866.877563,329
866.994934,312
867.112305,322
867.229736,310
867.347107,323
867.464539,324
867.58197,325
867.699341,307
867.81665,315
867.934082,313
868.051453,316
868.168823,303
868.286194,313
868.403564,310
868.520935,305
868.638306,321
868.755676,326
868.872986,302
868.990295,322
869.107727,313
869.225037,307
869.342346,325
869.459717,317
869.577026,311
869.694336,317
869.811707,306
869.929016,318
870.046326,310
870.163635,321
870.280945,322
870.398254,310
870.515564,319
870.632812,316
870.750183,312
870.867432,323
870.984741,309
871.102051,316
871.219299,310
871.336609,317
871.453918,308
871.571106,315
871.688416,303
871.805664,315
871.922852,315
872.040222,295
872.157471,325
872.274719,322
872.391968,318
872.509155,318
872.626465,325
872.743652,319
872.860962,312
872.978149,320
873.095337,319
873.212646,319
873.329834,324
873.44696,318
873.564209,300
873.681396,311
873.798645,311
873.915894,321
874.03302,319
874.150208,315
874.267456,313
874.384583,317
874.501831,315
874.618958,324
874.736145,303
874.853333,320
874.970459,316
875.087646,319
875.204834,320
875.32196,305
875.439148,312
875.556274,317
875.673401,320
875.790527,328
875.907715,301
876.024841,311
876.141968,321
876.259094,321
876.376282,324
876.493347,317
876.610474,320
876.7276,317
876.844727,312
876.961853,325
877.078918,315
877.195984,314
877.313171,315
877.430237,319
877.547302,312
877.664368,335
877.781433,322
877.898499,313
878.015625,318
878.13269,308
878.249695,301
878.366821,325
878.483887,327
878.600952,331
878.717957,320
878.834961,307
878.952087,305
879.069092,321
879.186157,316
879.303162,318
879.420227,321
879.537231,321
879.654236,313
879.77124,314
879.888306,303
880.005249,326
880.122314,313
880.239319,321
880.356323,310
880.473328,318
880.590271,312
880.707275,317
880.824341,313
880.941284,310
881.058228,324
881.175232,321
881.292236,304
881.40918,327
881.526123,323
881.643066,328
881.760071,311
881.877014,310
881.993958,299
882.11084,315
882.227783,316
882.344727,311
882.46167,326
882.578613,305
882.695618,320
882.812439,312
882.929382,307
883.046326,321
883.163208,325
883.280151,311
883.397034,303
883.513916,330
883.630798,305
883.747742,313
883.864563,312
883.981506,332
884.098389,304
884.21521,310
884.332153,312
884.448975,310
884.565796,320
884.682678,324
884.7995,311
884.916443,313
885.033264,309
885.150085,331
885.266968,320
885.383789,322
885.500671,301
885.617493,337
885.734314,307
885.851196,303
885.967896,307
886.084717,310
886.201599,313
886.318359,311
886.435181,313
886.552002,330
886.668762,302
886.785645,322
886.902344,317
887.019165,312
887.135925,323
887.252747,319
887.369446,316
887.486267,323
887.603027,326
887.719788,315
887.836548,308
887.953247,320
888.070068,317
888.186829,310
888.303528,319
888.420288,319
888.536987,312
888.653687,321
888.770447,309
888.887146,315
889.003967,324
889.120667,326
889.237305,305
889.354065,313
889.470703,317
889.587463,304
889.704163,321
889.820862,329
889.937561,315
890.054199,318
890.170837,321
890.287598,313
890.404236,312
890.520874,321
890.637634,313
890.754211,320
890.87085,309
890.987549,318
891.104187,320
891.220886,328
891.337463,316
891.454102,324
891.57074,303
891.687378,307
891.804077,308
891.920654,310
892.037231,319
892.15387,320
892.270447,315
892.387085,324
892.503723,303
892.6203,325
892.736877,289
892.853516,319
892.970032,302
893.08667,324
893.203186,321
893.319763,321
893.43634,329
893.552917,317
893.669556,316
893.786011,333
893.902588,301
894.019165,322
894.135681,312
894.252197,323
894.368835,315
894.485291,318
894.601868,312
894.718384,321
894.8349,314
894.951355,310
895.067932,308
895.184448,312
895.300964,318
895.417419,307
895.533936,327
895.650452,327
895.766907,326
895.883423,327
895.999878,304
896.116333,322
896.232849,315
896.349304,312
896.465759,319
896.582214,315
896.698669,316
896.815125,316
896.931641,303
897.048035,313
897.164551,328
897.280884,326
897.397339,318
897.513794,322
897.630249,309
897.746582,316
897.863098,315
897.979431,310
898.095886,304
898.212341,320
898.328674,316
898.445129,325
898.561462,315
898.677795,327
898.794312,323
898.910645,304
899.026978,324
899.143433,324
899.259766,315
899.37616,335
899.492493,306
899.608765,338
899.725159,313
899.841553,317
899.957947,320
900.07428,326
900.190552,312
900.306946,317
900.423157,308
900.53949,321
900.655884,318
900.772156,326
900.888489,313
901.004822,320
901.121033,302
901.237366,324
901.353699,303
901.46991,316
901.586304,319
901.702515,329
901.818787,317
901.93512,319
902.051331,310
902.167603,328
902.283875,312
902.400085,322
902.516418,306
902.632629,317
902.74884,326
902.865112,323
902.981384,322
903.097595,322
903.213867,314
903.330017,313
903.446289,303
903.5625,303
903.67865,316
903.794922,320
903.911072,322
904.027344,313
904.143494,328
904.259705,312
904.375916,321
904.492065,317
904.608215,316
904.724426,317
904.840576,310
904.956726,323
905.072876,309
905.189087,309
905.305176,315
905.421387,328
905.537537,316
905.653687,309
905.769775,320
905.885925,327
906.002014,315
906.118164,328
906.234314,300
906.350403,326
906.466492,311
906.582642,316
906.69873,312
906.814758,322
906.930908,325
907.046936,320
907.163086,313
907.279175,318
907.395264,304
907.511353,321
907.62738,321
907.743408,322
907.859497,295
907.975525,319
908.091553,312
908.207703,315
908.32373,320
908.439758,304
908.555786,328
908.671814,316
908.787842,316
908.90387,317
909.019775,313
909.135864,320
909.251892,308
909.367859,320
909.483826,317
909.599854,307
909.715881,311
909.831848,319
909.947815,307
910.063782,311
910.179749,314
910.295776,319
910.411743,309
910.527649,320
910.643616,322
910.759583,326
910.875488,316
910.991455,325
911.107361,316
911.223267,323
911.339294,313
911.4552,315
911.571106,316
911.687073,316
911.802979,318
911.918823,314
912.034729,336
912.150635,323
912.266602,314
912.382446,322
912.498352,306
912.614197,320
912.730103,318
912.846008,321
