792.44574,359
792.56488,404
792.68396,428
792.80304,439
792.92218,382
793.041199,351
793.160339,378
793.279419,389
793.398499,379
793.517578,350
793.636658,338
793.755737,368
793.874817,376
793.993896,374
794.112976,360
794.232056,352
794.351074,340
794.470215,352
794.589233,354
794.708313,353
794.827393,340
794.946411,350
795.065552,360
795.18457,355
795.303589,359
795.422668,341
795.541687,361
795.660767,337
795.779846,356
795.898865,343
796.017883,343
796.136963,357
796.255981,350
796.375061,358
796.49408,346
796.613037,349
796.732117,340
796.851135,336
796.970154,343
797.089233,326
797.208191,335
797.327271,336
797.446228,348
797.565186,330
797.684265,338
797.803223,341
797.922241,338
798.04126,341
798.160278,343
798.279297,337
798.398315,331
798.517273,348
798.636292,338
798.75531,333
798.874268,343
798.993286,333
799.112244,329
799.231323,332
799.350281,343
799.469238,332
799.588257,349
799.707153,330
799.826111,336
799.945129,360
800.064087,328
800.183044,347
800.302063,336
800.421021,344
800.539978,331
800.658936,344
800.777893,332
800.896912,350
801.015747,332
801.134705,329
801.253723,337
801.37262,331
801.491638,332
801.610535,342
801.729492,339
801.84845,328
801.967407,340
802.086243,317
802.205261,321
802.324158,334
802.443115,319
802.562073,333
802.680969,327
802.799927,324
802.918762,338
803.037659,317
803.156677,330
803.275574,329
803.39447,327
803.513428,344
803.632263,332
803.751221,331
803.870117,338
803.989014,327
804.107971,326
804.226746,339
804.345642,333
804.4646,335
804.583496,335
804.702393,335
804.821228,337
804.940125,334
805.059021,338
805.177917,332
805.296814,324
805.415649,326
805.534546,335
805.653442,318
805.772278,352
805.891113,307
806.01001,331
806.128906,327
806.247742,327
806.366577,338
806.485413,320
806.604309,330
806.723145,324
806.84198,330
806.960876,327
807.079712,330
807.198486,319
807.317383,326
807.436218,328
807.554993,333
807.673889,331
807.792725,319
807.91156,327
808.030396,336
808.14917,336
808.268005,336
808.386841,340
808.505676,322
808.624451,327
808.743286,334
808.862122,313
808.980896,326
809.099731,328
809.218506,322
809.337341,326
809.456116,311
809.57489,326
809.693726,320
809.8125,328
809.931274,327
810.050049,328
810.168884,323
810.287659,335
810.406372,337
810.525269,329
810.643982,315
810.762756,316
810.881531,323
811.000305,326
811.11908,324
811.237854,329
811.356567,324
811.475403,337
811.594116,331
811.71283,315
811.831604,332
811.950378,331
812.069153,339
812.187927,328
812.30658,329
812.425415,314
812.544128,330
812.662781,325
812.781616,335
812.900269,330
813.019043,343
813.137756,332
813.256531,315
813.375244,332
813.493896,319
813.612671,325
813.731384,329
813.850037,334
813.96875,316
814.087524,336
814.206238,334
814.324951,327
814.443604,315
814.562256,336
814.68103,315
814.799683,327
814.918335,314
815.037109,346
815.155762,329
815.274475,313
815.393188,328
815.511841,333
815.630554,335
815.749146,327
815.867859,321
815.986572,332
816.105164,317
816.223877,345
816.342529,317
816.461182,330
816.579895,327
816.698486,340
816.817139,332
816.935791,336
817.054504,315
817.173096,342
817.291748,326
817.4104,335
817.529053,313
817.647644,335
817.766235,321
817.884949,327
818.00354,320
818.122192,337
818.240845,316
818.359436,335
818.478088,327
818.59668,335
818.715271,321
818.833923,322
818.952515,330
819.071106,327
819.189758,334
819.30835,332
819.426941,318
819.545532,314
819.664124,326
819.782715,342
819.901306,328
820.019897,331
820.138489,329
820.25708,323
820.375671,317
820.494202,318
820.612732,327
820.731384,333
820.849915,319
820.968506,316
821.087097,329
821.205627,323
821.324158,331
821.442749,310
821.561279,334
821.679871,312
821.798401,309
821.916931,329
822.035461,328
822.154053,336
822.272583,324
822.391174,314
822.509583,318
822.628174,323
822.746704,316
822.865234,321
822.983765,310
823.102295,315
823.220825,319
823.339294,324
823.457825,325
823.576355,323
823.694824,322
823.813354,301
823.931885,316
824.050354,329
824.168884,328
824.287354,309
824.405823,324
824.524353,310
824.642822,306
824.761353,316
824.879822,312
824.998291,332
825.116699,307
825.235291,320
825.353699,308
825.472168,314
825.590637,313
825.709106,324
825.827576,313
825.946045,334
826.064453,317
826.182983,338
826.301392,326
826.4198,327
826.53833,314
826.656738,318
826.775208,311
826.893677,321
827.012024,319
827.130493,321
827.248962,320
827.36731,318
827.485779,328
827.604248,328
827.722595,318
827.841064,315
827.959412,309
828.077942,318
828.196289,319
828.314636,315
828.433105,329
828.551514,318
828.669861,329
828.78833,318
828.906677,309
829.025085,317
829.143433,316
829.261841,319
829.38031,321
829.498657,319
829.617004,311
829.735413,316
829.85376,326
829.972107,324
830.090515,316
830.208862,318
830.327209,316
830.445557,309
830.563904,317
830.682312,323
830.800659,314
830.919006,311
831.037354,343
831.155701,318
831.274048,322
831.392395,326
831.51062,316
831.629028,325
831.747314,321
831.865662,311
831.984009,319
832.102356,316
832.220642,307
832.338928,327
832.457275,311
832.575623,318
832.693909,312
832.812134,339
832.930481,322
833.048828,315
833.167114,316
833.2854,326
833.403687,320
833.521973,320
833.640259,320
833.758545,315
833.876831,312
833.995056,329
834.113281,321
834.231628,311
834.349915,322
834.468201,326
834.586426,320
834.704651,320
834.822998,330
834.941162,315
835.059448,318
835.177673,323
835.295959,323
835.414246,315
835.53241,324
835.650635,316
835.768921,318
835.887146,331
836.005371,319
836.123596,331
836.241821,323
836.360046,336
836.478271,319
836.596497,326
836.714722,310
836.832886,333
836.95105,314
837.069336,329
837.1875,318
837.305725,312
837.423889,320
837.542053,320
837.660339,325
837.778503,319
837.896667,330
838.014832,328
838.132996,322
838.25116,319
838.369385,314
838.487488,309
838.605713,315
838.723877,326
838.84198,301
838.960205,320
839.078308,305
839.196472,323
839.314636,329
839.4328,313
839.550964,304
839.669067,322
839.787231,312
839.905396,317
840.023499,321
840.141602,339
840.259766,316
840.377869,319
840.495972,309
840.614136,328
840.732239,316
840.850342,337
840.968445,315
841.086548,323
841.204651,325
841.322754,313
841.440918,319
841.55896,337
841.677002,326
841.795166,344
841.913208,316
842.031311,320
842.149353,322
842.267456,311
842.385498,336
842.503601,328
842.621643,327
842.739746,322
842.857788,322
842.97583,329
843.093933,320
843.211975,310
843.330017,323
843.44812,324
843.566101,323
843.684204,327
843.802246,330
843.920227,328
844.038269,328
844.156311,314
844.274292,320
844.392395,319
844.510376,325
844.628357,332
844.74646,329
844.864441,327
844.982422,323
845.100403,312
845.218384,325
845.336426,325
845.454468,311
845.572449,336
845.69043,332
845.808411,331
845.926453,328
846.044373,323
846.162354,317
846.280396,328
846.398315,324
846.516296,328
846.634216,319
846.752197,331
846.870178,320
846.988098,326
847.106079,317
847.22406,315
847.34198,329
847.4599,325
847.577881,324
847.695801,332
847.813782,326
847.931641,320
848.049561,316
848.167603,329
848.285461,309
848.403381,319
848.521362,319
848.639221,321
848.75708,327
848.875,311
848.99292,336
849.110901,328
849.22876,303
849.34668,332
849.464539,314
849.582458,317
849.700317,324
849.818176,333
849.936096,335
850.053955,342
850.171875,330
850.289673,329
850.407593,315
850.525452,330
850.643311,338
850.761169,326
850.878967,315
850.996887,334
851.114746,324
851.232544,334
851.350403,327
851.468262,323
851.58606,323
851.703979,336
851.821777,316
851.939636,316
852.057434,327
852.175232,321
852.293091,328
852.410889,338
852.528687,320
852.646545,322
852.764343,324
852.88208,333
852.999939,320
853.117676,323
853.235535,330
853.353271,319
853.471069,329
853.588928,324
853.706604,311
853.824402,331
853.9422,315
854.059998,320
854.177734,332
854.295532,329
854.413269,323
854.531006,329
854.648804,331
854.766541,332
854.884277,314
855.002014,312
855.119751,320
855.237549,327
855.355225,319
855.473022,316
855.590698,310
855.708435,332
855.826172,300
855.943848,323
856.061646,307
856.179321,328
856.296997,311
856.414795,316
856.53241,322
856.650085,322
856.767822,330
856.885559,324
857.003174,334
857.120911,340
857.238586,321
857.356201,332
857.473938,321
857.591614,325
857.709351,332
857.826965,330
857.944641,321
858.062317,318
858.179993,325
858.297668,332
858.415283,322
858.532959,323
858.650574,324
858.768188,324
858.885803,324
859.003479,332
859.121094,319
859.23877,316
859.356384,311
859.473999,314
859.591675,318
859.709229,327
859.826843,316
859.944458,321
860.062012,326
860.179626,323
860.297302,336
860.414856,321
860.532471,308
860.650024,350
860.767639,311
860.885193,323
861.002808,304
861.120361,316
861.237976,318
861.35553,332
861.473022,331
861.590698,317
861.708191,314
861.825745,315
861.943298,314
862.060852,316
862.178406,317
862.295959,311
862.413513,315
862.531006,323
862.64856,317
862.766113,298
862.883667,330
863.00116,329
863.118713,311
863.236206,306
863.353699,304
863.471252,324
863.588745,318
863.706177,331
863.82373,319
863.941162,314
864.058716,323
864.176208,320
864.29364,313
864.411194,329
864.528687,326
864.646118,323
864.763611,324
864.881042,305
864.998535,319
865.116028,324
865.233459,322
865.350891,319
865.468384,319
865.585754,324
865.703308,310
865.820679,321
865.938171,324
866.055542,313
866.173035,325
866.290466,324
866.407837,319
866.52533,319
866.6427,305
866.760071,334
866.877563,305
866.994934,319
867.112305,315
867.229736,317
867.347107,318
867.464539,328
867.58197,326
867.699341,320
867.81665,315
867.934082,314
868.051453,325
868.168823,323
868.286194,304
868.403564,319
868.520935,323
868.638306,327
868.755676,329
868.872986,322
868.990295,324
869.107727,324
869.225037,303
869.342346,330
869.459717,339
869.577026,325
869.694336,316
869.811707,319
869.929016,333
870.046326,335
870.163635,322
870.280945,327
870.398254,311
870.515564,334
870.632812,322
870.750183,314
870.867432,323
870.984741,329
871.102051,319
871.219299,327
871.336609,311
871.453918,329
871.571106,323
871.688416,335
871.805664,334
871.922852,330
872.040222,326
872.157471,318
872.274719,324
872.391968,331
872.509155,325
872.626465,323
872.743652,329
872.860962,330
872.978149,325
873.095337,327
873.212646,329
873.329834,317
873.44696,315
873.564209,316
873.681396,321
873.798645,328
873.915894,330
874.03302,311
874.150208,318
874.267456,325
874.384583,320
874.501831,331
874.618958,335
874.736145,327
874.853333,334
874.970459,322
875.087646,321
875.204834,327
875.32196,334
875.439148,321
875.556274,331
875.673401,313
875.790527,322
875.907715,325
876.024841,323
876.141968,320
876.259094,319
876.376282,320
876.493347,332
876.610474,326
876.7276,326
876.844727,300
876.961853,310
877.078918,314
877.195984,325
877.313171,323
877.430237,325
877.547302,328
877.664368,303
877.781433,323
877.898499,331
878.015625,339
878.13269,326
878.249695,321
878.366821,314
878.483887,317
878.600952,317
878.717957,344
878.834961,333
878.952087,322
879.069092,328
879.186157,317
879.303162,316
879.420227,313
879.537231,315
879.654236,332
879.77124,327
879.888306,328
880.005249,321
880.122314,336
880.239319,311
880.356323,322
880.473328,311
880.590271,316
880.707275,316
880.824341,316
880.941284,310
881.058228,322
881.175232,322
881.292236,333
881.40918,318
881.526123,333
881.643066,316
881.760071,324
881.877014,317
881.993958,320
882.11084,315
882.227783,320
882.344727,323
882.46167,333
882.578613,326
882.695618,321
882.812439,327
882.929382,336
883.046326,327
883.163208,332
883.280151,315
883.397034,325
883.513916,317
883.630798,317
883.747742,308
883.864563,321
883.981506,319
884.098389,335
884.21521,316
884.332153,324
884.448975,334
884.565796,322
884.682678,311
884.7995,332
884.916443,333
885.033264,320
885.150085,307
885.266968,310
885.383789,312
885.500671,317
885.617493,325
885.734314,342
885.851196,329
885.967896,337
886.084717,319
886.201599,323
886.318359,313
886.435181,330
886.552002,319
886.668762,336
886.785645,322
886.902344,345
887.019165,318
887.135925,321
887.252747,322
887.369446,334
887.486267,322
887.603027,331
887.719788,326
887.836548,340
887.953247,319
888.070068,323
888.186829,317
888.303528,326
888.420288,316
888.536987,337
888.653687,321
888.770447,327
888.887146,308
889.003967,311
889.120667,311
889.237305,324
889.354065,317
889.470703,324
889.587463,329
889.704163,311
889.820862,306
889.937561,318
890.054199,309
890.170837,319
890.287598,319
890.404236,322
890.520874,315
890.637634,316
890.754211,312
890.87085,323
890.987549,301
891.104187,332
891.220886,300
891.337463,325
891.454102,316
891.57074,324
891.687378,327
891.804077,318
891.920654,322
892.037231,330
892.15387,323
892.270447,328
892.387085,321
892.503723,311
892.6203,314
892.736877,323
892.853516,323
892.970032,312
893.08667,315
893.203186,319
893.319763,314
893.43634,307
893.552917,325
893.669556,318
893.786011,329
893.902588,319
894.019165,315
894.135681,328
894.252197,315
894.368835,318
894.485291,311
894.601868,319
894.718384,313
894.8349,330
894.951355,303
895.067932,319
895.184448,318
895.300964,314
895.417419,314
895.533936,321
895.650452,318
895.766907,328
895.883423,314
895.999878,310
896.116333,310
896.232849,311
896.349304,319
896.465759,330
896.582214,308
896.698669,312
896.815125,324
896.931641,326
897.048035,306
897.164551,320
897.280884,305
897.397339,308
897.513794,310
897.630249,312
897.746582,325
897.863098,308
897.979431,317
898.095886,334
898.212341,311
898.328674,316
898.445129,314
898.561462,334
898.677795,325
898.794312,327
898.910645,308
899.026978,330
899.143433,310
899.259766,319
899.37616,309
899.492493,324
899.608765,304
899.725159,312
899.841553,312
899.957947,319
900.07428,331
900.190552,325
900.306946,325
900.423157,332
900.53949,316
900.655884,321
900.772156,310
900.888489,327
901.004822,332
901.121033,314
901.237366,316
901.353699,320
901.46991,316
901.586304,298
901.702515,321
901.818787,323
901.93512,316
902.051331,326
902.167603,328
902.283875,323
902.400085,315
902.516418,323
902.632629,311
902.74884,333
902.865112,321
902.981384,333
903.097595,317
903.213867,335
903.330017,324
903.446289,319
903.5625,325
903.67865,320
903.794922,309
903.911072,325
904.027344,316
904.143494,317
904.259705,311
904.375916,325
904.492065,311
904.608215,318
904.724426,312
904.840576,324
904.956726,319
905.072876,316
905.189087,300
905.305176,312
905.421387,303
905.537537,324
905.653687,326
905.769775,339
905.885925,313
906.002014,325
906.118164,332
906.234314,324
906.350403,315
906.466492,326
906.582642,327
906.69873,328
906.814758,321
906.930908,322
907.046936,319
907.163086,317
907.279175,315
907.395264,312
907.511353,325
907.62738,332
907.743408,313
907.859497,333
907.975525,311
908.091553,316
908.207703,316
908.32373,328
908.439758,323
908.555786,318
908.671814,326
908.787842,313
908.90387,314
909.019775,326
909.135864,322
909.251892,315
909.367859,315
909.483826,315
909.599854,324
909.715881,346
909.831848,311
909.947815,319
910.063782,319
910.179749,319
910.295776,312
910.411743,318
910.527649,319
910.643616,338
910.759583,323
910.875488,321
910.991455,315
911.107361,328
911.223267,305
911.339294,335
911.4552,327
911.571106,325
911.687073,319
911.802979,324
911.918823,314
912.034729,322
912.150635,304
912.266602,320
912.382446,313
912.498352,314
912.614197,321
912.730103,315
912.846008,326
792.44574,359
792.56488,400
792.68396,434
792.80304,425
792.92218,369
793.041199,361
793.160339,364
793.279419,395
793.398499,375
793.517578,336
793.636658,355
793.755737,351
793.874817,370
793.993896,378
794.112976,373
794.232056,345
794.351074,347
794.470215,338
794.589233,348
794.708313,352
794.827393,359
794.946411,353
795.065552,348
795.18457,349
795.303589,362
795.422668,342
795.541687,348
795.660767,343
795.779846,345
795.898865,340
796.017883,333
796.136963,330
796.255981,347
796.375061,336
796.49408,335
796.613037,332
796.732117,349
796.851135,347
796.970154,342
797.089233,349
797.208191,335
797.327271,337
797.446228,348
797.565186,326
797.684265,332
797.803223,345
797.922241,333
798.04126,340
798.160278,326
798.279297,351
798.398315,339
798.517273,328
798.636292,348
798.75531,330
798.874268,354
798.993286,338
799.112244,335
799.231323,341
799.350281,336
799.469238,335
799.588257,347
799.707153,344
799.826111,335
799.945129,333
800.064087,334
800.183044,335
800.302063,329
800.421021,340
800.539978,343
800.658936,330
800.777893,344
800.896912,327
801.015747,334
801.134705,336
801.253723,318
801.37262,350
801.491638,332
801.610535,328
801.729492,339
801.84845,342
801.967407,328
802.086243,324
802.205261,340
802.324158,326
802.443115,335
802.562073,333
802.680969,313
802.799927,324
802.918762,321
803.037659,340
803.156677,328
803.275574,332
803.39447,320
803.513428,341
803.632263,323
803.751221,330
803.870117,335
803.989014,330
804.107971,334
804.226746,323
804.345642,339
804.4646,328
804.583496,325
804.702393,339
804.821228,337
804.940125,327
805.059021,333
805.177917,322
805.296814,324
805.415649,334
805.534546,328
805.653442,322
805.772278,322
805.891113,323
806.01001,325
806.128906,330
806.247742,334
806.366577,321
806.485413,318
806.604309,336
806.723145,329
806.84198,320
806.960876,329
807.079712,336
807.198486,333
807.317383,327
807.436218,317
807.554993,329
807.673889,329
807.792725,325
807.91156,343
808.030396,318
808.14917,331
808.268005,328
808.386841,333
808.505676,316
808.624451,331
808.743286,328
808.862122,331
808.980896,334
809.099731,332
809.218506,325
809.337341,339
809.456116,311
809.57489,322
809.693726,330
809.8125,337
809.931274,332
810.050049,334
810.168884,328
810.287659,338
810.406372,322
810.525269,317
810.643982,323
810.762756,332
810.881531,329
811.000305,311
811.11908,341
811.237854,328
811.356567,330
811.475403,327
811.594116,331
811.71283,335
811.831604,332
811.950378,322
812.069153,335
812.187927,320
812.30658,319
812.425415,328
812.544128,321
812.662781,343
812.781616,321
812.900269,329
813.019043,316
813.137756,343
813.256531,319
813.375244,334
813.493896,328
813.612671,323
813.731384,332
813.850037,332
813.96875,316
814.087524,347
814.206238,331
814.324951,328
814.443604,316
814.562256,317
814.68103,321
814.799683,334
814.918335,330
815.037109,318
815.155762,327
815.274475,337
815.393188,326
815.511841,333
815.630554,324
815.749146,337
815.867859,331
815.986572,326
816.105164,338
816.223877,324
816.342529,328
816.461182,326
816.579895,346
816.698486,333
816.817139,332
816.935791,318
817.054504,332
817.173096,311
817.291748,334
817.4104,337
817.529053,327
817.647644,323
817.766235,328
817.884949,327
818.00354,335
818.122192,332
818.240845,326
818.359436,322
818.478088,318
818.59668,346
818.715271,324
818.833923,331
818.952515,316
819.071106,326
819.189758,319
819.30835,324
819.426941,312
819.545532,326
819.664124,322
819.782715,329
819.901306,318
820.019897,334
820.138489,316
820.25708,313
820.375671,317
820.494202,311
820.612732,326
820.731384,323
820.849915,327
820.968506,348
821.087097,317
821.205627,321
821.324158,314
821.442749,328
821.561279,326
821.679871,319
821.798401,318
821.916931,318
822.035461,328
822.154053,324
822.272583,323
822.391174,334
822.509583,305
822.628174,334
822.746704,328
822.865234,333
822.983765,316
823.102295,317
823.220825,312
823.339294,320
823.457825,312
823.576355,313
823.694824,311
823.813354,339
823.931885,319
824.050354,330
824.168884,325
824.287354,329
824.405823,324
824.524353,327
824.642822,328
824.761353,310
824.879822,329
824.998291,313
825.116699,323
825.235291,323
825.353699,313
825.472168,325
825.590637,319
825.709106,321
825.827576,316
825.946045,331
826.064453,317
826.182983,305
826.301392,322
826.4198,329
826.53833,318
826.656738,325
826.775208,325
826.893677,316
827.012024,317
827.130493,324
827.248962,316
827.36731,324
827.485779,333
827.604248,321
827.722595,328
827.841064,316
827.959412,319
828.077942,308
828.196289,330
828.314636,306
828.433105,324
828.551514,323
828.669861,325
828.78833,319
828.906677,315
829.025085,329
829.143433,298
829.261841,319
829.38031,329
829.498657,333
829.617004,302
829.735413,325
829.85376,315
829.972107,310
830.090515,321
830.208862,315
830.327209,312
830.445557,311
830.563904,312
830.682312,317
830.800659,314
830.919006,320
831.037354,317
831.155701,325
831.274048,323
831.392395,327
831.51062,324
831.629028,321
831.747314,330
831.865662,327
831.984009,320
832.102356,317
832.220642,324
832.338928,327
832.457275,312
832.575623,325
832.693909,323
832.812134,321
832.930481,319
833.048828,319
833.167114,318
833.2854,313
833.403687,316
833.521973,328
833.640259,331
833.758545,327
833.876831,327
833.995056,316
834.113281,321
834.231628,315
834.349915,316
834.468201,328
834.586426,318
834.704651,338
834.822998,314
834.941162,315
835.059448,324
835.177673,318
835.295959,330
835.414246,321
835.53241,323
835.650635,307
835.768921,325
835.887146,338
836.005371,305
836.123596,323
836.241821,323
836.360046,323
836.478271,324
836.596497,326
836.714722,312
836.832886,332
836.95105,343
837.069336,330
837.1875,327
837.305725,317
837.423889,319
837.542053,326
837.660339,317
837.778503,326
837.896667,309
838.014832,321
838.132996,320
838.25116,315
838.369385,315
838.487488,316
838.605713,314
838.723877,328
838.84198,322
838.960205,326
839.078308,302
839.196472,325
839.314636,322
839.4328,320
839.550964,310
839.669067,319
839.787231,321
839.905396,317
840.023499,326
840.141602,302
840.259766,324
840.377869,319
840.495972,340
840.614136,324
840.732239,328
840.850342,312
840.968445,333
841.086548,333
841.204651,330
841.322754,318
841.440918,335
841.55896,321
841.677002,326
841.795166,322
841.913208,326
842.031311,325
842.149353,319
842.267456,333
842.385498,323
842.503601,321
842.621643,325
842.739746,323
842.857788,319
842.97583,311
843.093933,320
843.211975,336
843.330017,338
843.44812,329
843.566101,318
843.684204,332
843.802246,312
843.920227,330
844.038269,336
844.156311,324
844.274292,323
844.392395,330
844.510376,328
844.628357,315
844.74646,329
844.864441,316
844.982422,313
845.100403,328
845.218384,321
845.336426,303
845.454468,327
845.572449,326
845.69043,316
845.808411,323
845.926453,337
846.044373,324
846.162354,322
846.280396,315
846.398315,343
846.516296,315
846.634216,334
846.752197,323
846.870178,331
846.988098,312
847.106079,325
847.22406,321
847.34198,311
847.4599,330
847.577881,329
847.695801,308
847.813782,320
847.931641,308
848.049561,339
848.167603,334
848.285461,328
848.403381,334
848.521362,322
848.639221,319
848.75708,330
848.875,328
848.99292,329
849.110901,322
849.22876,324
849.34668,334
849.464539,329
849.582458,327
849.700317,323
849.818176,338
849.936096,333
850.053955,328
850.171875,314
850.289673,314
850.407593,325
850.525452,319
850.643311,325
850.761169,326
850.878967,334
850.996887,313
851.114746,329
851.232544,318
851.350403,316
851.468262,323
851.58606,328
851.703979,328
851.821777,337
851.939636,318
852.057434,317
852.175232,331
852.293091,338
852.410889,324
852.528687,332
852.646545,325
852.764343,334
852.88208,317
852.999939,335
853.117676,318
853.235535,330
853.353271,331
853.471069,327
853.588928,312
853.706604,322
853.824402,317
853.9422,325
854.059998,323
854.177734,321
854.295532,317
854.413269,330
854.531006,319
854.648804,336
854.766541,323
854.884277,325
855.002014,329
855.119751,330
855.237549,312
855.355225,331
855.473022,331
855.590698,316
855.708435,321
855.826172,328
855.943848,309
856.061646,328
856.179321,321
856.296997,318
856.414795,320
856.53241,340
856.650085,327
856.767822,316
856.885559,339
857.003174,317
857.120911,315
857.238586,322
857.356201,323
857.473938,329
857.591614,343
857.709351,326
857.826965,333
857.944641,313
858.062317,322
858.179993,324
858.297668,340
858.415283,337
858.532959,316
858.650574,328
858.768188,314
858.885803,323
859.003479,329
859.121094,316
859.23877,332
859.356384,330
859.473999,320
859.591675,327
859.709229,324
859.826843,319
859.944458,320
860.062012,322
860.179626,305
860.297302,320
860.414856,323
860.532471,324
860.650024,322
860.767639,318
860.885193,329
861.002808,324
861.120361,324
861.237976,314
861.35553,318
861.473022,313
861.590698,325
861.708191,344
861.825745,322
861.943298,328
862.060852,324
862.178406,327
862.295959,314
862.413513,304
862.531006,340
862.64856,317
862.766113,332
862.883667,334
863.00116,310
863.118713,323
863.236206,323
863.353699,325
863.471252,326
863.588745,323
863.706177,319
863.82373,323
863.941162,314
864.058716,317
864.176208,313
864.29364,325
864.411194,329
864.528687,334
864.646118,322
864.763611,331
864.881042,327
864.998535,322
865.116028,326
865.233459,327
865.350891,315
865.468384,331
865.585754,314
865.703308,326
865.820679,320
865.938171,326
866.055542,329
866.173035,329
866.290466,308
866.407837,324
866.52533,312
866.6427,315
866.760071,319
866.877563,340
866.994934,316
867.112305,321
867.229736,322
867.347107,323
867.464539,335
867.58197,331
867.699341,320
867.81665,329
867.934082,327
868.051453,332
868.168823,312
868.286194,331
868.403564,309
868.520935,324
868.638306,331
868.755676,334
868.872986,327
868.990295,323
869.107727,323
869.225037,327
869.342346,317
869.459717,317
869.577026,322
869.694336,326
869.811707,314
869.929016,332
870.046326,316
870.163635,329
870.280945,324
870.398254,326
870.515564,320
870.632812,333
870.750183,326
870.867432,320
870.984741,321
871.102051,324
871.219299,325
871.336609,325
871.453918,335
871.571106,314
871.688416,324
871.805664,327
871.922852,331
872.040222,325
872.157471,320
872.274719,334
872.391968,322
872.509155,315
872.626465,333
872.743652,322
872.860962,313
872.978149,313
873.095337,322
873.212646,314
873.329834,352
873.44696,316
873.564209,327
873.681396,325
873.798645,331
873.915894,319
874.03302,320
874.150208,317
874.267456,320
874.384583,308
874.501831,324
874.618958,331
874.736145,330
874.853333,334
874.970459,320
875.087646,321
875.204834,330
875.32196,328
875.439148,330
875.556274,321
875.673401,326
875.790527,328
875.907715,324
876.024841,316
876.141968,320
876.259094,321
876.376282,325
876.493347,324
876.610474,310
876.7276,315
876.844727,316
876.961853,331
877.078918,314
877.195984,311
877.313171,332
877.430237,331
877.547302,331
877.664368,329
877.781433,327
877.898499,320
878.015625,326
878.13269,315
878.249695,320
878.366821,332
878.483887,315
878.600952,325
878.717957,314
878.834961,318
878.952087,327
879.069092,331
879.186157,316
879.303162,312
879.420227,321
879.537231,321
879.654236,316
879.77124,327
879.888306,318
880.005249,323
880.122314,319
880.239319,322
880.356323,317
880.473328,316
880.590271,313
880.707275,325
880.824341,314
880.941284,329
881.058228,323
881.175232,314
881.292236,321
881.40918,327
881.526123,332
881.643066,338
881.760071,304
881.877014,336
881.993958,314
882.11084,319
882.227783,326
882.344727,310
882.46167,310
882.578613,304
882.695618,301
882.812439,324
882.929382,321
883.046326,321
883.163208,317
883.280151,323
883.397034,322
883.513916,311
883.630798,334
883.747742,324
883.864563,331
883.981506,315
884.098389,327
884.21521,331
884.332153,328
884.448975,334
884.565796,332
884.682678,315
884.7995,334
884.916443,330
885.033264,342
885.150085,327
885.266968,313
885.383789,327
885.500671,332
885.617493,323
885.734314,320
885.851196,350
885.967896,338
886.084717,334
886.201599,321
886.318359,333
886.435181,332
886.552002,328
886.668762,331
886.785645,326
886.902344,324
887.019165,346
887.135925,327
887.252747,314
887.369446,332
887.486267,334
887.603027,320
887.719788,316
887.836548,318
887.953247,342
888.070068,316
888.186829,316
888.303528,325
888.420288,321
888.536987,315
888.653687,316
888.770447,305
888.887146,319
889.003967,312
889.120667,320
889.237305,325
889.354065,324
889.470703,308
889.587463,321
889.704163,323
889.820862,318
889.937561,318
890.054199,316
890.170837,316
890.287598,325
890.404236,328
890.520874,317
890.637634,322
890.754211,326
890.87085,321
890.987549,325
891.104187,321
891.220886,316
891.337463,330
891.454102,321
891.57074,302
891.687378,319
891.804077,317
891.920654,328
892.037231,336
892.15387,334
892.270447,318
892.387085,329
892.503723,320
892.6203,316
892.736877,314
892.853516,318
892.970032,318
893.08667,324
893.203186,305
893.319763,328
893.43634,309
893.552917,327
893.669556,318
893.786011,334
893.902588,308
894.019165,317
894.135681,319
894.252197,333
894.368835,323
894.485291,324
894.601868,318
894.718384,315
894.8349,322
894.951355,333
895.067932,316
895.184448,302
895.300964,311
895.417419,317
895.533936,312
895.650452,322
895.766907,322
895.883423,308
895.999878,310
896.116333,320
896.232849,327
896.349304,312
896.465759,311
896.582214,313
896.698669,317
896.815125,320
896.931641,308
897.048035,330
897.164551,323
897.280884,321
897.397339,323
897.513794,312
897.630249,323
897.746582,333
897.863098,312
897.979431,327
898.095886,319
898.212341,314
898.328674,311
898.445129,321
898.561462,314
898.677795,314
898.794312,319
898.910645,314
899.026978,315
899.143433,317
899.259766,311
899.37616,321
899.492493,316
899.608765,327
899.725159,308
899.841553,317
899.957947,323
900.07428,323
900.190552,310
900.306946,317
900.423157,324
900.53949,324
900.655884,314
900.772156,330
900.888489,323
901.004822,330
901.121033,320
901.237366,325
901.353699,320
901.46991,323
901.586304,306
901.702515,316
901.818787,322
901.93512,318
902.051331,307
902.167603,323
902.283875,338
902.400085,328
902.516418,323
902.632629,332
902.74884,322
902.865112,329
902.981384,318
903.097595,311
903.213867,326
903.330017,312
903.446289,323
903.5625,320
903.67865,334
903.794922,323
903.911072,326
904.027344,321
904.143494,326
904.259705,315
904.375916,312
904.492065,324
904.608215,318
904.724426,324
904.840576,318
904.956726,314
905.072876,332
905.189087,320
905.305176,319
905.421387,327
905.537537,316
905.653687,320
905.769775,316
905.885925,324
906.002014,320
906.118164,316
906.234314,300
906.350403,330
906.466492,313
906.582642,335
906.69873,332
906.814758,323
906.930908,318
907.046936,319
907.163086,324
907.279175,318
907.395264,314
907.511353,317
907.62738,320
907.743408,312
907.859497,317
907.975525,311
908.091553,324
908.207703,321
908.32373,311
908.439758,312
908.555786,312
908.671814,323
908.787842,305
908.90387,324
909.019775,309
909.135864,327
909.251892,326
909.367859,327
909.483826,332
909.599854,333
909.715881,319
909.831848,317
909.947815,321
910.063782,317
910.179749,317
910.295776,310
910.411743,326
910.527649,328
910.643616,318
910.759583,331
910.875488,308
910.991455,333
911.107361,328
911.223267,311
911.339294,322
911.4552,332
911.571106,328
911.687073,325
911.802979,304
911.918823,331
912.034729,317
912.150635,329
912.266602,328
912.382446,316
912.498352,320
912.614197,323
912.730103,309
912.846008,320
792.44574,348
792.56488,397
792.68396,443
792.80304,429
792.92218,373
793.041199,349
793.160339,364
793.279419,371
793.398499,365
793.517578,349
793.636658,336
793.755737,360
793.874817,361
793.993896,362
794.112976,354
794.232056,358
794.351074,350
794.470215,358
794.589233,353
794.708313,352
794.827393,367
794.946411,360
795.065552,355
795.18457,348
795.303589,354
795.422668,355
795.541687,342
795.660767,340
795.779846,339
795.898865,342
796.017883,351
796.136963,347
796.255981,343
796.375061,339
796.49408,348
796.613037,348
796.732117,345
796.851135,340
796.970154,344
797.089233,338
797.208191,342
797.327271,320
797.446228,358
797.565186,325
797.684265,344
797.803223,328
797.922241,340
798.04126,339
798.160278,334
798.279297,340
798.398315,324
798.517273,342
798.636292,325
798.75531,335
798.874268,337
798.993286,347
799.112244,351
799.231323,337
799.350281,345
799.469238,327
799.588257,351
799.707153,348
799.826111,335
799.945129,335
800.064087,334
800.183044,321
800.302063,333
800.421021,328
800.539978,347
800.658936,329
800.777893,343
800.896912,331
801.015747,339
801.134705,323
801.253723,341
801.37262,313
801.491638,327
801.610535,328
801.729492,320
801.84845,338
801.967407,328
802.086243,334
802.205261,338
802.324158,313
802.443115,335
802.562073,338
802.680969,337
802.799927,332
802.918762,322
803.037659,335
803.156677,331
803.275574,325
803.39447,315
803.513428,333
803.632263,331
803.751221,329
803.870117,337
803.989014,323
804.107971,313
804.226746,338
804.345642,329
804.4646,331
804.583496,326
804.702393,321
804.821228,342
804.940125,327
805.059021,340
805.177917,325
805.296814,324
805.415649,327
805.534546,332
805.653442,322
805.772278,324
805.891113,302
806.01001,315
806.128906,325
806.247742,339
806.366577,336
806.485413,330
806.604309,313
806.723145,348
806.84198,325
806.960876,339
807.079712,326
807.198486,329
807.317383,323
807.436218,333
807.554993,322
807.673889,333
807.792725,322
807.91156,328
808.030396,328
808.14917,329
808.268005,329
808.386841,332
808.505676,333
808.624451,332
808.743286,319
808.862122,317
808.980896,339
809.099731,317
809.218506,331
809.337341,333
809.456116,324
809.57489,338
809.693726,329
809.8125,328
809.931274,323
810.050049,326
810.168884,331
810.287659,319
810.406372,324
810.525269,308
810.643982,327
810.762756,332
810.881531,330
811.000305,333
811.11908,325
811.237854,316
811.356567,321
811.475403,332
811.594116,318
811.71283,334
811.831604,317
811.950378,335
812.069153,325
812.187927,330
812.30658,321
812.425415,325
812.544128,320
812.662781,338
812.781616,335
812.900269,340
813.019043,321
813.137756,330
813.256531,322
813.375244,326
813.493896,337
813.612671,341
813.731384,327
813.850037,327
813.96875,348
814.087524,330
814.206238,317
814.324951,339
814.443604,326
814.562256,322
814.68103,342
814.799683,336
814.918335,329
815.037109,327
815.155762,322
815.274475,333
815.393188,314
815.511841,326
815.630554,314
815.749146,331
815.867859,338
815.986572,323
816.105164,339
816.223877,315
816.342529,321
816.461182,322
816.579895,323
816.698486,316
816.817139,328
816.935791,340
817.054504,322
817.173096,323
817.291748,327
817.4104,331
817.529053,318
817.647644,317
817.766235,332
817.884949,318
818.00354,328
818.122192,311
818.240845,335
818.359436,309
818.478088,334
818.59668,316
818.715271,334
818.833923,332
818.952515,320
819.071106,333
819.189758,318
819.30835,329
819.426941,321
819.545532,312
819.664124,314
819.782715,324
819.901306,326
820.019897,318
820.138489,332
820.25708,317
820.375671,322
820.494202,323
820.612732,326
820.731384,317
820.849915,325
820.968506,327
821.087097,320
821.205627,335
821.324158,321
821.442749,316
821.561279,345
821.679871,333
821.798401,336
821.916931,332
822.035461,301
822.154053,315
822.272583,329
822.391174,332
822.509583,312
822.628174,324
822.746704,312
822.865234,324
822.983765,306
823.102295,324
823.220825,313
823.339294,318
823.457825,314
823.576355,321
823.694824,320
823.813354,320
823.931885,320
824.050354,319
824.168884,311
824.287354,313
824.405823,315
824.524353,327
824.642822,323
824.761353,323
824.879822,321
824.998291,322
825.116699,324
825.235291,332
825.353699,324
825.472168,323
825.590637,306
825.709106,328
825.827576,332
825.946045,329
826.064453,315
826.182983,313
826.301392,312
826.4198,319
826.53833,327
826.656738,311
826.775208,309
826.893677,334
827.012024,313
827.130493,332
827.248962,308
827.36731,323
827.485779,317
827.604248,326
827.722595,320
827.841064,334
827.959412,310
828.077942,332
828.196289,325
828.314636,325
828.433105,321
828.551514,337
828.669861,313
828.78833,310
828.906677,315
829.025085,319
829.143433,324
829.261841,324
829.38031,316
829.498657,326
829.617004,325
829.735413,332
829.85376,322
829.972107,312
830.090515,317
830.208862,318
830.327209,325
830.445557,320
830.563904,316
830.682312,314
830.800659,316
830.919006,299
831.037354,316
831.155701,316
831.274048,317
831.392395,322
831.51062,320
831.629028,322
831.747314,321
831.865662,320
831.984009,305
832.102356,321
832.220642,319
832.338928,326
832.457275,317
832.575623,331
832.693909,314
832.812134,324
832.930481,318
833.048828,320
833.167114,329
833.2854,324
833.403687,314
833.521973,321
833.640259,332
833.758545,323
833.876831,328
833.995056,338
834.113281,317
834.231628,316
834.349915,327
834.468201,323
834.586426,311
834.704651,321
834.822998,328
834.941162,319
835.059448,308
835.177673,304
835.295959,323
835.414246,326
835.53241,322
835.650635,324
835.768921,331
835.887146,313
836.005371,320
836.123596,321
836.241821,311
836.360046,312
836.478271,332
836.596497,323
836.714722,315
836.832886,326
836.95105,305
837.069336,315
837.1875,317
837.305725,320
837.423889,322
837.542053,316
837.660339,319
837.778503,309
837.896667,309
838.014832,329
838.132996,309
838.25116,328
838.369385,330
838.487488,317
838.605713,324
838.723877,317
838.84198,307
838.960205,318
839.078308,313
839.196472,328
839.314636,323
839.4328,324
839.550964,318
839.669067,322
839.787231,314
839.905396,317
840.023499,314
840.141602,317
840.259766,305
840.377869,336
840.495972,323
840.614136,313
840.732239,325
840.850342,331
840.968445,320
841.086548,318
841.204651,313
841.322754,327
841.440918,328
841.55896,316
841.677002,315
841.795166,327
841.913208,328
842.031311,337
842.149353,325
842.267456,326
842.385498,330
842.503601,329
842.621643,317
842.739746,324
842.857788,315
842.97583,321
843.093933,330
843.211975,324
843.330017,324
843.44812,333
843.566101,325
843.684204,329
843.802246,319
843.920227,324
844.038269,324
844.156311,316
844.274292,329
844.392395,323
844.510376,328
844.628357,327
844.74646,329
844.864441,319
844.982422,322
845.100403,325
845.218384,329
845.336426,320
845.454468,315
845.572449,323
845.69043,302
845.808411,328
845.926453,322
846.044373,326
846.162354,321
846.280396,322
846.398315,320
846.516296,328
846.634216,311
846.752197,327
846.870178,325
846.988098,329
847.106079,317
847.22406,323
847.34198,315
847.4599,335
847.577881,319
847.695801,325
847.813782,323
847.931641,331
848.049561,310
848.167603,315
848.285461,310
848.403381,331
848.521362,324
848.639221,319
848.75708,315
848.875,330
848.99292,318
849.110901,322
849.22876,318
849.34668,319
849.464539,316
849.582458,320
849.700317,308
849.818176,324
849.936096,333
850.053955,330
850.171875,313
850.289673,312
850.407593,317
850.525452,326
850.643311,312
850.761169,319
850.878967,313
850.996887,322
851.114746,314
851.232544,326
851.350403,331
851.468262,333
851.58606,312
851.703979,321
851.821777,319
851.939636,341
852.057434,328
852.175232,328
852.293091,317
852.410889,334
852.528687,332
852.646545,327
852.764343,310
852.88208,315
852.999939,312
853.117676,321
853.235535,314
853.353271,330
853.471069,321
853.588928,320
853.706604,314
853.824402,319
853.9422,314
854.059998,324
854.177734,323
854.295532,315
854.413269,329
854.531006,339
854.648804,322
854.766541,327
854.884277,324
855.002014,333
855.119751,318
855.237549,323
855.355225,316
855.473022,342
855.590698,321
855.708435,334
855.826172,328
855.943848,331
856.061646,316
856.179321,339
856.296997,321
856.414795,328
856.53241,323
856.650085,322
856.767822,308
856.885559,323
857.003174,323
857.120911,328
857.238586,326
857.356201,327
857.473938,314
857.591614,328
857.709351,315
857.826965,316
857.944641,307
858.062317,334
858.179993,323
858.297668,328
858.415283,333
858.532959,312
858.650574,320
858.768188,330
858.885803,330
859.003479,327
859.121094,302
859.23877,331
859.356384,318
859.473999,329
859.591675,322
859.709229,342
859.826843,306
859.944458,337
860.062012,311
860.179626,329
860.297302,312
860.414856,327
860.532471,331
860.650024,325
860.767639,312
860.885193,332
861.002808,327
861.120361,315
861.237976,333
861.35553,323
861.473022,322
861.590698,317
861.708191,318
861.825745,321
861.943298,318
862.060852,336
862.178406,326
862.295959,309
862.413513,315
862.531006,320
862.64856,303
862.766113,335
862.883667,316
863.00116,325
863.118713,322
863.236206,331
863.353699,327
863.471252,309
863.588745,317
863.706177,326
863.82373,316
863.941162,319
864.058716,314
864.176208,329
864.29364,325
864.411194,320
864.528687,327
864.646118,327
864.763611,317
864.881042,309
864.998535,311
865.116028,341
865.233459,314
865.350891,314
865.468384,319
865.585754,326
865.703308,322
865.820679,323
865.938171,329
866.055542,308
866.173035,314
866.290466,318
866.407837,331
866.52533,317
866.6427,315
866.760071,322
866.877563,318
866.994934,331
867.112305,323
867.229736,329
867.347107,310
867.464539,322
867.58197,304
867.699341,330
867.81665,324
867.934082,329
868.051453,315
868.168823,316
868.286194,322
868.403564,308
868.520935,309
868.638306,319
868.755676,321
868.872986,311
868.990295,322
869.107727,326
869.225037,333
869.342346,326
869.459717,330
869.577026,314
869.694336,310
869.811707,318
869.929016,318
870.046326,332
870.163635,318
870.280945,324
870.398254,317
870.515564,315
870.632812,326
870.750183,332
870.867432,329
870.984741,320
871.102051,321
871.219299,334
871.336609,326
871.453918,326
871.571106,323
871.688416,322
871.805664,322
871.922852,311
872.040222,315
872.157471,331
872.274719,311
872.391968,319
872.509155,329
872.626465,328
872.743652,318
872.860962,326
872.978149,329
873.095337,334
873.212646,313
873.329834,326
873.44696,313
873.564209,328
873.681396,315
873.798645,318
873.915894,327
874.03302,318
874.150208,316
874.267456,322
874.384583,329
874.501831,329
874.618958,321
874.736145,334
874.853333,331
874.970459,335
875.087646,318
875.204834,322
875.32196,338
875.439148,318
875.556274,332
875.673401,323
875.790527,316
875.907715,324
876.024841,337
876.141968,329
876.259094,315
876.376282,325
876.493347,321
876.610474,317
876.7276,306
876.844727,325
876.961853,324
877.078918,332
877.195984,320
877.313171,317
877.430237,320
877.547302,310
877.664368,319
877.781433,334
877.898499,312
878.015625,322
878.13269,318
878.249695,321
878.366821,308
878.483887,326
878.600952,327
878.717957,315
878.834961,316
878.952087,330
879.069092,323
879.186157,310
879.303162,314
879.420227,308
879.537231,311
879.654236,313
879.77124,331
879.888306,318
880.005249,320
880.122314,324
880.239319,314
880.356323,326
880.473328,310
880.590271,306
880.707275,321
880.824341,313
880.941284,308
881.058228,318
881.175232,326
881.292236,305
881.40918,322
881.526123,324
881.643066,321
881.760071,326
881.877014,310
881.993958,338
882.11084,323
882.227783,325
882.344727,315
882.46167,316
882.578613,318
882.695618,326
882.812439,317
882.929382,320
883.046326,315
883.163208,323
883.280151,330
883.397034,319
883.513916,315
883.630798,329
883.747742,319
883.864563,325
883.981506,312
884.098389,329
884.21521,308
884.332153,318
884.448975,321
884.565796,318
884.682678,320
884.7995,313
884.916443,325
885.033264,335
885.150085,328
885.266968,327
885.383789,321
885.500671,309
885.617493,327
885.734314,331
885.851196,336
885.967896,342
886.084717,318
886.201599,319
886.318359,332
886.435181,335
886.552002,321
886.668762,332
886.785645,326
886.902344,326
887.019165,330
887.135925,333
887.252747,327
887.369446,323
887.486267,331
887.603027,328
887.719788,327
887.836548,323
887.953247,323
888.070068,312
888.186829,329
888.303528,336
888.420288,323
888.536987,316
888.653687,319
888.770447,318
888.887146,318
889.003967,325
889.120667,318
889.237305,321
889.354065,323
889.470703,318
889.587463,309
889.704163,327
889.820862,308
889.937561,324
890.054199,316
890.170837,310
890.287598,332
890.404236,318
890.520874,316
890.637634,316
890.754211,310
890.87085,321
890.987549,312
891.104187,323
891.220886,329
891.337463,316
891.454102,310
891.57074,319
891.687378,312
891.804077,320
891.920654,320
892.037231,305
892.15387,320
892.270447,323
892.387085,306
892.503723,323
892.6203,317
892.736877,321
892.853516,328
892.970032,316
893.08667,312
893.203186,337
893.319763,318
893.43634,319
893.552917,304
893.669556,319
893.786011,316
893.902588,318
894.019165,311
894.135681,316
894.252197,323
894.368835,310
894.485291,301
894.601868,325
894.718384,320
894.8349,324
894.951355,309
895.067932,331
895.184448,317
895.300964,322
895.417419,314
895.533936,328
895.650452,310
895.766907,321
895.883423,313
895.999878,314
896.116333,304
896.232849,318
896.349304,329
896.465759,304
896.582214,308
896.698669,326
896.815125,323
896.931641,315
897.048035,308
897.164551,315
897.280884,323
897.397339,313
897.513794,327
897.630249,323
897.746582,298
897.863098,317
897.979431,320
898.095886,328
898.212341,318
898.328674,315
898.445129,313
898.561462,329
898.677795,311
898.794312,311
898.910645,318
899.026978,326
899.143433,308
899.259766,324
899.37616,327
899.492493,324
899.608765,326
899.725159,310
899.841553,326
899.957947,327
900.07428,326
900.190552,323
900.306946,309
900.423157,317
900.53949,319
900.655884,320
900.772156,312
900.888489,325
901.004822,322
901.121033,324
901.237366,306
901.353699,327
901.46991,320
901.586304,346
901.702515,323
901.818787,312
901.93512,312
902.051331,314
902.167603,334
902.283875,331
902.400085,322
902.516418,314
902.632629,320
902.74884,334
902.865112,331
902.981384,332
903.097595,325
903.213867,329
903.330017,332
903.446289,331
903.5625,327
903.67865,339
903.794922,318
903.911072,322
904.027344,319
904.143494,331
904.259705,320
904.375916,330
904.492065,312
904.608215,325
904.724426,323
904.840576,323
904.956726,314
905.072876,319
905.189087,310
905.305176,311
905.421387,326
905.537537,315
905.653687,316
905.769775,319
905.885925,322
906.002014,329
906.118164,325
906.234314,320
906.350403,310
906.466492,316
906.582642,319
906.69873,320
906.814758,337
906.930908,328
907.046936,312
907.163086,317
907.279175,305
907.395264,347
907.511353,321
907.62738,330
907.743408,310
907.859497,326
907.975525,307
908.091553,331
908.207703,318
908.32373,318
908.439758,317
908.555786,321
908.671814,299
908.787842,333
908.90387,321
909.019775,318
909.135864,310
909.251892,327
909.367859,301
909.483826,318
909.599854,317
909.715881,319
909.831848,331
909.947815,323
910.063782,311
910.179749,321
910.295776,332
910.411743,322
910.527649,315
910.643616,323
910.759583,311
910.875488,334
910.991455,317
911.107361,333
911.223267,312
911.339294,322
911.4552,318
911.571106,319
911.687073,298
911.802979,317
911.918823,303
912.034729,329
912.150635,312
912.266602,316
912.382446,316
912.498352,317
912.614197,311
912.730103,310
912.846008,315
