792.44574,393
792.56488,391
792.68396,459
792.80304,428
792.92218,383
793.041199,365
793.160339,379
793.279419,400
793.398499,392
793.517578,357
793.636658,361
793.755737,380
793.874817,387
793.993896,379
794.112976,363
794.232056,360
794.351074,354
794.470215,363
794.589233,363
794.708313,354
794.827393,349
794.946411,366
795.065552,368
795.18457,361
795.303589,373
795.422668,339
795.541687,361
795.660767,354
795.779846,348
795.898865,349
796.017883,352
796.136963,338
796.255981,354
796.375061,350
796.49408,347
796.613037,355
796.732117,348
796.851135,335
796.970154,344
797.089233,334
797.208191,342
797.327271,345
797.446228,349
797.565186,344
797.684265,336
797.803223,344
797.922241,338
798.04126,341
798.160278,348
798.279297,333
798.398315,345
798.517273,329
798.636292,341
798.75531,352
798.874268,339
798.993286,339
799.112244,340
799.231323,334
799.350281,340
799.469238,335
799.588257,333
799.707153,332
799.826111,340
799.945129,332
800.064087,340
800.183044,335
800.302063,335
800.421021,326
800.539978,340
800.658936,328
800.777893,327
800.896912,346
801.015747,335
801.134705,334
801.253723,324
801.37262,317
801.491638,343
801.610535,321
801.729492,331
801.84845,318
801.967407,341
802.086243,343
802.205261,343
802.324158,330
802.443115,331
802.562073,331
802.680969,334
802.799927,334
802.918762,323
803.037659,338
803.156677,345
803.275574,325
803.39447,338
803.513428,333
803.632263,337
803.751221,337
803.870117,332
803.989014,350
804.107971,324
804.226746,325
804.345642,331
804.4646,338
804.583496,321
804.702393,329
804.821228,330
804.940125,328
805.059021,348
805.177917,335
805.296814,329
805.415649,342
805.534546,325
805.653442,341
805.772278,346
805.891113,328
806.01001,330
806.128906,325
806.247742,331
806.366577,327
806.485413,337
806.604309,329
806.723145,331
806.84198,332
806.960876,317
807.079712,329
807.198486,332
807.317383,336
807.436218,319
807.554993,333
807.673889,322
807.792725,319
807.91156,339
808.030396,319
808.14917,336
808.268005,331
808.386841,326
808.505676,325
808.624451,317
808.743286,344
808.862122,313
808.980896,332
809.099731,318
809.218506,323
809.337341,334
809.456116,328
809.57489,317
809.693726,325
809.8125,330
809.931274,328
810.050049,324
810.168884,327
810.287659,324
810.406372,330
810.525269,325
810.643982,320
810.762756,315
810.881531,339
811.000305,318
811.11908,328
811.237854,328
811.356567,327
811.475403,335
811.594116,328
811.71283,333
811.831604,332
811.950378,330
812.069153,320
812.187927,337
812.30658,341
812.425415,321
812.544128,336
812.662781,323
812.781616,319
812.900269,337
813.019043,336
813.137756,344
813.256531,322
813.375244,343
813.493896,326
813.612671,321
813.731384,334
813.850037,325
813.96875,329
814.087524,324
814.206238,327
814.324951,324
814.443604,332
814.562256,321
814.68103,333
814.799683,308
814.918335,322
815.037109,325
815.155762,336
815.274475,315
815.393188,336
815.511841,340
815.630554,331
815.749146,335
815.867859,316
815.986572,337
816.105164,334
816.223877,318
816.342529,322
816.461182,345
816.579895,329
816.698486,320
816.817139,324
816.935791,340
817.054504,335
817.173096,327
817.291748,325
817.4104,328
817.529053,322
817.647644,321
817.766235,324
817.884949,327
818.00354,329
818.122192,336
818.240845,323
818.359436,320
818.478088,323
818.59668,328
818.715271,325
818.833923,333
818.952515,317
819.071106,321
819.189758,331
819.30835,316
819.426941,328
819.545532,327
819.664124,321
819.782715,313
819.901306,327
820.019897,328
820.138489,310
820.25708,318
820.375671,306
820.494202,328
820.612732,321
820.731384,316
820.849915,311
820.968506,320
821.087097,308
821.205627,319
821.324158,322
821.442749,319
821.561279,334
821.679871,323
821.798401,317
821.916931,331
822.035461,321
822.154053,320
822.272583,319
822.391174,333
822.509583,337
822.628174,336
822.746704,320
822.865234,329
822.983765,316
823.102295,324
823.220825,323
823.339294,321
823.457825,312
823.576355,322
823.694824,327
823.813354,326
823.931885,324
824.050354,327
824.168884,326
824.287354,332
824.405823,320
824.524353,332
824.642822,315
824.761353,331
824.879822,317
824.998291,319
825.116699,318
825.235291,327
825.353699,320
825.472168,331
825.590637,327
825.709106,312
825.827576,311
825.946045,327
826.064453,318
826.182983,320
826.301392,313
826.4198,313
826.53833,310
826.656738,317
826.775208,321
826.893677,330
827.012024,313
827.130493,315
827.248962,328
827.36731,318
827.485779,321
827.604248,326
827.722595,324
827.841064,331
827.959412,316
828.077942,330
828.196289,319
828.314636,332
828.433105,326
828.551514,314
828.669861,315
828.78833,323
828.906677,322
829.025085,323
829.143433,312
829.261841,318
829.38031,315
829.498657,315
829.617004,320
829.735413,334
829.85376,309
829.972107,317
830.090515,322
830.208862,322
830.327209,316
830.445557,319
830.563904,321
830.682312,337
830.800659,334
830.919006,312
831.037354,312
831.155701,315
831.274048,322
831.392395,312
831.51062,310
831.629028,314
831.747314,310
831.865662,326
831.984009,309
832.102356,314
832.220642,331
832.338928,328
832.457275,323
832.575623,334
832.693909,311
832.812134,321
832.930481,315
833.048828,332
833.167114,310
833.2854,309
833.403687,331
833.521973,324
833.640259,319
833.758545,322
833.876831,310
833.995056,317
834.113281,310
834.231628,337
834.349915,326
834.468201,329
834.586426,317
834.704651,323
834.822998,324
834.941162,316
835.059448,322
835.177673,333
835.295959,311
835.414246,331
835.53241,321
835.650635,315
835.768921,317
835.887146,320
836.005371,339
836.123596,332
836.241821,312
836.360046,322
836.478271,309
836.596497,321
836.714722,308
836.832886,315
836.95105,337
837.069336,318
837.1875,334
837.305725,317
837.423889,305
837.542053,328
837.660339,318
837.778503,333
837.896667,321
838.014832,329
838.132996,316
838.25116,323
838.369385,327
838.487488,320
838.605713,316
838.723877,329
838.84198,315
838.960205,343
839.078308,324
839.196472,324
839.314636,317
839.4328,323
839.550964,314
839.669067,330
839.787231,315
839.905396,321
840.023499,314
840.141602,337
840.259766,321
840.377869,321
840.495972,316
840.614136,346
840.732239,317
840.850342,332
840.968445,309
841.086548,323
841.204651,313
841.322754,336
841.440918,320
841.55896,321
841.677002,342
841.795166,328
841.913208,312
842.031311,332
842.149353,313
842.267456,338
842.385498,315
842.503601,340
842.621643,328
842.739746,316
842.857788,325
842.97583,323
843.093933,333
843.211975,320
843.330017,331
843.44812,331
843.566101,328
843.684204,330
843.802246,340
843.920227,326
844.038269,322
844.156311,331
844.274292,329
844.392395,335
844.510376,319
844.628357,321
844.74646,330
844.864441,318
844.982422,315
845.100403,320
845.218384,327
845.336426,326
845.454468,333
845.572449,336
845.69043,320
845.808411,325
845.926453,318
846.044373,322
846.162354,328
846.280396,330
846.398315,315
846.516296,327
846.634216,309
846.752197,327
846.870178,319
846.988098,328
847.106079,318
847.22406,329
847.34198,325
847.4599,324
847.577881,311
847.695801,334
847.813782,312
847.931641,336
848.049561,312
848.167603,325
848.285461,305
848.403381,335
848.521362,324
848.639221,317
848.75708,322
848.875,334
848.99292,322
849.110901,330
849.22876,305
849.34668,327
849.464539,321
849.582458,333
849.700317,322
849.818176,327
849.936096,313
850.053955,341
850.171875,318
850.289673,329
850.407593,319
850.525452,323
850.643311,306
850.761169,323
850.878967,323
850.996887,326
851.114746,314
851.232544,305
851.350403,314
851.468262,321
851.58606,311
851.703979,321
851.821777,327
851.939636,328
852.057434,326
852.175232,316
852.293091,336
852.410889,312
852.528687,335
852.646545,316
852.764343,329
852.88208,333
852.999939,322
853.117676,335
853.235535,315
853.353271,324
853.471069,317
853.588928,325
853.706604,324
853.824402,320
853.9422,332
854.059998,328
854.177734,329
854.295532,321
854.413269,315
854.531006,327
854.648804,307
854.766541,324
854.884277,333
855.002014,335
855.119751,319
855.237549,321
855.355225,332
855.473022,334
855.590698,324
855.708435,330
855.826172,308
855.943848,337
856.061646,326
856.179321,320
856.296997,325
856.414795,328
856.53241,320
856.650085,336
856.767822,328
856.885559,338
857.003174,324
857.120911,317
857.238586,324
857.356201,326
857.473938,320
857.591614,327
857.709351,332
857.826965,331
857.944641,330
858.062317,321
858.179993,329
858.297668,329
858.415283,334
858.532959,320
858.650574,313
858.768188,335
858.885803,318
859.003479,337
859.121094,324
859.23877,330
859.356384,339
859.473999,331
859.591675,335
859.709229,329
859.826843,328
859.944458,322
860.062012,320
860.179626,320
860.297302,324
860.414856,325
860.532471,323
860.650024,336
860.767639,308
860.885193,312
861.002808,320
861.120361,323
861.237976,311
861.35553,328
861.473022,312
861.590698,336
861.708191,324
861.825745,320
861.943298,315
862.060852,316
862.178406,319
862.295959,327
862.413513,306
862.531006,321
862.64856,307
862.766113,326
862.883667,344
863.00116,323
863.118713,314
863.236206,320
863.353699,316
863.471252,335
863.588745,324
863.706177,320
863.82373,320
863.941162,324
864.058716,316
864.176208,330
864.29364,313
864.411194,321
864.528687,305
864.646118,318
864.763611,315
864.881042,328
864.998535,310
865.116028,321
865.233459,316
865.350891,319
865.468384,331
865.585754,314
865.703308,321
865.820679,326
865.938171,322
866.055542,321
866.173035,311
866.290466,314
866.407837,321
866.52533,319
866.6427,329
866.760071,319
866.877563,316
866.994934,328
867.112305,314
867.229736,324
867.347107,314
867.464539,326
867.58197,330
867.699341,320
867.81665,305
867.934082,315
868.051453,320
868.168823,317
868.286194,315
868.403564,320
868.520935,318
868.638306,311
868.755676,312
868.872986,324
868.990295,326
869.107727,325
869.225037,311
869.342346,327
869.459717,324
869.577026,318
869.694336,334
869.811707,324
869.929016,324
870.046326,329
870.163635,321
870.280945,323
870.398254,314
870.515564,339
870.632812,308
870.750183,333
870.867432,322
870.984741,326
871.102051,329
871.219299,317
871.336609,329
871.453918,320
871.571106,329
871.688416,341
871.805664,308
871.922852,325
872.040222,323
872.157471,339
872.274719,321
872.391968,324
872.509155,316
872.626465,334
872.743652,332
872.860962,331
872.978149,330
873.095337,323
873.212646,325
873.329834,330
873.44696,315
873.564209,326
873.681396,313
873.798645,322
873.915894,309
874.03302,317
874.150208,326
874.267456,321
874.384583,319
874.501831,321
874.618958,319
874.736145,310
874.853333,320
874.970459,326
875.087646,323
875.204834,340
875.32196,332
875.439148,334
875.556274,316
875.673401,332
875.790527,319
875.907715,327
876.024841,319
876.141968,316
876.259094,319
876.376282,333
876.493347,329
876.610474,333
876.7276,318
876.844727,320
876.961853,325
877.078918,321
877.195984,311
877.313171,330
877.430237,321
877.547302,320
877.664368,323
877.781433,328
877.898499,323
878.015625,321
878.13269,320
878.249695,319
878.366821,331
878.483887,326
878.600952,310
878.717957,329
878.834961,317
878.952087,326
879.069092,299
879.186157,324
879.303162,310
879.420227,327
879.537231,299
879.654236,336
879.77124,325
879.888306,304
880.005249,320
880.122314,333
880.239319,316
880.356323,320
880.473328,304
880.590271,315
880.707275,310
880.824341,316
880.941284,313
881.058228,327
881.175232,318
881.292236,319
881.40918,315
881.526123,319
881.643066,302
881.760071,321
881.877014,315
881.993958,326
882.11084,316
882.227783,323
882.344727,318
882.46167,315
882.578613,302
882.695618,330
882.812439,315
882.929382,320
883.046326,327
883.163208,329
883.280151,317
883.397034,317
883.513916,323
883.630798,319
883.747742,323
883.864563,326
883.981506,325
884.098389,317
884.21521,312
884.332153,347
884.448975,322
884.565796,330
884.682678,321
884.7995,327
884.916443,319
885.033264,324
885.150085,323
885.266968,327
885.383789,320
885.500671,341
885.617493,322
885.734314,335
885.851196,320
885.967896,345
886.084717,340
886.201599,333
886.318359,326
886.435181,328
886.552002,341
886.668762,328
886.785645,317
886.902344,326
887.019165,324
887.135925,344
887.252747,310
887.369446,325
887.486267,322
887.603027,319
887.719788,318
887.836548,326
887.953247,310
888.070068,319
888.186829,315
888.303528,331
888.420288,319
888.536987,312
888.653687,320
888.770447,324
888.887146,314
889.003967,325
889.120667,311
889.237305,310
889.354065,327
889.470703,328
889.587463,312
889.704163,313
889.820862,313
889.937561,323
890.054199,319
890.170837,320
890.287598,307
890.404236,336
890.520874,306
890.637634,337
890.754211,311
890.87085,313
890.987549,319
891.104187,312
891.220886,315
891.337463,330
891.454102,313
891.57074,328
891.687378,314
891.804077,325
891.920654,311
892.037231,320
892.15387,323
892.270447,327
892.387085,326
892.503723,329
892.6203,310
892.736877,327
892.853516,314
892.970032,322
893.08667,324
893.203186,315
893.319763,321
893.43634,327
893.552917,311
893.669556,325
893.786011,300
893.902588,327
894.019165,302
894.135681,323
894.252197,323
894.368835,322
894.485291,305
894.601868,307
894.718384,316
894.8349,323
894.951355,323
895.067932,315
895.184448,310
895.300964,325
895.417419,323
895.533936,317
895.650452,320
895.766907,317
895.883423,325
895.999878,318
896.116333,310
896.232849,324
896.349304,314
896.465759,315
896.582214,311
896.698669,322
896.815125,325
896.931641,312
897.048035,308
897.164551,333
897.280884,308
897.397339,318
897.513794,304
897.630249,314
897.746582,312
897.863098,326
897.979431,325
898.095886,314
898.212341,326
898.328674,329
898.445129,313
898.561462,327
898.677795,324
898.794312,317
898.910645,313
899.026978,304
899.143433,308
899.259766,308
899.37616,332
899.492493,319
899.608765,307
899.725159,329
899.841553,309
899.957947,330
900.07428,311
900.190552,335
900.306946,330
900.423157,317
900.53949,321
900.655884,337
900.772156,310
900.888489,324
901.004822,322
901.121033,324
901.237366,324
901.353699,326
901.46991,318
901.586304,328
901.702515,308
901.818787,320
901.93512,310
902.051331,332
902.167603,330
902.283875,315
902.400085,333
902.516418,330
902.632629,321
902.74884,323
902.865112,319
902.981384,326
903.097595,331
903.213867,322
903.330017,313
903.446289,328
903.5625,329
903.67865,323
903.794922,327
903.911072,313
904.027344,339
904.143494,328
904.259705,317
904.375916,326
904.492065,315
904.608215,328
904.724426,315
904.840576,326
904.956726,321
905.072876,312
905.189087,310
905.305176,318
905.421387,314
905.537537,328
905.653687,315
905.769775,329
905.885925,310
906.002014,318
906.118164,313
906.234314,318
906.350403,307
906.466492,330
906.582642,305
906.69873,311
906.814758,317
906.930908,321
907.046936,306
907.163086,322
907.279175,303
907.395264,332
907.511353,315
907.62738,319
907.743408,309
907.859497,326
907.975525,311
908.091553,331
908.207703,323
908.32373,313
908.439758,310
908.555786,321
908.671814,314
908.787842,319
908.90387,312
909.019775,324
909.135864,307
909.251892,319
909.367859,318
909.483826,327
909.599854,305
909.715881,314
909.831848,307
909.947815,329
910.063782,327
910.179749,311
910.295776,317
910.411743,317
910.527649,314
910.643616,315
910.759583,323
910.875488,334
910.991455,322
911.107361,311
911.223267,305
911.339294,331
911.4552,311
911.571106,322
911.687073,322
911.802979,322
911.918823,316
912.034729,313
912.150635,309
912.266602,314
912.382446,311
912.498352,319
912.614197,294
912.730103,315
912.846008,308
792.44574,382
792.56488,391
792.68396,463
792.80304,437
792.92218,388
793.041199,376
793.160339,375
793.279419,372
793.398499,375
793.517578,342
793.636658,371
793.755737,355
793.874817,380
793.993896,383
794.112976,368
794.232056,350
794.351074,375
794.470215,354
794.589233,357
794.708313,341
794.827393,358
794.946411,350
795.065552,353
795.18457,358
795.303589,350
795.422668,332
795.541687,355
795.660767,347
795.779846,344
795.898865,358
796.017883,333
796.136963,343
796.255981,340
796.375061,352
796.49408,348
796.613037,346
796.732117,347
796.851135,338
796.970154,332
797.089233,346
797.208191,357
797.327271,346
797.446228,348
797.565186,336
797.684265,351
797.803223,328
797.922241,338
798.04126,338
798.160278,346
798.279297,331
798.398315,344
798.517273,324
798.636292,351
798.75531,342
798.874268,348
798.993286,344
799.112244,332
799.231323,344
799.350281,348
799.469238,339
799.588257,350
799.707153,329
799.826111,350
799.945129,339
800.064087,333
800.183044,338
800.302063,333
800.421021,331
800.539978,336
800.658936,319
800.777893,352
800.896912,337
801.015747,348
801.134705,318
801.253723,339
801.37262,338
801.491638,329
801.610535,337
801.729492,347
801.84845,339
801.967407,346
802.086243,330
802.205261,332
802.324158,323
802.443115,338
802.562073,335
802.680969,343
802.799927,331
802.918762,332
803.037659,325
803.156677,335
803.275574,341
803.39447,341
803.513428,327
803.632263,338
803.751221,326
803.870117,334
803.989014,323
804.107971,338
804.226746,332
804.345642,339
804.4646,325
804.583496,326
804.702393,334
804.821228,330
804.940125,319
805.059021,333
805.177917,324
805.296814,348
805.415649,328
805.534546,343
805.653442,332
805.772278,325
805.891113,327
806.01001,327
806.128906,348
806.247742,342
806.366577,330
806.485413,349
806.604309,323
806.723145,337
806.84198,325
806.960876,331
807.079712,328
807.198486,325
807.317383,331
807.436218,334
807.554993,324
807.673889,332
807.792725,329
807.91156,332
808.030396,316
808.14917,333
808.268005,327
808.386841,325
808.505676,317
808.624451,318
808.743286,337
808.862122,338
808.980896,342
809.099731,336
809.218506,322
809.337341,321
809.456116,328
809.57489,322
809.693726,310
809.8125,331
809.931274,328
810.050049,339
810.168884,332
810.287659,324
810.406372,314
810.525269,334
810.643982,313
810.762756,326
810.881531,333
811.000305,341
811.11908,333
811.237854,325
811.356567,329
811.475403,326
811.594116,309
811.71283,341
811.831604,327
811.950378,322
812.069153,325
812.187927,330
812.30658,338
812.425415,350
812.544128,336
812.662781,322
812.781616,311
812.900269,328
813.019043,336
813.137756,320
813.256531,336
813.375244,327
813.493896,323
813.612671,333
813.731384,326
813.850037,329
813.96875,321
814.087524,330
814.206238,323
814.324951,321
814.443604,323
814.562256,329
814.68103,334
814.799683,329
814.918335,326
815.037109,324
815.155762,327
815.274475,324
815.393188,316
815.511841,337
815.630554,317
815.749146,322
815.867859,326
815.986572,320
816.105164,320
816.223877,327
816.342529,312
816.461182,324
816.579895,328
816.698486,323
816.817139,332
816.935791,346
817.054504,333
817.173096,329
817.291748,332
817.4104,331
817.529053,332
817.647644,325
817.766235,333
817.884949,322
818.00354,336
818.122192,328
818.240845,320
818.359436,321
818.478088,343
818.59668,318
818.715271,316
818.833923,333
818.952515,324
819.071106,326
819.189758,322
819.30835,325
819.426941,314
819.545532,313
819.664124,321
819.782715,327
819.901306,307
820.019897,319
820.138489,317
820.25708,340
820.375671,321
820.494202,320
820.612732,326
820.731384,321
820.849915,316
820.968506,325
821.087097,324
821.205627,321
821.324158,316
821.442749,317
821.561279,312
821.679871,327
821.798401,325
821.916931,325
822.035461,309
822.154053,318
822.272583,321
822.391174,334
822.509583,319
822.628174,316
822.746704,330
822.865234,302
822.983765,323
823.102295,314
823.220825,323
823.339294,323
823.457825,318
823.576355,332
823.694824,341
823.813354,339
823.931885,325
824.050354,331
824.168884,328
824.287354,327
824.405823,325
824.524353,320
824.642822,329
824.761353,332
824.879822,323
824.998291,313
825.116699,327
825.235291,324
825.353699,314
825.472168,317
825.590637,314
825.709106,325
825.827576,319
825.946045,313
826.064453,306
826.182983,322
826.301392,324
826.4198,311
826.53833,320
826.656738,332
826.775208,333
826.893677,313
827.012024,304
827.130493,326
827.248962,322
827.36731,310
827.485779,309
827.604248,312
827.722595,316
827.841064,320
827.959412,332
828.077942,324
828.196289,312
828.314636,315
828.433105,320
828.551514,326
828.669861,321
828.78833,314
828.906677,320
829.025085,325
829.143433,336
829.261841,325
829.38031,314
829.498657,313
829.617004,299
829.735413,319
829.85376,317
829.972107,325
830.090515,329
830.208862,329
830.327209,307
830.445557,318
830.563904,321
830.682312,334
830.800659,315
830.919006,323
831.037354,321
831.155701,311
831.274048,323
831.392395,315
831.51062,333
831.629028,334
831.747314,313
831.865662,333
831.984009,325
832.102356,327
832.220642,325
832.338928,332
832.457275,306
832.575623,317
832.693909,328
832.812134,315
832.930481,323
833.048828,325
833.167114,313
833.2854,340
833.403687,322
833.521973,323
833.640259,322
833.758545,318
833.876831,311
833.995056,315
834.113281,309
834.231628,331
834.349915,321
834.468201,327
834.586426,331
834.704651,333
834.822998,323
834.941162,324
835.059448,320
835.177673,316
835.295959,313
835.414246,321
835.53241,328
835.650635,333
835.768921,333
835.887146,331
836.005371,307
836.123596,321
836.241821,319
836.360046,326
836.478271,314
836.596497,314
836.714722,318
836.832886,338
836.95105,333
837.069336,317
837.1875,308
837.305725,333
837.423889,325
837.542053,323
837.660339,312
837.778503,326
837.896667,342
838.014832,331
838.132996,315
838.25116,320
838.369385,322
838.487488,323
838.605713,331
838.723877,335
838.84198,318
838.960205,324
839.078308,317
839.196472,324
839.314636,315
839.4328,316
839.550964,318
839.669067,315
839.787231,330
839.905396,326
840.023499,328
840.141602,324
840.259766,319
840.377869,331
840.495972,325
840.614136,322
840.732239,319
840.850342,322
840.968445,319
841.086548,318
841.204651,315
841.322754,335
841.440918,310
841.55896,327
841.677002,323
841.795166,315
841.913208,313
842.031311,332
842.149353,337
842.267456,318
842.385498,321
842.503601,336
842.621643,332
842.739746,326
842.857788,323
842.97583,317
843.093933,329
843.211975,320
843.330017,312
843.44812,316
843.566101,317
843.684204,316
843.802246,312
843.920227,323
844.038269,323
844.156311,317
844.274292,321
844.392395,322
844.510376,314
844.628357,311
844.74646,309
844.864441,318
844.982422,314
845.100403,310
845.218384,314
845.336426,319
845.454468,320
845.572449,327
845.69043,342
845.808411,340
845.926453,317
846.044373,334
846.162354,312
846.280396,328
846.398315,315
846.516296,315
846.634216,310
846.752197,323
846.870178,314
846.988098,318
847.106079,322
847.22406,331
847.34198,317
847.4599,318
847.577881,311
847.695801,339
847.813782,321
847.931641,328
848.049561,317
848.167603,322
848.285461,322
848.403381,322
848.521362,317
848.639221,329
848.75708,335
848.875,333
848.99292,307
849.110901,324
849.22876,309
849.34668,333
849.464539,325
849.582458,321
849.700317,326
849.818176,344
849.936096,309
850.053955,324
850.171875,316
850.289673,328
850.407593,325
850.525452,320
850.643311,324
850.761169,332
850.878967,329
850.996887,329
851.114746,323
851.232544,319
851.350403,314
851.468262,311
851.58606,324
851.703979,318
851.821777,320
851.939636,340
852.057434,314
852.175232,325
852.293091,336
852.410889,329
852.528687,313
852.646545,308
852.764343,328
852.88208,327
852.999939,329
853.117676,316
853.235535,307
853.353271,330
853.471069,307
853.588928,321
853.706604,325
853.824402,321
853.9422,330
854.059998,320
854.177734,319
854.295532,335
854.413269,323
854.531006,351
854.648804,334
854.766541,330
854.884277,311
855.002014,335
855.119751,308
855.237549,324
855.355225,332
855.473022,321
855.590698,330
855.708435,326
855.826172,329
855.943848,333
856.061646,315
856.179321,323
856.296997,323
856.414795,333
856.53241,316
856.650085,325
856.767822,330
856.885559,332
857.003174,326
857.120911,312
857.238586,323
857.356201,317
857.473938,340
857.591614,335
857.709351,341
857.826965,330
857.944641,317
858.062317,329
858.179993,326
858.297668,325
858.415283,321
858.532959,325
858.650574,336
858.768188,328
858.885803,329
859.003479,325
859.121094,318
859.23877,325
859.356384,317
859.473999,334
859.591675,324
859.709229,309
859.826843,308
859.944458,331
860.062012,324
860.179626,331
860.297302,325
860.414856,331
860.532471,321
860.650024,317
860.767639,315
860.885193,320
861.002808,320
861.120361,330
861.237976,329
861.35553,334
861.473022,325
861.590698,327
861.708191,317
861.825745,310
861.943298,309
862.060852,315
862.178406,319
862.295959,327
862.413513,312
862.531006,338
862.64856,321
862.766113,333
862.883667,313
863.00116,328
863.118713,329
863.236206,326
863.353699,324
863.471252,312
863.588745,320
863.706177,325
863.82373,329
863.941162,327
864.058716,318
864.176208,328
864.29364,313
864.411194,327
864.528687,315
864.646118,313
864.763611,320
864.881042,318
864.998535,320
865.116028,332
865.233459,310
865.350891,325
865.468384,312
865.585754,312
865.703308,318
865.820679,310
865.938171,325
866.055542,330
866.173035,318
866.290466,312
866.407837,300
866.52533,324
866.6427,323
866.760071,324
866.877563,325
866.994934,326
867.112305,314
867.229736,332
867.347107,314
867.464539,328
867.58197,318
867.699341,332
867.81665,332
867.934082,328
868.051453,316
868.168823,329
868.286194,338
868.403564,322
868.520935,315
868.638306,328
868.755676,315
868.872986,311
868.990295,323
869.107727,324
869.225037,332
869.342346,325
869.459717,326
869.577026,319
869.694336,312
869.811707,324
869.929016,332
870.046326,319
870.163635,326
870.280945,325
870.398254,318
870.515564,334
870.632812,322
870.750183,334
870.867432,319
870.984741,334
871.102051,337
871.219299,330
871.336609,328
871.453918,328
871.571106,318
871.688416,325
871.805664,312
871.922852,319
872.040222,320
872.157471,322
872.274719,320
872.391968,339
872.509155,334
872.626465,327
872.743652,335
872.860962,329
872.978149,320
873.095337,346
873.212646,323
873.329834,320
873.44696,324
873.564209,331
873.681396,317
873.798645,319
873.915894,323
874.03302,328
874.150208,328
874.267456,329
874.384583,327
874.501831,322
874.618958,314
874.736145,334
874.853333,325
874.970459,334
875.087646,331
875.204834,335
875.32196,318
875.439148,331
875.556274,310
875.673401,342
875.790527,342
875.907715,330
876.024841,323
876.141968,334
876.259094,312
876.376282,331
876.493347,318
876.610474,338
876.7276,311
876.844727,326
876.961853,312
877.078918,331
877.195984,329
877.313171,322
877.430237,312
877.547302,326
877.664368,326
877.781433,323
877.898499,308
878.015625,310
878.13269,314
878.249695,314
878.366821,318
878.483887,334
878.600952,323
878.717957,330
878.834961,334
878.952087,320
879.069092,320
879.186157,317
879.303162,326
879.420227,317
879.537231,324
879.654236,329
879.77124,319
879.888306,322
880.005249,320
880.122314,314
880.239319,317
880.356323,316
880.473328,316
880.590271,326
880.707275,319
880.824341,320
880.941284,329
881.058228,331
881.175232,309
881.292236,329
881.40918,319
881.526123,329
881.643066,319
881.760071,335
881.877014,316
881.993958,322
882.11084,311
882.227783,328
882.344727,322
882.46167,339
882.578613,308
882.695618,321
882.812439,316
882.929382,319
883.046326,321
883.163208,327
883.280151,316
883.397034,329
883.513916,320
883.630798,326
883.747742,321
883.864563,334
883.981506,315
884.098389,335
884.21521,317
884.332153,316
884.448975,322
884.565796,321
884.682678,325
884.7995,330
884.916443,339
885.033264,344
885.150085,326
885.266968,315
885.383789,341
885.500671,323
885.617493,322
885.734314,337
885.851196,329
885.967896,327
886.084717,328
886.201599,333
886.318359,325
886.435181,342
886.552002,332
886.668762,315
886.785645,327
886.902344,340
887.019165,317
887.135925,340
887.252747,328
887.369446,336
887.486267,314
887.603027,332
887.719788,335
887.836548,325
887.953247,318
888.070068,332
888.186829,320
888.303528,325
888.420288,307
888.536987,323
888.653687,311
888.770447,327
888.887146,325
889.003967,323
889.120667,323
889.237305,336
889.354065,310
889.470703,319
889.587463,317
889.704163,321
889.820862,333
889.937561,322
890.054199,314
890.170837,314
890.287598,319
890.404236,320
890.520874,320
890.637634,328
890.754211,316
890.87085,320
890.987549,322
891.104187,311
891.220886,311
891.337463,325
891.454102,312
891.57074,332
891.687378,317
891.804077,326
891.920654,307
892.037231,320
892.15387,317
892.270447,312
892.387085,314
892.503723,306
892.6203,310
892.736877,311
892.853516,325
892.970032,321
893.08667,317
893.203186,319
893.319763,314
893.43634,311
893.552917,306
893.669556,331
893.786011,310
893.902588,323
894.019165,303
894.135681,320
894.252197,323
894.368835,321
894.485291,311
894.601868,322
894.718384,321
894.8349,309
894.951355,299
895.067932,326
895.184448,313
895.300964,320
895.417419,320
895.533936,322
895.650452,316
895.766907,308
895.883423,325
895.999878,325
896.116333,311
896.232849,329
896.349304,303
896.465759,325
896.582214,302
896.698669,319
896.815125,324
896.931641,320
897.048035,318
897.164551,309
897.280884,317
897.397339,325
897.513794,312
897.630249,324
897.746582,312
897.863098,325
897.979431,307
898.095886,316
898.212341,301
898.328674,324
898.445129,316
898.561462,327
898.677795,314
898.794312,319
898.910645,308
899.026978,316
899.143433,303
899.259766,323
899.37616,314
899.492493,325
899.608765,325
899.725159,328
899.841553,314
899.957947,334
900.07428,302
900.190552,333
900.306946,307
900.423157,323
900.53949,309
900.655884,321
900.772156,311
900.888489,323
901.004822,308
901.121033,320
901.237366,310
901.353699,330
901.46991,319
901.586304,321
901.702515,320
901.818787,317
901.93512,308
902.051331,323
902.167603,326
902.283875,315
902.400085,322
902.516418,334
902.632629,331
902.74884,331
902.865112,332
902.981384,320
903.097595,327
903.213867,327
903.330017,307
903.446289,325
903.5625,322
903.67865,324
903.794922,320
903.911072,317
904.027344,332
904.143494,318
904.259705,327
904.375916,321
904.492065,319
904.608215,326
904.724426,326
904.840576,315
904.956726,330
905.072876,320
905.189087,323
905.305176,329
905.421387,310
905.537537,330
905.653687,304
905.769775,326
905.885925,320
906.002014,329
906.118164,301
906.234314,332
906.350403,314
906.466492,315
906.582642,301
906.69873,320
906.814758,320
906.930908,311
907.046936,315
907.163086,324
907.279175,309
907.395264,310
907.511353,328
907.62738,316
907.743408,337
907.859497,322
907.975525,306
908.091553,317
908.207703,322
908.32373,324
908.439758,315
908.555786,309
908.671814,319
908.787842,316
908.90387,332
909.019775,324
909.135864,318
909.251892,317
909.367859,316
909.483826,316
909.599854,320
909.715881,308
909.831848,301
909.947815,326
910.063782,318
910.179749,315
910.295776,310
910.411743,321
910.527649,316
910.643616,329
910.759583,317
910.875488,317
910.991455,327
911.107361,310
911.223267,321
911.339294,322
911.4552,313
911.571106,330
911.687073,315
911.802979,315
911.918823,310
912.034729,329
912.150635,303
912.266602,317
912.382446,312
912.498352,326
912.614197,308
912.730103,317
912.846008,316
792.44574,380
792.56488,412
792.68396,455
792.80304,429
792.92218,388
793.041199,366
793.160339,378
793.279419,390
793.398499,379
793.517578,361
793.636658,359
793.755737,371
793.874817,379
793.993896,359
794.112976,366
794.232056,377
794.351074,363
794.470215,374
794.589233,351
794.708313,347
794.827393,361
794.946411,354
795.065552,361
795.18457,352
795.303589,366
795.422668,360
795.541687,352
795.660767,358
795.779846,345
795.898865,350
796.017883,357
796.136963,347
796.255981,368
796.375061,350
796.49408,363
796.613037,355
796.732117,348
796.851135,354
796.970154,330
797.089233,347
797.208191,346
797.327271,330
797.446228,349
797.565186,340
797.684265,337
797.803223,343
797.922241,329
798.04126,345
798.160278,332
798.279297,336
798.398315,352
798.517273,339
798.636292,335
798.75531,342
798.874268,324
798.993286,346
799.112244,332
799.231323,325
799.350281,341
799.469238,334
799.588257,336
799.707153,347
799.826111,342
799.945129,325
800.064087,348
800.183044,327
800.302063,325
800.421021,320
800.539978,333
800.658936,340
800.777893,333
800.896912,335
801.015747,341
801.134705,324
801.253723,344
801.37262,339
801.491638,345
801.610535,334
801.729492,345
801.84845,327
801.967407,334
802.086243,330
802.205261,338
802.324158,333
802.443115,337
802.562073,336
802.680969,339
802.799927,324
802.918762,329
803.037659,325
803.156677,324
803.275574,337
803.39447,319
803.513428,323
803.632263,338
803.751221,330
803.870117,336
803.989014,323
804.107971,325
804.226746,325
804.345642,344
804.4646,356
804.583496,322
804.702393,340
804.821228,322
804.940125,344
805.059021,330
805.177917,346
805.296814,318
805.415649,332
805.534546,325
805.653442,333
805.772278,328
805.891113,314
806.01001,330
806.128906,338
806.247742,325
806.366577,328
806.485413,332
806.604309,340
806.723145,325
806.84198,319
806.960876,330
807.079712,328
807.198486,331
807.317383,332
807.436218,321
807.554993,340
807.673889,319
807.792725,326
807.91156,312
808.030396,326
808.14917,328
808.268005,348
808.386841,317
808.505676,332
808.624451,325
808.743286,335
808.862122,328
808.980896,341
809.099731,320
809.218506,315
809.337341,338
809.456116,322
809.57489,340
809.693726,331
809.8125,340
809.931274,325
810.050049,317
810.168884,313
810.287659,317
810.406372,331
810.525269,331
810.643982,324
810.762756,336
810.881531,322
811.000305,340
811.11908,319
811.237854,332
811.356567,333
811.475403,332
811.594116,347
811.71283,341
811.831604,329
811.950378,329
812.069153,325
812.187927,338
812.30658,315
812.425415,325
812.544128,329
812.662781,325
812.781616,332
812.900269,335
813.019043,316
813.137756,332
813.256531,318
813.375244,331
813.493896,319
813.612671,321
813.731384,337
813.850037,321
813.96875,333
814.087524,322
814.206238,336
814.324951,330
814.443604,325
814.562256,334
814.68103,331
814.799683,325
814.918335,317
815.037109,333
815.155762,325
815.274475,332
815.393188,342
815.511841,329
815.630554,325
815.749146,321
815.867859,332
815.986572,333
816.105164,341
816.223877,321
816.342529,331
816.461182,330
816.579895,321
816.698486,331
816.817139,324
816.935791,336
817.054504,327
817.173096,316
817.291748,336
817.4104,319
817.529053,338
817.647644,331
817.766235,338
817.884949,338
818.00354,328
818.122192,332
818.240845,328
818.359436,327
818.478088,327
818.59668,326
818.715271,334
818.833923,316
818.952515,326
819.071106,333
819.189758,331
819.30835,317
819.426941,330
819.545532,317
819.664124,330
819.782715,332
819.901306,323
820.019897,330
820.138489,322
820.25708,328
820.375671,322
820.494202,322
820.612732,331
820.731384,321
820.849915,311
820.968506,331
821.087097,329
821.205627,326
821.324158,319
821.442749,331
821.561279,326
821.679871,328
821.798401,324
821.916931,321
822.035461,333
822.154053,318
822.272583,323
822.391174,310
822.509583,329
822.628174,317
822.746704,330
822.865234,331
822.983765,316
823.102295,321
823.220825,323
823.339294,334
823.457825,323
823.576355,330
823.694824,319
823.813354,335
823.931885,331
824.050354,321
824.168884,320
824.287354,320
824.405823,320
824.524353,323
824.642822,325
824.761353,329
824.879822,320
824.998291,316
825.116699,309
825.235291,327
825.353699,325
825.472168,326
825.590637,319
825.709106,332
825.827576,318
825.946045,327
826.064453,305
826.182983,322
826.301392,329
826.4198,324
826.53833,317
826.656738,326
826.775208,320
826.893677,319
827.012024,318
827.130493,327
827.248962,321
827.36731,324
827.485779,321
827.604248,312
827.722595,314
827.841064,318
827.959412,324
828.077942,321
828.196289,326
828.314636,327
828.433105,315
828.551514,332
828.669861,321
828.78833,320
828.906677,323
829.025085,339
829.143433,323
829.261841,320
829.38031,332
829.498657,323
829.617004,314
829.735413,323
829.85376,331
829.972107,315
830.090515,328
830.208862,307
830.327209,320
830.445557,322
830.563904,323
830.682312,315
830.800659,330
830.919006,322
831.037354,322
831.155701,324
831.274048,316
831.392395,328
831.51062,325
831.629028,320
831.747314,320
831.865662,319
831.984009,325
832.102356,313
832.220642,334
832.338928,322
832.457275,335
832.575623,328
832.693909,335
832.812134,306
832.930481,326
833.048828,322
833.167114,310
833.2854,320
833.403687,320
833.521973,316
833.640259,328
833.758545,309
833.876831,319
833.995056,323
834.113281,329
834.231628,329
834.349915,324
834.468201,330
834.586426,327
834.704651,321
834.822998,324
834.941162,317
835.059448,311
835.177673,308
835.295959,331
835.414246,319
835.53241,319
835.650635,322
835.768921,326
835.887146,326
836.005371,324
836.123596,321
836.241821,330
836.360046,320
836.478271,321
836.596497,319
836.714722,316
836.832886,319
836.95105,331
837.069336,328
837.1875,322
837.305725,328
837.423889,333
837.542053,328
837.660339,326
837.778503,313
837.896667,315
838.014832,309
838.132996,323
838.25116,333
838.369385,314
838.487488,321
838.605713,320
838.723877,324
838.84198,329
838.960205,320
839.078308,325
839.196472,327
839.314636,305
839.4328,333
839.550964,327
839.669067,320
839.787231,317
839.905396,340
840.023499,326
840.141602,323
840.259766,318
840.377869,325
840.495972,331
840.614136,325
840.732239,333
840.850342,321
840.968445,327
841.086548,324
841.204651,326
841.322754,332
841.440918,327
841.55896,327
841.677002,331
841.795166,318
841.913208,331
842.031311,324
842.149353,329
842.267456,314
842.385498,325
842.503601,325
842.621643,323
842.739746,319
842.857788,327
842.97583,321
843.093933,329
843.211975,326
843.330017,332
843.44812,317
843.566101,335
843.684204,330
843.802246,327
843.920227,308
844.038269,324
844.156311,316
844.274292,326
844.392395,323
844.510376,321
844.628357,327
844.74646,326
844.864441,321
844.982422,328
845.100403,314
845.218384,330
845.336426,326
845.454468,331
845.572449,326
845.69043,323
845.808411,320
845.926453,331
846.044373,314
846.162354,321
846.280396,338
846.398315,325
846.516296,322
846.634216,330
846.752197,323
846.870178,326
846.988098,325
847.106079,335
847.22406,329
847.34198,329
847.4599,339
847.577881,338
847.695801,315
847.813782,315
847.931641,320
848.049561,327
848.167603,326
848.285461,327
848.403381,327
848.521362,320
848.639221,319
848.75708,333
848.875,319
848.99292,325
849.110901,323
849.22876,324
849.34668,309
849.464539,330
849.582458,320
849.700317,315
849.818176,312
849.936096,319
850.053955,325
850.171875,326
850.289673,323
850.407593,333
850.525452,331
850.643311,332
850.761169,318
850.878967,324
850.996887,333
851.114746,326
851.232544,324
851.350403,330
851.468262,324
851.58606,324
851.703979,330
851.821777,331
851.939636,320
852.057434,322
852.175232,330
852.293091,322
852.410889,326
852.528687,316
852.646545,322
852.764343,333
852.88208,321
852.999939,336
853.117676,312
853.235535,317
853.353271,328
853.471069,321
853.588928,328
853.706604,326
853.824402,328
853.9422,321
854.059998,324
854.177734,326
854.295532,340
854.413269,328
854.531006,331
854.648804,323
854.766541,321
854.884277,329
855.002014,327
855.119751,319
855.237549,332
855.355225,336
855.473022,327
855.590698,315
855.708435,319
855.826172,317
855.943848,332
856.061646,332
856.179321,326
856.296997,324
856.414795,334
856.53241,327
856.650085,326
856.767822,328
856.885559,314
857.003174,337
857.120911,336
857.238586,329
857.356201,321
857.473938,322
857.591614,318
857.709351,317
857.826965,326
857.944641,337
858.062317,330
858.179993,325
858.297668,327
858.415283,330
858.532959,327
858.650574,330
858.768188,328
858.885803,340
859.003479,312
859.121094,323
859.23877,324
859.356384,326
859.473999,348
859.591675,331
859.709229,325
859.826843,319
859.944458,332
860.062012,325
860.179626,315
860.297302,320
860.414856,337
860.532471,325
860.650024,323
860.767639,318
860.885193,327
861.002808,315
861.120361,330
861.237976,331
861.35553,321
861.473022,322
861.590698,324
861.708191,324
861.825745,319
861.943298,327
862.060852,318
862.178406,323
862.295959,324
862.413513,341
862.531006,317
862.64856,323
862.766113,319
862.883667,321
863.00116,325
863.118713,328
863.236206,309
863.353699,326
863.471252,322
863.588745,324
863.706177,327
863.82373,320
863.941162,322
864.058716,327
864.176208,328
864.29364,322
864.411194,323
864.528687,322
864.646118,317
864.763611,328
864.881042,320
864.998535,306
865.116028,323
865.233459,316
865.350891,318
865.468384,321
865.585754,319
865.703308,329
865.820679,321
865.938171,318
866.055542,308
866.173035,316
866.290466,321
866.407837,320
866.52533,333
866.6427,318
866.760071,312
866.877563,321
866.994934,333
867.112305,320
867.229736,312
867.347107,325
867.464539,321
867.58197,316
867.699341,330
867.81665,335
867.934082,318
868.051453,314
868.168823,328
868.286194,333
868.403564,315
868.520935,322
868.638306,325
868.755676,313
868.872986,329
868.990295,325
869.107727,324
869.225037,315
869.342346,309
869.459717,340
869.577026,329
869.694336,315
869.811707,311
869.929016,327
870.046326,326
870.163635,322
870.280945,329
870.398254,331
870.515564,336
870.632812,334
870.750183,329
870.867432,330
870.984741,321
871.102051,314
871.219299,333
871.336609,327
871.453918,315
871.571106,310
871.688416,319
871.805664,329
871.922852,318
872.040222,324
872.157471,325
872.274719,336
872.391968,326
872.509155,323
872.626465,332
872.743652,339
872.860962,324
872.978149,334
873.095337,324
873.212646,321
873.329834,322
873.44696,325
873.564209,318
873.681396,323
873.798645,317
873.915894,322
874.03302,311
874.150208,335
874.267456,335
874.384583,326
874.501831,322
874.618958,331
874.736145,340
874.853333,332
874.970459,313
875.087646,343
875.204834,312
875.32196,333
875.439148,338
875.556274,325
875.673401,328
875.790527,337
875.907715,328
876.024841,337
876.141968,330
876.259094,335
876.376282,327
876.493347,326
876.610474,317
876.7276,324
876.844727,330
876.961853,327
877.078918,319
877.195984,334
877.313171,326
877.430237,330
877.547302,318
877.664368,316
877.781433,330
877.898499,318
878.015625,318
878.13269,314
878.249695,323
878.366821,322
878.483887,311
878.600952,319
878.717957,325
878.834961,333
878.952087,330
879.069092,315
879.186157,329
879.303162,316
879.420227,331
879.537231,321
879.654236,316
879.77124,321
879.888306,301
880.005249,330
880.122314,314
880.239319,333
880.356323,316
880.473328,324
880.590271,313
880.707275,321
880.824341,326
880.941284,323
881.058228,318
881.175232,322
881.292236,330
881.40918,319
881.526123,347
881.643066,320
881.760071,314
881.877014,332
881.993958,312
882.11084,323
882.227783,316
882.344727,318
882.46167,323
882.578613,322
882.695618,317
882.812439,321
882.929382,310
883.046326,320
883.163208,316
883.280151,332
883.397034,315
883.513916,326
883.630798,313
883.747742,307
883.864563,316
883.981506,328
884.098389,326
884.21521,321
884.332153,308
884.448975,327
884.565796,317
884.682678,323
884.7995,329
884.916443,314
885.033264,321
885.150085,336
885.266968,326
885.383789,339
885.500671,343
885.617493,353
885.734314,325
885.851196,347
885.967896,321
886.084717,329
886.201599,339
886.318359,326
886.435181,326
886.552002,338
886.668762,320
886.785645,326
886.902344,333
887.019165,329
887.135925,324
887.252747,334
887.369446,329
887.486267,326
887.603027,330
887.719788,326
887.836548,317
887.953247,323
888.070068,316
888.186829,323
888.303528,315
888.420288,314
888.536987,313
888.653687,327
888.770447,316
888.887146,311
889.003967,320
889.120667,327
889.237305,310
889.354065,336
889.470703,319
889.587463,318
889.704163,324
889.820862,321
889.937561,317
890.054199,317
890.170837,322
890.287598,318
890.404236,308
890.520874,311
890.637634,319
890.754211,304
890.87085,316
890.987549,328
891.104187,328
891.220886,334
891.337463,320
891.454102,316
891.57074,329
891.687378,325
891.804077,317
891.920654,318
892.037231,321
892.15387,327
892.270447,328
892.387085,327
892.503723,317
892.6203,312
892.736877,305
892.853516,313
892.970032,319
893.08667,318
893.203186,315
893.319763,325
893.43634,313
893.552917,324
893.669556,317
893.786011,321
893.902588,322
894.019165,339
894.135681,311
894.252197,335
894.368835,334
894.485291,326
894.601868,319
894.718384,331
894.8349,323
894.951355,321
895.067932,317
895.184448,326
895.300964,328
895.417419,331
895.533936,323
895.650452,315
895.766907,328
895.883423,319
895.999878,316
896.116333,309
896.232849,310
896.349304,323
896.465759,318
896.582214,316
896.698669,322
896.815125,326
896.931641,323
897.048035,325
897.164551,310
897.280884,322
897.397339,320
897.513794,322
897.630249,323
897.746582,327
897.863098,320
897.979431,330
898.095886,329
898.212341,307
898.328674,305
898.445129,332
898.561462,320
898.677795,327
898.794312,310
898.910645,310
899.026978,314
899.143433,318
899.259766,313
899.37616,314
899.492493,319
899.608765,320
899.725159,310
899.841553,315
899.957947,312
900.07428,312
900.190552,321
900.306946,317
900.423157,328
900.53949,320
900.655884,330
900.772156,327
900.888489,327
901.004822,333
901.121033,323
901.237366,320
901.353699,304
901.46991,312
901.586304,333
901.702515,337
901.818787,309
901.93512,325
902.051331,321
902.167603,332
902.283875,340
902.400085,318
902.516418,318
902.632629,324
902.74884,318
902.865112,329
902.981384,328
903.097595,337
903.213867,320
903.330017,319
903.446289,324
903.5625,326
903.67865,317
903.794922,323
903.911072,310
904.027344,314
904.143494,329
904.259705,320
904.375916,318
904.492065,327
904.608215,324
904.724426,324
904.840576,308
904.956726,334
905.072876,316
905.189087,319
905.305176,308
905.421387,341
905.537537,332
905.653687,319
905.769775,324
905.885925,314
906.002014,323
906.118164,315
906.234314,312
906.350403,344
906.466492,307
906.582642,320
906.69873,309
906.814758,329
906.930908,321
907.046936,320
907.163086,314
907.279175,322
907.395264,319
907.511353,316
907.62738,314
907.743408,326
907.859497,322
907.975525,331
908.091553,314
908.207703,317
908.32373,332
908.439758,305
908.555786,320
908.671814,325
908.787842,315
908.90387,314
909.019775,304
909.135864,323
909.251892,305
909.367859,320
909.483826,313
909.599854,313
909.715881,318
909.831848,325
909.947815,324
910.063782,325
910.179749,306
910.295776,314
910.411743,321
910.527649,314
910.643616,315
910.759583,315
910.875488,313
910.991455,316
911.107361,318
911.223267,322
911.339294,325
911.4552,318
911.571106,323
911.687073,332
911.802979,325
911.918823,319
912.034729,311
912.150635,323
912.266602,308
912.382446,310
912.498352,316
912.614197,317
912.730103,320
912.846008,321
