792.44574,298
792.56488,359
792.68396,392
792.80304,396
792.92218,338
793.041199,317
793.160339,315
793.279419,338
793.398499,340
793.517578,319
793.636658,325
793.755737,332
793.874817,347
793.993896,340
794.112976,331
794.232056,325
794.351074,337
794.470215,323
794.589233,335
794.708313,324
794.827393,325
794.946411,323
795.065552,340
795.18457,340
795.303589,331
795.422668,310
795.541687,346
795.660767,340
795.779846,330
795.898865,330
796.017883,335
796.136963,322
796.255981,352
796.375061,329
796.49408,338
796.613037,328
796.732117,342
796.851135,338
796.970154,325
797.089233,330
797.208191,313
797.327271,326
797.446228,337
797.565186,323
797.684265,336
797.803223,317
797.922241,341
798.04126,334
798.160278,319
798.279297,344
798.398315,320
798.517273,320
798.636292,345
798.75531,322
798.874268,317
798.993286,333
799.112244,324
799.231323,337
799.350281,325
799.469238,340
799.588257,324
799.707153,321
799.826111,336
799.945129,320
800.064087,340
800.183044,334
800.302063,336
800.421021,332
800.539978,339
800.658936,319
800.777893,343
800.896912,318
801.015747,336
801.134705,328
801.253723,327
801.37262,324
801.491638,335
801.610535,336
801.729492,334
801.84845,324
801.967407,322
802.086243,337
802.205261,335
802.324158,318
802.443115,330
802.562073,325
802.680969,329
802.799927,323
802.918762,336
803.037659,319
803.156677,338
803.275574,345
803.39447,319
803.513428,335
803.632263,322
803.751221,319
803.870117,333
803.989014,335
804.107971,327
804.226746,336
804.345642,329
804.4646,325
804.583496,332
804.702393,335
804.821228,328
804.940125,342
805.059021,325
805.177917,339
805.296814,331
805.415649,329
805.534546,326
805.653442,340
805.772278,338
805.891113,337
806.01001,331
806.128906,338
806.247742,333
806.366577,328
806.485413,320
806.604309,342
806.723145,340
806.84198,336
806.960876,333
807.079712,333
807.198486,343
807.317383,340
807.436218,327
807.554993,332
807.673889,330
807.792725,319
807.91156,339
808.030396,330
808.14917,331
808.268005,337
808.386841,335
808.505676,327
808.624451,321
808.743286,334
808.862122,318
808.980896,333
809.099731,332
809.218506,339
809.337341,340
809.456116,324
809.57489,332
809.693726,327
809.8125,339
809.931274,336
810.050049,341
810.168884,317
810.287659,324
810.406372,339
810.525269,346
810.643982,331
810.762756,344
810.881531,338
811.000305,338
811.11908,336
811.237854,339
811.356567,339
811.475403,342
811.594116,343
811.71283,332
811.831604,344
811.950378,330
812.069153,328
812.187927,339
812.30658,345
812.425415,338
812.544128,332
812.662781,330
812.781616,337
812.900269,333
813.019043,321
813.137756,335
813.256531,322
813.375244,324
813.493896,339
813.612671,342
813.731384,336
813.850037,341
813.96875,329
814.087524,341
814.206238,338
814.324951,342
814.443604,334
814.562256,344
814.68103,332
814.799683,341
814.918335,341
815.037109,330
815.155762,344
815.274475,328
815.393188,330
815.511841,327
815.630554,331
815.749146,325
815.867859,326
815.986572,330
816.105164,313
816.223877,351
816.342529,337
816.461182,336
816.579895,328
816.698486,330
816.817139,325
816.935791,336
817.054504,343
817.173096,317
817.291748,334
817.4104,334
817.529053,319
817.647644,346
817.766235,335
817.884949,333
818.00354,330
818.122192,321
818.240845,326
818.359436,324
818.478088,329
818.59668,314
818.715271,339
818.833923,322
818.952515,318
819.071106,317
819.189758,333
819.30835,318
819.426941,320
819.545532,321
819.664124,321
819.782715,326
819.901306,333
820.019897,311
820.138489,322
820.25708,324
820.375671,307
820.494202,314
820.612732,314
820.731384,315
820.849915,319
820.968506,319
821.087097,307
821.205627,315
821.324158,315
821.442749,317
821.561279,322
821.679871,324
821.798401,320
821.916931,323
822.035461,310
822.154053,322
822.272583,326
822.391174,329
822.509583,309
822.628174,312
822.746704,324
822.865234,329
822.983765,325
823.102295,314
823.220825,327
823.339294,327
823.457825,317
823.576355,334
823.694824,311
823.813354,323
823.931885,315
824.050354,315
824.168884,318
824.287354,320
824.405823,324
824.524353,302
824.642822,318
824.761353,327
824.879822,325
824.998291,312
825.116699,333
825.235291,318
825.353699,339
825.472168,308
825.590637,330
825.709106,317
825.827576,307
825.946045,323
826.064453,319
826.182983,314
826.301392,317
826.4198,319
826.53833,313
826.656738,322
826.775208,317
826.893677,319
827.012024,326
827.130493,317
827.248962,325
827.36731,307
827.485779,314
827.604248,306
827.722595,314
827.841064,313
827.959412,319
828.077942,308
828.196289,328
828.314636,310
828.433105,315
828.551514,331
828.669861,310
828.78833,315
828.906677,316
829.025085,319
829.143433,311
829.261841,315
829.38031,321
829.498657,307
829.617004,323
829.735413,314
829.85376,319
829.972107,322
830.090515,328
830.208862,309
830.327209,312
830.445557,320
830.563904,303
830.682312,321
830.800659,308
830.919006,314
831.037354,304
831.155701,318
831.274048,315
831.392395,319
831.51062,311
831.629028,330
831.747314,318
831.865662,319
831.984009,321
832.102356,324
832.220642,322
832.338928,311
832.457275,327
832.575623,329
832.693909,324
832.812134,323
832.930481,318
833.048828,313
833.167114,305
833.2854,310
833.403687,322
833.521973,317
833.640259,322
833.758545,302
833.876831,320
833.995056,319
834.113281,316
834.231628,320
834.349915,322
834.468201,317
834.586426,309
834.704651,312
834.822998,321
834.941162,304
835.059448,318
835.177673,324
835.295959,322
835.414246,316
835.53241,309
835.650635,313
835.768921,311
835.887146,315
836.005371,333
836.123596,322
836.241821,324
836.360046,306
836.478271,319
836.596497,320
836.714722,318
836.832886,303
836.95105,320
837.069336,316
837.1875,321
837.305725,317
837.423889,309
837.542053,314
837.660339,313
837.778503,326
837.896667,316
838.014832,310
838.132996,308
838.25116,305
838.369385,312
838.487488,332
838.605713,313
838.723877,320
838.84198,316
838.960205,325
839.078308,325
839.196472,319
839.314636,320
839.4328,320
839.550964,320
839.669067,308
839.787231,321
839.905396,314
840.023499,317
840.141602,313
840.259766,331
840.377869,309
840.495972,318
840.614136,318
840.732239,330
840.850342,306
840.968445,312
841.086548,333
841.204651,317
841.322754,319
841.440918,315
841.55896,317
841.677002,320
841.795166,330
841.913208,314
842.031311,301
842.149353,310
842.267456,307
842.385498,322
842.503601,329
842.621643,315
842.739746,309
842.857788,332
842.97583,326
843.093933,324
843.211975,300
843.330017,324
843.44812,314
843.566101,311
843.684204,308
843.802246,310
843.920227,312
844.038269,311
844.156311,314
844.274292,298
844.392395,338
844.510376,317
844.628357,316
844.74646,310
844.864441,312
844.982422,335
845.100403,304
845.218384,312
845.336426,307
845.454468,310
845.572449,315
845.69043,314
845.808411,310
845.926453,314
846.044373,322
846.162354,317
846.280396,319
846.398315,310
846.516296,317
846.634216,333
846.752197,311
846.870178,306
846.988098,321
847.106079,329
847.22406,319
847.34198,325
847.4599,299
847.577881,310
847.695801,310
847.813782,321
847.931641,304
848.049561,322
848.167603,316
848.285461,313
848.403381,326
848.521362,309
848.639221,307
848.75708,304
848.875,311
848.99292,312
849.110901,305
849.22876,318
849.34668,313
849.464539,312
849.582458,320
849.700317,325
849.818176,311
849.936096,304
850.053955,309
850.171875,329
850.289673,299
850.407593,313
850.525452,313
850.643311,315
850.761169,322
850.878967,322
850.996887,314
851.114746,306
851.232544,314
851.350403,328
851.468262,305
851.58606,318
851.703979,316
851.821777,321
851.939636,311
852.057434,319
852.175232,314
852.293091,304
852.410889,315
852.528687,304
852.646545,324
852.764343,303
852.88208,300
852.999939,318
853.117676,316
853.235535,317
853.353271,317
853.471069,310
853.588928,312
853.706604,315
853.824402,315
853.9422,313
854.059998,311
854.177734,323
854.295532,321
854.413269,309
854.531006,316
854.648804,319
854.766541,318
854.884277,324
855.002014,301
855.119751,325
855.237549,315
855.355225,329
855.473022,312
855.590698,318
855.708435,312
855.826172,325
855.943848,309
856.061646,321
856.179321,320
856.296997,315
856.414795,322
856.53241,309
856.650085,328
856.767822,308
856.885559,295
857.003174,320
857.120911,325
857.238586,318
857.356201,328
857.473938,309
857.591614,313
857.709351,322
857.826965,317
857.944641,315
858.062317,320
858.179993,326
858.297668,308
858.415283,323
858.532959,319
858.650574,326
858.768188,315
858.885803,313
859.003479,325
859.121094,313
859.23877,300
859.356384,331
859.473999,313
859.591675,317
859.709229,317
859.826843,321
859.944458,320
860.062012,305
860.179626,320
860.297302,311
860.414856,298
860.532471,319
860.650024,318
860.767639,318
860.885193,305
861.002808,328
861.120361,317
861.237976,315
861.35553,321
861.473022,314
861.590698,310
861.708191,319
861.825745,310
861.943298,320
862.060852,316
862.178406,328
862.295959,304
862.413513,314
862.531006,312
862.64856,318
862.766113,310
862.883667,301
863.00116,314
863.118713,329
863.236206,304
863.353699,325
863.471252,312
863.588745,320
863.706177,323
863.82373,315
863.941162,309
864.058716,315
864.176208,314
864.29364,311
864.411194,326
864.528687,311
864.646118,312
864.763611,320
864.881042,319
864.998535,316
865.116028,308
865.233459,314
865.350891,309
865.468384,334
865.585754,312
865.703308,308
865.820679,312
865.938171,307
866.055542,312
866.173035,308
866.290466,315
866.407837,324
866.52533,306
866.6427,320
866.760071,308
866.877563,313
866.994934,318
867.112305,309
867.229736,328
867.347107,312
867.464539,312
867.58197,303
867.699341,308
867.81665,321
867.934082,315
868.051453,308
868.168823,331
868.286194,322
868.403564,313
868.520935,327
868.638306,314
868.755676,314
868.872986,311
868.990295,318
869.107727,299
869.225037,327
869.342346,314
869.459717,324
869.577026,331
869.694336,319
869.811707,302
869.929016,315
870.046326,321
870.163635,307
870.280945,320
870.398254,313
870.515564,308
870.632812,321
870.750183,317
870.867432,317
870.984741,318
871.102051,322
871.219299,315
871.336609,327
871.453918,306
871.571106,306
871.688416,312
871.805664,324
871.922852,326
872.040222,323
872.157471,317
872.274719,313
872.391968,306
872.509155,323
872.626465,315
872.743652,300
872.860962,309
872.978149,322
873.095337,322
873.212646,322
873.329834,313
873.44696,305
873.564209,318
873.681396,316
873.798645,303
873.915894,326
874.03302,316
874.150208,303
874.267456,327
874.384583,310
874.501831,305
874.618958,317
874.736145,307
874.853333,316
874.970459,314
875.087646,315
875.204834,324
875.32196,317
875.439148,317
875.556274,318
875.673401,313
875.790527,323
875.907715,308
876.024841,316
876.141968,315
876.259094,321
876.376282,299
876.493347,311
876.610474,335
876.7276,315
876.844727,315
876.961853,317
877.078918,313
877.195984,327
877.313171,312
877.430237,309
877.547302,320
877.664368,311
877.781433,325
877.898499,322
878.015625,306
878.13269,307
878.249695,311
878.366821,338
878.483887,309
878.600952,304
878.717957,314
878.834961,322
878.952087,310
879.069092,319
879.186157,309
879.303162,323
879.420227,286
879.537231,318
879.654236,327
879.77124,305
879.888306,324
880.005249,328
880.122314,322
880.239319,303
880.356323,314
880.473328,310
880.590271,320
880.707275,315
880.824341,319
880.941284,328
881.058228,309
881.175232,314
881.292236,323
881.40918,319
881.526123,312
881.643066,308
881.760071,308
881.877014,323
881.993958,314
882.11084,313
882.227783,325
882.344727,320
882.46167,319
882.578613,309
882.695618,295
882.812439,327
882.929382,306
883.046326,318
883.163208,318
883.280151,328
883.397034,316
883.513916,316
883.630798,307
883.747742,319
883.864563,306
883.981506,304
884.098389,302
884.21521,328
884.332153,314
884.448975,304
884.565796,312
884.682678,320
884.7995,309
884.916443,312
885.033264,325
885.150085,313
885.266968,320
885.383789,309
885.500671,316
885.617493,314
885.734314,322
885.851196,316
885.967896,317
886.084717,323
886.201599,316
886.318359,308
886.435181,314
886.552002,323
886.668762,323
886.785645,319
886.902344,306
887.019165,309
887.135925,315
887.252747,321
887.369446,314
887.486267,311
887.603027,323
887.719788,323
887.836548,321
887.953247,336
888.070068,306
888.186829,309
888.303528,308
888.420288,317
888.536987,308
888.653687,318
888.770447,314
888.887146,294
889.003967,307
889.120667,313
889.237305,325
889.354065,325
889.470703,309
889.587463,315
889.704163,317
889.820862,314
889.937561,306
890.054199,318
890.170837,322
890.287598,325
890.404236,318
890.520874,310
890.637634,313
890.754211,315
890.87085,318
890.987549,327
891.104187,312
891.220886,331
891.337463,311
891.454102,313
891.57074,326
891.687378,324
891.804077,305
891.920654,328
892.037231,315
892.15387,313
892.270447,308
892.387085,324
892.503723,318
892.6203,322
892.736877,317
892.853516,324
892.970032,317
893.08667,312
893.203186,314
893.319763,333
893.43634,320
893.552917,330
893.669556,321
893.786011,320
893.902588,307
894.019165,315
894.135681,333
894.252197,315
894.368835,320
894.485291,312
894.601868,316
894.718384,329
894.8349,317
894.951355,318
895.067932,306
895.184448,323
895.300964,321
895.417419,329
895.533936,318
895.650452,318
895.766907,303
895.883423,326
895.999878,306
896.116333,314
896.232849,312
896.349304,320
896.465759,315
896.582214,326
896.698669,326
896.815125,316
896.931641,312
897.048035,322
897.164551,309
897.280884,315
897.397339,311
897.513794,321
897.630249,318
897.746582,324
897.863098,298
897.979431,311
898.095886,317
898.212341,338
898.328674,317
898.445129,315
898.561462,323
898.677795,316
898.794312,306
898.910645,316
899.026978,309
899.143433,300
899.259766,301
899.37616,318
899.492493,331
899.608765,326
899.725159,322
899.841553,322
899.957947,320
900.07428,325
900.190552,317
900.306946,321
900.423157,330
900.53949,323
900.655884,319
900.772156,310
900.888489,312
901.004822,316
901.121033,317
901.237366,329
901.353699,308
901.46991,333
901.586304,306
901.702515,321
901.818787,315
901.93512,320
902.051331,316
902.167603,319
902.283875,313
902.400085,320
902.516418,325
902.632629,313
902.74884,312
902.865112,326
902.981384,333
903.097595,315
903.213867,329
903.330017,322
903.446289,317
903.5625,331
903.67865,311
903.794922,313
903.911072,307
904.027344,324
904.143494,315
904.259705,314
904.375916,315
904.492065,318
904.608215,323
904.724426,322
904.840576,305
904.956726,307
905.072876,307
905.189087,323
905.305176,323
905.421387,314
905.537537,312
905.653687,317
905.769775,312
905.885925,325
906.002014,321
906.118164,327
906.234314,312
906.350403,325
906.466492,327
906.582642,321
906.69873,322
906.814758,330
906.930908,320
907.046936,314
907.163086,311
907.279175,306
907.395264,309
907.511353,323
907.62738,319
907.743408,314
907.859497,314
907.975525,317
908.091553,322
908.207703,321
908.32373,319
908.439758,309
908.555786,322
908.671814,316
908.787842,312
908.90387,311
909.019775,317
909.135864,329
909.251892,313
909.367859,320
909.483826,321
909.599854,327
909.715881,310
909.831848,321
909.947815,325
910.063782,305
910.179749,306
910.295776,309
910.411743,306
910.527649,317
910.643616,319
910.759583,318
910.875488,319
910.991455,324
911.107361,316
911.223267,323
911.339294,312
911.4552,316
911.571106,317
911.687073,325
911.802979,314
911.918823,316
912.034729,311
912.150635,327
912.266602,315
912.382446,308
912.498352,313
912.614197,320
912.730103,311
912.846008,304
792.44574,320
792.56488,348
792.68396,393
792.80304,380
792.92218,335
793.041199,300
793.160339,340
793.279419,349
793.398499,328
793.517578,314
793.636658,326
793.755737,339
793.874817,346
793.993896,350
794.112976,335
794.232056,331
794.351074,332
794.470215,329
794.589233,331
794.708313,329
794.827393,334
794.946411,314
795.065552,334
795.18457,323
795.303589,323
795.422668,328
795.541687,333
795.660767,326
795.779846,336
795.898865,334
796.017883,343
796.136963,338
796.255981,342
796.375061,332
796.49408,313
796.613037,324
796.732117,326
796.851135,332
796.970154,329
797.089233,333
797.208191,330
797.327271,319
797.446228,328
797.565186,322
797.684265,335
797.803223,319
797.922241,327
798.04126,332
798.160278,344
798.279297,328
798.398315,334
798.517273,331
798.636292,350
798.75531,327
798.874268,327
798.993286,332
799.112244,335
799.231323,330
799.350281,319
799.469238,334
799.588257,335
799.707153,325
799.826111,323
799.945129,325
800.064087,337
800.183044,332
800.302063,336
800.421021,329
800.539978,335
800.658936,334
800.777893,339
800.896912,316
801.015747,341
801.134705,320
801.253723,326
801.37262,317
801.491638,316
801.610535,327
801.729492,335
801.84845,331
801.967407,328
802.086243,330
802.205261,325
802.324158,336
802.443115,334
802.562073,334
802.680969,329
802.799927,330
802.918762,317
803.037659,334
803.156677,323
803.275574,325
803.39447,350
803.513428,323
803.632263,330
803.751221,326
803.870117,326
803.989014,330
804.107971,341
804.226746,329
804.345642,325
804.4646,337
804.583496,347
804.702393,326
804.821228,335
804.940125,332
805.059021,337
805.177917,333
805.296814,326
805.415649,322
805.534546,343
805.653442,326
805.772278,351
805.891113,337
806.01001,334
806.128906,349
806.247742,339
806.366577,328
806.485413,341
806.604309,328
806.723145,326
806.84198,340
806.960876,342
807.079712,334
807.198486,316
807.317383,342
807.436218,327
807.554993,332
807.673889,328
807.792725,323
807.91156,342
808.030396,318
808.14917,329
808.268005,327
808.386841,322
808.505676,327
808.624451,342
808.743286,343
808.862122,326
808.980896,329
809.099731,327
809.218506,326
809.337341,332
809.456116,340
809.57489,333
809.693726,329
809.8125,320
809.931274,327
810.050049,315
810.168884,331
810.287659,340
810.406372,336
810.525269,333
810.643982,330
810.762756,334
810.881531,322
811.000305,326
811.11908,337
811.237854,335
811.356567,345
811.475403,338
811.594116,340
811.71283,336
811.831604,326
811.950378,318
812.069153,321
812.187927,331
812.30658,339
812.425415,337
812.544128,336
812.662781,337
812.781616,341
812.900269,328
813.019043,334
813.137756,330
813.256531,326
813.375244,331
813.493896,344
813.612671,336
813.731384,338
813.850037,332
813.96875,339
814.087524,334
814.206238,329
814.324951,340
814.443604,334
814.562256,342
814.68103,329
814.799683,334
814.918335,337
815.037109,341
815.155762,337
815.274475,339
815.393188,328
815.511841,322
815.630554,334
815.749146,342
815.867859,329
815.986572,328
816.105164,349
816.223877,326
816.342529,322
816.461182,340
816.579895,318
816.698486,333
816.817139,338
816.935791,337
817.054504,340
817.173096,315
817.291748,336
817.4104,321
817.529053,345
817.647644,329
817.766235,335
817.884949,334
818.00354,323
818.122192,310
818.240845,313
818.359436,322
818.478088,327
818.59668,326
818.715271,332
818.833923,326
818.952515,316
819.071106,330
819.189758,313
819.30835,327
819.426941,323
819.545532,321
819.664124,318
819.782715,318
819.901306,341
820.019897,317
820.138489,301
820.25708,329
820.375671,316
820.494202,320
820.612732,330
820.731384,316
820.849915,328
820.968506,312
821.087097,319
821.205627,320
821.324158,321
821.442749,328
821.561279,308
821.679871,317
821.798401,335
821.916931,333
822.035461,318
822.154053,325
822.272583,314
822.391174,324
822.509583,307
822.628174,324
822.746704,318
822.865234,327
822.983765,333
823.102295,320
823.220825,317
823.339294,318
823.457825,314
823.576355,311
823.694824,331
823.813354,334
823.931885,324
824.050354,328
824.168884,317
824.287354,315
824.405823,320
824.524353,318
824.642822,324
824.761353,329
824.879822,314
824.998291,330
825.116699,331
825.235291,329
825.353699,317
825.472168,319
825.590637,313
825.709106,306
825.827576,320
825.946045,319
826.064453,333
826.182983,319
826.301392,315
826.4198,317
826.53833,312
826.656738,311
826.775208,321
826.893677,314
827.012024,311
827.130493,325
827.248962,329
827.36731,316
827.485779,320
827.604248,323
827.722595,326
827.841064,318
827.959412,313
828.077942,308
828.196289,326
828.314636,316
828.433105,315
828.551514,325
828.669861,318
828.78833,330
828.906677,308
829.025085,312
829.143433,317
829.261841,324
829.38031,330
829.498657,327
829.617004,315
829.735413,321
829.85376,307
829.972107,321
830.090515,312
830.208862,321
830.327209,307
830.445557,317
830.563904,315
830.682312,314
830.800659,314
830.919006,321
831.037354,317
831.155701,325
831.274048,309
831.392395,310
831.51062,315
831.629028,324
831.747314,323
831.865662,327
831.984009,311
832.102356,311
832.220642,311
832.338928,317
832.457275,325
832.575623,318
832.693909,319
832.812134,316
832.930481,319
833.048828,312
833.167114,303
833.2854,314
833.403687,307
833.521973,313
833.640259,316
833.758545,320
833.876831,314
833.995056,318
834.113281,326
834.231628,319
834.349915,321
834.468201,326
834.586426,308
834.704651,315
834.822998,318
834.941162,292
835.059448,310
835.177673,308
835.295959,322
835.414246,318
835.53241,323
835.650635,310
835.768921,319
835.887146,321
836.005371,312
836.123596,322
836.241821,326
836.360046,313
836.478271,310
836.596497,313
836.714722,325
836.832886,318
836.95105,317
837.069336,314
837.1875,315
837.305725,322
837.423889,311
837.542053,314
837.660339,318
837.778503,305
837.896667,331
838.014832,314
838.132996,312
838.25116,314
838.369385,317
838.487488,321
838.605713,304
838.723877,331
838.84198,319
838.960205,302
839.078308,319
839.196472,318
839.314636,333
839.4328,328
839.550964,314
839.669067,311
839.787231,317
839.905396,312
840.023499,316
840.141602,318
840.259766,308
840.377869,305
840.495972,325
840.614136,316
840.732239,312
840.850342,317
840.968445,312
841.086548,307
841.204651,330
841.322754,323
841.440918,327
841.55896,310
841.677002,323
841.795166,323
841.913208,326
842.031311,318
842.149353,326
842.267456,314
842.385498,321
842.503601,327
842.621643,314
842.739746,321
842.857788,320
842.97583,322
843.093933,314
843.211975,309
843.330017,327
843.44812,308
843.566101,316
843.684204,320
843.802246,314
843.920227,309
844.038269,312
844.156311,320
844.274292,311
844.392395,308
844.510376,312
844.628357,312
844.74646,312
844.864441,298
844.982422,316
845.100403,321
845.218384,312
845.336426,309
845.454468,320
845.572449,307
845.69043,307
845.808411,323
845.926453,318
846.044373,314
846.162354,318
846.280396,311
846.398315,308
846.516296,319
846.634216,314
846.752197,306
846.870178,319
846.988098,310
847.106079,309
847.22406,306
847.34198,318
847.4599,328
847.577881,314
847.695801,325
847.813782,326
847.931641,309
848.049561,318
848.167603,305
848.285461,316
848.403381,323
848.521362,313
848.639221,299
848.75708,309
848.875,313
848.99292,315
849.110901,319
849.22876,317
849.34668,323
849.464539,323
849.582458,318
849.700317,313
849.818176,314
849.936096,335
850.053955,322
850.171875,314
850.289673,320
850.407593,314
850.525452,322
850.643311,330
850.761169,312
850.878967,309
850.996887,323
851.114746,309
851.232544,316
851.350403,318
851.468262,315
851.58606,319
851.703979,317
851.821777,314
851.939636,312
852.057434,329
852.175232,311
852.293091,313
852.410889,312
852.528687,314
852.646545,329
852.764343,299
852.88208,316
852.999939,311
853.117676,320
853.235535,320
853.353271,322
853.471069,318
853.588928,308
853.706604,320
853.824402,315
853.9422,326
854.059998,314
854.177734,322
854.295532,324
854.413269,332
854.531006,309
854.648804,314
854.766541,312
854.884277,315
855.002014,309
855.119751,316
855.237549,323
855.355225,330
855.473022,320
855.590698,314
855.708435,313
855.826172,321
855.943848,316
856.061646,306
856.179321,304
856.296997,314
856.414795,310
856.53241,320
856.650085,300
856.767822,300
856.885559,315
857.003174,306
857.120911,311
857.238586,316
857.356201,315
857.473938,312
857.591614,308
857.709351,310
857.826965,322
857.944641,321
858.062317,314
858.179993,320
858.297668,309
858.415283,323
858.532959,318
858.650574,329
858.768188,305
858.885803,324
859.003479,317
859.121094,329
859.23877,318
859.356384,313
859.473999,328
859.591675,325
859.709229,317
859.826843,297
859.944458,322
860.062012,320
860.179626,315
860.297302,308
860.414856,323
860.532471,311
860.650024,320
860.767639,325
860.885193,307
861.002808,322
861.120361,316
861.237976,315
861.35553,335
861.473022,308
861.590698,305
861.708191,318
861.825745,319
861.943298,326
862.060852,297
862.178406,320
862.295959,313
862.413513,312
862.531006,317
862.64856,309
862.766113,327
862.883667,331
863.00116,313
863.118713,313
863.236206,311
863.353699,311
863.471252,315
863.588745,320
863.706177,325
863.82373,333
863.941162,307
864.058716,321
864.176208,300
864.29364,316
864.411194,312
864.528687,317
864.646118,312
864.763611,327
864.881042,320
864.998535,320
865.116028,324
865.233459,322
865.350891,310
865.468384,317
865.585754,324
865.703308,322
865.820679,314
865.938171,326
866.055542,320
866.173035,320
866.290466,319
866.407837,287
866.52533,326
866.6427,325
866.760071,308
866.877563,308
866.994934,301
867.112305,320
867.229736,306
867.347107,318
867.464539,318
867.58197,314
867.699341,324
867.81665,312
867.934082,319
868.051453,326
868.168823,304
868.286194,322
868.403564,321
868.520935,318
868.638306,309
868.755676,317
868.872986,310
868.990295,319
869.107727,313
869.225037,313
869.342346,324
869.459717,319
869.577026,307
869.694336,319
869.811707,320
869.929016,311
870.046326,324
870.163635,305
870.280945,308
870.398254,307
870.515564,319
870.632812,319
870.750183,309
870.867432,320
870.984741,310
871.102051,328
871.219299,318
871.336609,318
871.453918,314
871.571106,299
871.688416,316
871.805664,315
871.922852,314
872.040222,295
872.157471,318
872.274719,306
872.391968,311
872.509155,311
872.626465,311
872.743652,329
872.860962,311
872.978149,327
873.095337,316
873.212646,327
873.329834,318
873.44696,340
873.564209,320
873.681396,321
873.798645,324
873.915894,326
874.03302,308
874.150208,324
874.267456,302
874.384583,326
874.501831,308
874.618958,319
874.736145,313
874.853333,318
874.970459,313
875.087646,320
875.204834,309
875.32196,317
875.439148,318
875.556274,314
875.673401,314
875.790527,308
875.907715,317
876.024841,313
876.141968,309
876.259094,312
876.376282,315
876.493347,303
876.610474,309
876.7276,319
876.844727,308
876.961853,316
877.078918,318
877.195984,316
877.313171,317
877.430237,314
877.547302,311
877.664368,325
877.781433,312
877.898499,309
878.015625,308
878.13269,320
878.249695,306
878.366821,321
878.483887,315
878.600952,314
878.717957,311
878.834961,324
878.952087,316
879.069092,312
879.186157,317
879.303162,316
879.420227,323
879.537231,309
879.654236,310
879.77124,315
879.888306,313
880.005249,321
880.122314,309
880.239319,322
880.356323,323
880.473328,314
880.590271,321
880.707275,322
880.824341,312
880.941284,314
881.058228,316
881.175232,328
881.292236,325
881.40918,318
881.526123,306
881.643066,313
881.760071,310
881.877014,315
881.993958,315
882.11084,311
882.227783,311
882.344727,317
882.46167,311
882.578613,318
882.695618,306
882.812439,311
882.929382,315
883.046326,321
883.163208,330
883.280151,305
883.397034,310
883.513916,315
883.630798,322
883.747742,304
883.864563,305
883.981506,333
884.098389,311
884.21521,318
884.332153,315
884.448975,326
884.565796,323
884.682678,329
884.7995,315
884.916443,317
885.033264,316
885.150085,321
885.266968,301
885.383789,314
885.500671,316
885.617493,316
885.734314,312
885.851196,323
885.967896,299
886.084717,324
886.201599,312
886.318359,307
886.435181,306
886.552002,337
886.668762,302
886.785645,319
886.902344,318
887.019165,311
887.135925,308
887.252747,312
887.369446,322
887.486267,311
887.603027,303
887.719788,322
887.836548,301
887.953247,326
888.070068,324
888.186829,329
888.303528,321
888.420288,319
888.536987,322
888.653687,319
888.770447,308
888.887146,308
889.003967,303
889.120667,323
889.237305,315
889.354065,328
889.470703,305
889.587463,313
889.704163,296
889.820862,313
889.937561,324
890.054199,317
890.170837,318
890.287598,314
890.404236,324
890.520874,313
890.637634,321
890.754211,314
890.87085,327
890.987549,327
891.104187,317
891.220886,327
891.337463,311
891.454102,328
891.57074,325
891.687378,341
891.804077,313
891.920654,327
892.037231,317
892.15387,324
892.270447,312
892.387085,317
892.503723,312
892.6203,319
892.736877,309
892.853516,316
892.970032,314
893.08667,319
893.203186,312
893.319763,303
893.43634,318
893.552917,321
893.669556,325
893.786011,322
893.902588,307
894.019165,317
894.135681,313
894.252197,315
894.368835,328
894.485291,308
894.601868,311
894.718384,321
894.8349,314
894.951355,314
895.067932,334
895.184448,323
895.300964,308
895.417419,324
895.533936,292
895.650452,298
895.766907,315
895.883423,326
895.999878,303
896.116333,326
896.232849,312
896.349304,318
896.465759,319
896.582214,318
896.698669,317
896.815125,323
896.931641,318
897.048035,324
897.164551,305
897.280884,326
897.397339,306
897.513794,325
897.630249,311
897.746582,321
897.863098,313
897.979431,316
898.095886,328
898.212341,326
898.328674,318
898.445129,327
898.561462,314
898.677795,323
898.794312,318
898.910645,315
899.026978,327
899.143433,315
899.259766,318
899.37616,328
899.492493,316
899.608765,324
899.725159,306
899.841553,314
899.957947,302
900.07428,332
900.190552,312
900.306946,317
900.423157,310
900.53949,312
900.655884,308
900.772156,313
900.888489,319
901.004822,307
901.121033,319
901.237366,308
901.353699,320
901.46991,309
901.586304,316
901.702515,309
901.818787,310
901.93512,315
902.051331,314
902.167603,320
902.283875,317
902.400085,320
902.516418,322
902.632629,316
902.74884,304
902.865112,319
902.981384,320
903.097595,313
903.213867,306
903.330017,325
903.446289,321
903.5625,304
903.67865,314
903.794922,313
903.911072,318
904.027344,322
904.143494,297
904.259705,316
904.375916,318
904.492065,310
904.608215,313
904.724426,314
904.840576,321
904.956726,330
905.072876,303
905.189087,327
905.305176,310
905.421387,310
905.537537,310
905.653687,326
905.769775,319
905.885925,315
906.002014,322
906.118164,311
906.234314,323
906.350403,316
906.466492,298
906.582642,319
906.69873,313
906.814758,330
906.930908,311
907.046936,320
907.163086,310
907.279175,334
907.395264,322
907.511353,307
907.62738,322
907.743408,319
907.859497,304
907.975525,329
908.091553,314
908.207703,311
908.32373,319
908.439758,324
908.555786,315
908.671814,311
908.787842,316
908.90387,317
909.019775,308
909.135864,319
909.251892,312
909.367859,323
909.483826,302
909.599854,319
909.715881,309
909.831848,313
909.947815,306
910.063782,328
910.179749,317
910.295776,312
910.411743,305
910.527649,324
910.643616,313
910.759583,316
910.875488,321
910.991455,318
911.107361,313
911.223267,328
911.339294,316
911.4552,321
911.571106,317
911.687073,321
911.802979,320
911.918823,332
912.034729,314
912.150635,322
912.266602,310
912.382446,307
912.498352,310
912.614197,323
912.730103,318
912.846008,318
792.44574,313
792.56488,342
792.68396,392
792.80304,376
792.92218,330
793.041199,303
793.160339,327
793.279419,328
793.398499,323
793.517578,319
793.636658,322
793.755737,343
793.874817,355
793.993896,349
794.112976,343
794.232056,321
794.351074,342
794.470215,341
794.589233,339
794.708313,316
794.827393,322
794.946411,329
795.065552,348
795.18457,334
795.303589,341
795.422668,341
795.541687,339
795.660767,342
795.779846,339
795.898865,337
796.017883,345
796.136963,337
796.255981,338
796.375061,338
796.49408,329
796.613037,323
796.732117,334
796.851135,333
796.970154,321
797.089233,338
797.208191,333
797.327271,337
797.446228,319
797.565186,331
797.684265,321
797.803223,325
797.922241,344
798.04126,324
798.160278,338
798.279297,323
798.398315,327
798.517273,334
798.636292,334
798.75531,320
798.874268,344
798.993286,317
799.112244,335
799.231323,324
799.350281,326
799.469238,326
799.588257,344
799.707153,332
799.826111,333
799.945129,329
800.064087,343
800.183044,324
800.302063,349
800.421021,315
800.539978,338
800.658936,320
800.777893,329
800.896912,329
801.015747,330
801.134705,322
801.253723,333
801.37262,322
801.491638,335
801.610535,346
801.729492,344
801.84845,331
801.967407,333
802.086243,336
802.205261,335
802.324158,332
802.443115,336
802.562073,322
802.680969,332
802.799927,338
802.918762,323
803.037659,328
803.156677,325
803.275574,332
803.39447,341
803.513428,329
803.632263,340
803.751221,315
803.870117,341
803.989014,320
804.107971,340
804.226746,314
804.345642,340
804.4646,315
804.583496,333
804.702393,324
804.821228,348
804.940125,316
805.059021,338
805.177917,336
805.296814,344
805.415649,337
805.534546,325
805.653442,342
805.772278,346
805.891113,324
806.01001,348
806.128906,322
806.247742,331
806.366577,348
806.485413,336
806.604309,337
806.723145,338
806.84198,340
806.960876,340
807.079712,327
807.198486,320
807.317383,334
807.436218,347
807.554993,326
807.673889,335
807.792725,322
807.91156,320
808.030396,339
808.14917,325
808.268005,331
808.386841,332
808.505676,335
808.624451,331
808.743286,325
808.862122,331
808.980896,335
809.099731,339
809.218506,332
809.337341,320
809.456116,338
809.57489,342
809.693726,336
809.8125,337
809.931274,326
810.050049,322
810.168884,336
810.287659,344
810.406372,341
810.525269,335
810.643982,340
810.762756,336
810.881531,346
811.000305,338
811.11908,329
811.237854,324
811.356567,336
811.475403,352
811.594116,341
811.71283,318
811.831604,337
811.950378,342
812.069153,334
812.187927,317
812.30658,343
812.425415,340
812.544128,336
812.662781,336
812.781616,327
812.900269,322
813.019043,325
813.137756,350
813.256531,318
813.375244,341
813.493896,343
813.612671,332
813.731384,351
813.850037,345
813.96875,338
814.087524,348
814.206238,341
814.324951,325
814.443604,341
814.562256,335
814.68103,332
814.799683,336
814.918335,321
815.037109,338
815.155762,330
815.274475,345
815.393188,322
815.511841,341
815.630554,334
815.749146,335
815.867859,322
815.986572,338
816.105164,327
816.223877,339
816.342529,319
816.461182,335
816.579895,336
816.698486,333
816.817139,321
816.935791,345
817.054504,325
817.173096,327
817.291748,337
817.4104,319
817.529053,327
817.647644,326
817.766235,333
817.884949,328
818.00354,315
818.122192,314
818.240845,325
818.359436,335
818.478088,315
818.59668,321
818.715271,323
818.833923,349
818.952515,311
819.071106,323
819.189758,320
819.30835,325
819.426941,329
819.545532,320
819.664124,326
819.782715,318
819.901306,320
820.019897,318
820.138489,322
820.25708,327
820.375671,323
820.494202,318
820.612732,322
820.731384,314
820.849915,304
820.968506,324
821.087097,311
821.205627,321
821.324158,309
821.442749,317
821.561279,321
821.679871,332
821.798401,322
821.916931,323
822.035461,317
822.154053,310
822.272583,327
822.391174,340
822.509583,315
822.628174,327
822.746704,321
822.865234,316
822.983765,322
823.102295,319
823.220825,318
823.339294,317
823.457825,315
823.576355,307
823.694824,296
823.813354,337
823.931885,318
824.050354,322
824.168884,320
824.287354,318
824.405823,316
824.524353,322
824.642822,324
824.761353,322
824.879822,306
824.998291,312
825.116699,334
825.235291,328
825.353699,332
825.472168,316
825.590637,339
825.709106,326
825.827576,320
825.946045,322
826.064453,310
826.182983,314
826.301392,322
826.4198,321
826.53833,311
826.656738,329
826.775208,312
826.893677,323
827.012024,323
827.130493,322
827.248962,311
827.36731,318
827.485779,315
827.604248,321
827.722595,312
827.841064,309
827.959412,308
828.077942,312
828.196289,318
828.314636,337
828.433105,308
828.551514,314
828.669861,309
828.78833,330
828.906677,319
829.025085,323
829.143433,329
829.261841,306
829.38031,320
829.498657,330
829.617004,305
829.735413,318
829.85376,328
829.972107,324
830.090515,309
830.208862,321
830.327209,315
830.445557,336
830.563904,303
830.682312,325
830.800659,320
830.919006,317
831.037354,309
831.155701,327
831.274048,316
831.392395,315
831.51062,331
831.629028,329
831.747314,314
831.865662,325
831.984009,317
832.102356,313
832.220642,332
832.338928,316
832.457275,321
832.575623,315
832.693909,310
832.812134,320
832.930481,330
833.048828,318
833.167114,319
833.2854,317
833.403687,317
833.521973,315
833.640259,304
833.758545,315
833.876831,320
833.995056,316
834.113281,321
834.231628,320
834.349915,314
834.468201,317
834.586426,294
834.704651,313
834.822998,323
834.941162,315
835.059448,322
835.177673,312
835.295959,312
835.414246,317
835.53241,300
835.650635,323
835.768921,311
835.887146,311
836.005371,320
836.123596,327
836.241821,312
836.360046,313
836.478271,314
836.596497,335
836.714722,319
836.832886,327
836.95105,319
837.069336,323
837.1875,321
837.305725,330
837.423889,303
837.542053,329
837.660339,313
837.778503,323
837.896667,318
838.014832,321
838.132996,315
838.25116,320
838.369385,327
838.487488,321
838.605713,309
838.723877,322
838.84198,332
838.960205,321
839.078308,323
839.196472,317
839.314636,313
839.4328,313
839.550964,316
839.669067,324
839.787231,320
839.905396,327
840.023499,307
840.141602,320
840.259766,327
840.377869,319
840.495972,310
840.614136,307
840.732239,336
840.850342,316
840.968445,320
841.086548,329
841.204651,300
841.322754,327
841.440918,312
841.55896,324
841.677002,307
841.795166,325
841.913208,317
842.031311,310
842.149353,311
842.267456,327
842.385498,316
842.503601,316
842.621643,319
842.739746,321
842.857788,310
842.97583,317
843.093933,323
843.211975,307
843.330017,317
843.44812,312
843.566101,311
843.684204,319
843.802246,324
843.920227,317
844.038269,301
844.156311,328
844.274292,315
844.392395,323
844.510376,321
844.628357,312
844.74646,317
844.864441,318
844.982422,311
845.100403,318
845.218384,311
845.336426,309
845.454468,313
845.572449,311
845.69043,317
845.808411,326
845.926453,319
846.044373,319
846.162354,312
846.280396,316
846.398315,318
846.516296,311
846.634216,319
846.752197,310
846.870178,314
846.988098,314
847.106079,301
847.22406,324
847.34198,304
847.4599,327
847.577881,311
847.695801,315
847.813782,315
847.931641,296
848.049561,315
848.167603,323
848.285461,292
848.403381,308
848.521362,313
848.639221,324
848.75708,300
848.875,322
848.99292,309
849.110901,314
849.22876,316
849.34668,311
849.464539,306
849.582458,324
849.700317,301
849.818176,323
849.936096,310
850.053955,333
850.171875,315
850.289673,323
850.407593,322
850.525452,311
850.643311,309
850.761169,329
850.878967,309
850.996887,316
851.114746,311
851.232544,332
851.350403,297
851.468262,318
851.58606,311
851.703979,323
851.821777,308
851.939636,322
852.057434,301
852.175232,307
852.293091,317
852.410889,315
852.528687,315
852.646545,312
852.764343,304
852.88208,312
852.999939,321
853.117676,324
853.235535,316
853.353271,329
853.471069,311
853.588928,310
853.706604,325
853.824402,333
853.9422,313
854.059998,331
854.177734,304
854.295532,320
854.413269,326
854.531006,315
854.648804,313
854.766541,318
854.884277,308
855.002014,320
855.119751,322
855.237549,318
855.355225,325
855.473022,314
855.590698,304
855.708435,317
855.826172,316
855.943848,317
856.061646,328
856.179321,320
856.296997,313
856.414795,330
856.53241,322
856.650085,312
856.767822,315
856.885559,318
857.003174,303
857.120911,329
857.238586,310
857.356201,332
857.473938,322
857.591614,318
857.709351,311
857.826965,317
857.944641,304
858.062317,322
858.179993,321
858.297668,322
858.415283,325
858.532959,300
858.650574,321
858.768188,325
858.885803,323
859.003479,316
859.121094,302
859.23877,307
859.356384,315
859.473999,319
859.591675,317
859.709229,322
859.826843,314
859.944458,325
860.062012,321
860.179626,328
860.297302,309
860.414856,317
860.532471,311
860.650024,330
860.767639,315
860.885193,307
861.002808,312
861.120361,323
861.237976,325
861.35553,308
861.473022,323
861.590698,323
861.708191,307
861.825745,317
861.943298,328
862.060852,323
862.178406,316
862.295959,325
862.413513,321
862.531006,321
862.64856,312
862.766113,313
862.883667,320
863.00116,322
863.118713,314
863.236206,317
863.353699,321
863.471252,305
863.588745,309
863.706177,330
863.82373,303
863.941162,324
864.058716,316
864.176208,328
864.29364,308
864.411194,320
864.528687,316
864.646118,316
864.763611,329
864.881042,311
864.998535,310
865.116028,314
865.233459,307
865.350891,319
865.468384,320
865.585754,331
865.703308,324
865.820679,303
865.938171,315
866.055542,307
866.173035,316
866.290466,310
866.407837,306
866.52533,318
866.6427,323
866.760071,323
866.877563,323
866.994934,310
867.112305,324
867.229736,323
867.347107,321
867.464539,318
867.58197,315
867.699341,319
867.81665,318
867.934082,301
868.051453,318
868.168823,314
868.286194,310
868.403564,327
868.520935,310
868.638306,321
868.755676,318
868.872986,317
868.990295,303
869.107727,319
869.225037,318
869.342346,307
869.459717,327
869.577026,315
869.694336,300
869.811707,308
869.929016,310
870.046326,323
870.163635,310
870.280945,309
870.398254,317
870.515564,322
870.632812,316
870.750183,317
870.867432,310
870.984741,329
871.102051,319
871.219299,310
871.336609,308
871.453918,319
871.571106,327
871.688416,321
871.805664,320
871.922852,311
872.040222,322
872.157471,327
872.274719,312
872.391968,330
872.509155,328
872.626465,317
872.743652,305
872.860962,318
872.978149,301
873.095337,315
873.212646,313
873.329834,315
873.44696,317
873.564209,325
873.681396,332
873.798645,318
873.915894,321
874.03302,324
874.150208,317
874.267456,320
874.384583,313
874.501831,315
874.618958,304
874.736145,318
874.853333,314
874.970459,300
875.087646,318
875.204834,319
875.32196,320
875.439148,319
875.556274,313
875.673401,327
875.790527,324
875.907715,318
876.024841,309
876.141968,316
876.259094,315
876.376282,315
876.493347,314
876.610474,322
876.7276,316
876.844727,306
876.961853,315
877.078918,312
877.195984,307
877.313171,310
877.430237,313
877.547302,329
877.664368,295
877.781433,316
877.898499,311
878.015625,324
878.13269,311
878.249695,320
878.366821,309
878.483887,310
878.600952,320
878.717957,321
878.834961,313
878.952087,326
879.069092,315
879.186157,335
879.303162,305
879.420227,321
879.537231,313
879.654236,312
879.77124,317
879.888306,315
880.005249,315
880.122314,323
880.239319,320
880.356323,307
880.473328,313
880.590271,321
880.707275,310
880.824341,316
880.941284,314
881.058228,324
881.175232,326
881.292236,317
881.40918,307
881.526123,314
881.643066,307
881.760071,333
881.877014,308
881.993958,311
882.11084,307
882.227783,327
882.344727,312
882.46167,309
882.578613,315
882.695618,322
882.812439,307
882.929382,315
883.046326,315
883.163208,319
883.280151,321
883.397034,334
883.513916,306
883.630798,328
883.747742,306
883.864563,325
883.981506,307
884.098389,316
884.21521,314
884.332153,334
884.448975,312
884.565796,324
884.682678,319
884.7995,311
884.916443,315
885.033264,320
885.150085,305
885.266968,316
885.383789,315
885.500671,319
885.617493,309
885.734314,323
885.851196,331
885.967896,314
886.084717,298
886.201599,331
886.318359,311
886.435181,307
886.552002,315
886.668762,319
886.785645,328
886.902344,311
887.019165,328
887.135925,326
887.252747,305
887.369446,314
887.486267,316
887.603027,320
887.719788,312
887.836548,324
887.953247,336
888.070068,321
888.186829,313
888.303528,315
888.420288,317
888.536987,327
888.653687,305
888.770447,316
888.887146,321
889.003967,320
889.120667,322
889.237305,314
889.354065,323
889.470703,317
889.587463,311
889.704163,320
889.820862,307
889.937561,325
890.054199,315
890.170837,316
890.287598,313
890.404236,320
890.520874,315
890.637634,310
890.754211,311
890.87085,327
890.987549,323
891.104187,318
891.220886,311
891.337463,311
891.454102,310
891.57074,326
891.687378,316
891.804077,306
891.920654,311
892.037231,320
892.15387,304
892.270447,315
892.387085,314
892.503723,327
892.6203,310
892.736877,317
892.853516,318
892.970032,324
893.08667,315
893.203186,321
893.319763,309
893.43634,326
893.552917,309
893.669556,323
893.786011,316
893.902588,328
894.019165,315
894.135681,309
894.252197,313
894.368835,323
894.485291,310
894.601868,332
894.718384,316
894.8349,321
894.951355,308
895.067932,302
895.184448,326
895.300964,321
895.417419,319
895.533936,324
895.650452,299
895.766907,337
895.883423,324
895.999878,330
896.116333,311
896.232849,315
896.349304,332
896.465759,309
896.582214,306
896.698669,314
896.815125,299
896.931641,324
897.048035,316
897.164551,321
897.280884,314
897.397339,315
897.513794,316
897.630249,320
897.746582,316
897.863098,317
897.979431,309
898.095886,330
898.212341,315
898.328674,318
898.445129,316
898.561462,308
898.677795,326
898.794312,324
898.910645,327
899.026978,320
899.143433,305
899.259766,319
899.37616,324
899.492493,309
899.608765,319
899.725159,316
899.841553,322
899.957947,319
900.07428,302
900.190552,316
900.306946,325
900.423157,312
900.53949,322
900.655884,332
900.772156,316
900.888489,309
901.004822,310
901.121033,323
901.237366,318
901.353699,327
901.46991,311
901.586304,314
901.702515,315
901.818787,323
901.93512,312
902.051331,315
902.167603,307
902.283875,314
902.400085,308
902.516418,321
902.632629,312
902.74884,329
902.865112,317
902.981384,311
903.097595,329
903.213867,335
903.330017,323
903.446289,323
903.5625,301
903.67865,313
903.794922,312
903.911072,321
904.027344,318
904.143494,317
904.259705,293
904.375916,330
904.492065,326
904.608215,319
904.724426,315
904.840576,322
904.956726,307
905.072876,313
905.189087,309
905.305176,326
905.421387,310
905.537537,323
905.653687,302
905.769775,322
905.885925,324
906.002014,318
906.118164,307
906.234314,320
906.350403,311
906.466492,314
906.582642,319
906.69873,311
906.814758,314
906.930908,330
907.046936,322
907.163086,324
907.279175,309
907.395264,327
907.511353,298
907.62738,318
907.743408,296
907.859497,325
907.975525,328
908.091553,316
908.207703,307
908.32373,321
908.439758,319
908.555786,321
908.671814,322
908.787842,318
908.90387,300
909.019775,321
909.135864,321
909.251892,316
909.367859,310
909.483826,315
909.599854,323
909.715881,316
909.831848,320
909.947815,325
910.063782,314
910.179749,315
910.295776,320
910.411743,321
910.527649,312
910.643616,318
910.759583,316
910.875488,332
910.991455,305
911.107361,319
911.223267,314
911.339294,311
911.4552,310
911.571106,313
911.687073,306
911.802979,326
911.918823,309
912.034729,313
912.150635,313
912.266602,310
912.382446,303
912.498352,317
912.614197,318
912.730103,317
912.846008,305
