792.44574,319
792.56488,346
792.68396,398
792.80304,366
792.92218,346
793.041199,312
793.160339,318
793.279419,353
793.398499,337
793.517578,329
793.636658,313
793.755737,340
793.874817,346
793.993896,344
794.112976,328
794.232056,326
794.351074,330
794.470215,328
794.589233,345
794.708313,333
794.827393,337
794.946411,325
795.065552,347
795.18457,333
795.303589,333
795.422668,343
795.541687,341
795.660767,324
795.779846,341
795.898865,317
796.017883,343
796.136963,326
796.255981,327
796.375061,328
796.49408,327
796.613037,324
796.732117,322
796.851135,332
796.970154,334
797.089233,345
797.208191,327
797.327271,319
797.446228,347
797.565186,338
797.684265,332
797.803223,331
797.922241,333
798.04126,323
798.160278,329
798.279297,335
798.398315,343
798.517273,326
798.636292,331
798.75531,341
798.874268,335
798.993286,329
799.112244,343
799.231323,329
799.350281,331
799.469238,322
799.588257,340
799.707153,333
799.826111,324
799.945129,334
800.064087,326
800.183044,310
800.302063,329
800.421021,336
800.539978,319
800.658936,322
800.777893,330
800.896912,332
801.015747,329
801.134705,333
801.253723,331
801.37262,331
801.491638,335
801.610535,320
801.729492,333
801.84845,337
801.967407,334
802.086243,328
802.205261,339
802.324158,318
802.443115,319
802.562073,337
802.680969,328
802.799927,322
802.918762,340
803.037659,334
803.156677,340
803.275574,325
803.39447,336
803.513428,332
803.632263,314
803.751221,334
803.870117,326
803.989014,331
804.107971,337
804.226746,323
804.345642,329
804.4646,337
804.583496,344
804.702393,338
804.821228,339
804.940125,344
805.059021,333
805.177917,333
805.296814,332
805.415649,317
805.534546,313
805.653442,339
805.772278,323
805.891113,329
806.01001,336
806.128906,336
806.247742,326
806.366577,343
806.485413,325
806.604309,338
806.723145,325
806.84198,329
806.960876,351
807.079712,329
807.198486,317
807.317383,334
807.436218,340
807.554993,334
807.673889,333
807.792725,335
807.91156,333
808.030396,337
808.14917,336
808.268005,337
808.386841,323
808.505676,326
808.624451,336
808.743286,332
808.862122,343
808.980896,335
809.099731,340
809.218506,330
809.337341,330
809.456116,342
809.57489,339
809.693726,327
809.8125,324
809.931274,329
810.050049,340
810.168884,328
810.287659,335
810.406372,324
810.525269,342
810.643982,328
810.762756,342
810.881531,328
811.000305,338
811.11908,342
811.237854,347
811.356567,336
811.475403,324
811.594116,330
811.71283,348
811.831604,337
811.950378,325
812.069153,343
812.187927,322
812.30658,335
812.425415,325
812.544128,337
812.662781,333
812.781616,335
812.900269,340
813.019043,338
813.137756,332
813.256531,343
813.375244,337
813.493896,326
813.612671,328
813.731384,330
813.850037,331
813.96875,329
814.087524,330
814.206238,319
814.324951,341
814.443604,329
814.562256,324
814.68103,333
814.799683,344
814.918335,336
815.037109,331
815.155762,339
815.274475,323
815.393188,333
815.511841,327
815.630554,327
815.749146,322
815.867859,321
815.986572,329
816.105164,321
816.223877,337
816.342529,341
816.461182,334
816.579895,332
816.698486,324
816.817139,331
816.935791,341
817.054504,331
817.173096,332
817.291748,326
817.4104,318
817.529053,332
817.647644,330
817.766235,334
817.884949,325
818.00354,325
818.122192,329
818.240845,329
818.359436,329
818.478088,316
818.59668,329
818.715271,328
818.833923,314
818.952515,325
819.071106,321
819.189758,321
819.30835,333
819.426941,323
819.545532,325
819.664124,321
819.782715,322
819.901306,314
820.019897,319
820.138489,327
820.25708,311
820.375671,320
820.494202,304
820.612732,316
820.731384,318
820.849915,317
820.968506,324
821.087097,308
821.205627,319
821.324158,314
821.442749,314
821.561279,333
821.679871,316
821.798401,320
821.916931,317
822.035461,322
822.154053,323
822.272583,313
822.391174,327
822.509583,314
822.628174,323
822.746704,315
822.865234,320
822.983765,326
823.102295,312
823.220825,301
823.339294,320
823.457825,315
823.576355,319
823.694824,308
823.813354,322
823.931885,314
824.050354,331
824.168884,330
824.287354,327
824.405823,318
824.524353,315
824.642822,314
824.761353,312
824.879822,329
824.998291,303
825.116699,321
825.235291,322
825.353699,310
825.472168,317
825.590637,311
825.709106,315
825.827576,323
825.946045,310
826.064453,321
826.182983,328
826.301392,327
826.4198,318
826.53833,327
826.656738,315
826.775208,323
826.893677,315
827.012024,307
827.130493,316
827.248962,320
827.36731,319
827.485779,313
827.604248,310
827.722595,323
827.841064,327
827.959412,315
828.077942,318
828.196289,323
828.314636,317
828.433105,320
828.551514,322
828.669861,311
828.78833,320
828.906677,314
829.025085,309
829.143433,324
829.261841,322
829.38031,313
829.498657,332
829.617004,311
829.735413,307
829.85376,312
829.972107,312
830.090515,326
830.208862,306
830.327209,309
830.445557,324
830.563904,319
830.682312,323
830.800659,317
830.919006,311
831.037354,317
831.155701,317
831.274048,318
831.392395,318
831.51062,328
831.629028,314
831.747314,329
831.865662,326
831.984009,331
832.102356,315
832.220642,323
832.338928,307
832.457275,322
832.575623,327
832.693909,324
832.812134,316
832.930481,301
833.048828,320
833.167114,320
833.2854,325
833.403687,310
833.521973,313
833.640259,311
833.758545,314
833.876831,315
833.995056,313
834.113281,329
834.231628,324
834.349915,330
834.468201,318
834.586426,321
834.704651,323
834.822998,321
834.941162,328
835.059448,310
835.177673,308
835.295959,326
835.414246,307
835.53241,333
835.650635,312
835.768921,316
835.887146,320
836.005371,318
836.123596,321
836.241821,319
836.360046,322
836.478271,311
836.596497,306
836.714722,325
836.832886,314
836.95105,323
837.069336,319
837.1875,310
837.305725,323
837.423889,309
837.542053,322
837.660339,322
837.778503,318
837.896667,323
838.014832,315
838.132996,304
838.25116,313
838.369385,331
838.487488,313
838.605713,325
838.723877,313
838.84198,323
838.960205,305
839.078308,314
839.196472,316
839.314636,313
839.4328,333
839.550964,323
839.669067,326
839.787231,319
839.905396,326
840.023499,314
840.141602,313
840.259766,315
840.377869,310
840.495972,328
840.614136,307
840.732239,322
840.850342,321
840.968445,308
841.086548,317
841.204651,313
841.322754,311
841.440918,318
841.55896,323
841.677002,310
841.795166,321
841.913208,325
842.031311,320
842.149353,312
842.267456,317
842.385498,329
842.503601,319
842.621643,323
842.739746,304
842.857788,308
842.97583,317
843.093933,316
843.211975,308
843.330017,328
843.44812,328
843.566101,311
843.684204,315
843.802246,317
843.920227,308
844.038269,315
844.156311,310
844.274292,318
844.392395,305
844.510376,307
844.628357,319
844.74646,311
844.864441,311
844.982422,308
845.100403,314
845.218384,319
845.336426,309
845.454468,309
845.572449,319
845.69043,309
845.808411,323
845.926453,315
846.044373,309
846.162354,329
846.280396,318
846.398315,321
846.516296,319
846.634216,317
846.752197,310
846.870178,323
846.988098,321
847.106079,302
847.22406,326
847.34198,306
847.4599,321
847.577881,317
847.695801,317
847.813782,312
847.931641,314
848.049561,309
848.167603,316
848.285461,314
848.403381,315
848.521362,320
848.639221,322
848.75708,315
848.875,314
848.99292,335
849.110901,315
849.22876,314
849.34668,309
849.464539,304
849.582458,316
849.700317,308
849.818176,320
849.936096,316
850.053955,317
850.171875,310
850.289673,319
850.407593,318
850.525452,322
850.643311,311
850.761169,327
850.878967,314
850.996887,317
851.114746,324
851.232544,310
851.350403,319
851.468262,320
851.58606,309
851.703979,305
851.821777,314
851.939636,315
852.057434,318
852.175232,305
852.293091,322
852.410889,310
852.528687,302
852.646545,333
852.764343,313
852.88208,313
852.999939,307
853.117676,307
853.235535,322
853.353271,320
853.471069,309
853.588928,312
853.706604,316
853.824402,302
853.9422,329
854.059998,306
854.177734,315
854.295532,306
854.413269,322
854.531006,316
854.648804,314
854.766541,319
854.884277,310
855.002014,306
855.119751,309
855.237549,306
855.355225,327
855.473022,318
855.590698,318
855.708435,308
855.826172,302
855.943848,311
856.061646,322
856.179321,326
856.296997,330
856.414795,318
856.53241,314
856.650085,326
856.767822,321
856.885559,321
857.003174,326
857.120911,313
857.238586,333
857.356201,308
857.473938,317
857.591614,317
857.709351,320
857.826965,326
857.944641,323
858.062317,309
858.179993,315
858.297668,316
858.415283,327
858.532959,304
858.650574,310
858.768188,315
858.885803,315
859.003479,317
859.121094,315
859.23877,320
859.356384,321
859.473999,314
859.591675,308
859.709229,325
859.826843,330
859.944458,325
860.062012,314
860.179626,320
860.297302,312
860.414856,316
860.532471,331
860.650024,314
860.767639,313
860.885193,325
861.002808,322
861.120361,311
861.237976,319
861.35553,314
861.473022,321
861.590698,308
861.708191,311
861.825745,305
861.943298,312
862.060852,318
862.178406,321
862.295959,316
862.413513,303
862.531006,314
862.64856,313
862.766113,326
862.883667,309
863.00116,312
863.118713,313
863.236206,307
863.353699,316
863.471252,311
863.588745,313
863.706177,327
863.82373,310
863.941162,308
864.058716,316
864.176208,315
864.29364,316
864.411194,322
864.528687,324
864.646118,317
864.763611,327
864.881042,325
864.998535,314
865.116028,319
865.233459,313
865.350891,320
865.468384,306
865.585754,316
865.703308,306
865.820679,311
865.938171,325
866.055542,317
866.173035,314
866.290466,316
866.407837,320
866.52533,307
866.6427,319
866.760071,311
866.877563,312
866.994934,314
867.112305,304
867.229736,309
867.347107,318
867.464539,320
867.58197,315
867.699341,309
867.81665,323
867.934082,313
868.051453,322
868.168823,336
868.286194,312
868.403564,332
868.520935,314
868.638306,306
868.755676,309
868.872986,323
868.990295,320
869.107727,330
869.225037,315
869.342346,321
869.459717,312
869.577026,299
869.694336,311
869.811707,308
869.929016,325
870.046326,317
870.163635,329
870.280945,315
870.398254,321
870.515564,300
870.632812,318
870.750183,317
870.867432,319
870.984741,306
871.102051,323
871.219299,318
871.336609,317
871.453918,329
871.571106,317
871.688416,304
871.805664,310
871.922852,320
872.040222,334
872.157471,300
872.274719,329
872.391968,321
872.509155,312
872.626465,311
872.743652,309
872.860962,330
872.978149,308
873.095337,320
873.212646,318
873.329834,301
873.44696,301
873.564209,328
873.681396,328
873.798645,315
873.915894,307
874.03302,326
874.150208,301
874.267456,315
874.384583,329
874.501831,310
874.618958,322
874.736145,309
874.853333,320
874.970459,331
875.087646,308
875.204834,310
875.32196,326
875.439148,325
875.556274,318
875.673401,316
875.790527,316
875.907715,311
876.024841,314
876.141968,313
876.259094,308
876.376282,306
876.493347,314
876.610474,324
876.7276,306
876.844727,309
876.961853,319
877.078918,319
877.195984,315
877.313171,317
877.430237,306
877.547302,321
877.664368,297
877.781433,314
877.898499,319
878.015625,313
878.13269,329
878.249695,320
878.366821,314
878.483887,320
878.600952,322
878.717957,310
878.834961,313
878.952087,316
879.069092,330
879.186157,310
879.303162,328
879.420227,316
879.537231,316
879.654236,307
879.77124,311
879.888306,314
880.005249,306
880.122314,327
880.239319,320
880.356323,307
880.473328,331
880.590271,320
880.707275,327
880.824341,317
880.941284,321
881.058228,318
881.175232,312
881.292236,303
881.40918,332
881.526123,317
881.643066,313
881.760071,310
881.877014,324
881.993958,329
882.11084,309
882.227783,319
882.344727,337
882.46167,306
882.578613,313
882.695618,312
882.812439,315
882.929382,328
883.046326,321
883.163208,309
883.280151,325
883.397034,314
883.513916,311
883.630798,325
883.747742,311
883.864563,323
883.981506,329
884.098389,312
884.21521,319
884.332153,312
884.448975,321
884.565796,317
884.682678,303
884.7995,316
884.916443,304
885.033264,312
885.150085,328
885.266968,313
885.383789,321
885.500671,305
885.617493,307
885.734314,321
885.851196,331
885.967896,323
886.084717,327
886.201599,310
886.318359,313
886.435181,300
886.552002,319
886.668762,312
886.785645,324
886.902344,319
887.019165,311
887.135925,307
887.252747,312
887.369446,308
887.486267,316
887.603027,305
887.719788,309
887.836548,322
887.953247,308
888.070068,316
888.186829,305
888.303528,325
888.420288,321
888.536987,313
888.653687,312
888.770447,300
888.887146,312
889.003967,320
889.120667,298
889.237305,314
889.354065,310
889.470703,312
889.587463,331
889.704163,319
889.820862,327
889.937561,306
890.054199,313
890.170837,321
890.287598,320
890.404236,316
890.520874,317
890.637634,312
890.754211,317
890.87085,297
890.987549,322
891.104187,320
891.220886,318
891.337463,304
891.454102,316
891.57074,326
891.687378,319
891.804077,332
891.920654,325
892.037231,319
892.15387,315
892.270447,304
892.387085,317
892.503723,309
892.6203,318
892.736877,309
892.853516,324
892.970032,323
893.08667,325
893.203186,301
893.319763,317
893.43634,313
893.552917,323
893.669556,337
893.786011,311
893.902588,312
894.019165,306
894.135681,320
894.252197,309
894.368835,322
894.485291,326
894.601868,304
894.718384,324
894.8349,319
894.951355,314
895.067932,306
895.184448,320
895.300964,314
895.417419,320
895.533936,301
895.650452,322
895.766907,325
895.883423,319
895.999878,309
896.116333,314
896.232849,316
896.349304,319
896.465759,316
896.582214,329
896.698669,307
896.815125,322
896.931641,309
897.048035,321
897.164551,308
897.280884,297
897.397339,325
897.513794,320
897.630249,319
897.746582,312
897.863098,304
897.979431,319
898.095886,318
898.212341,332
898.328674,313
898.445129,318
898.561462,310
898.677795,320
898.794312,323
898.910645,309
899.026978,308
899.143433,318
899.259766,310
899.37616,332
899.492493,310
899.608765,305
899.725159,305
899.841553,319
899.957947,320
900.07428,335
900.190552,311
900.306946,327
900.423157,316
900.53949,310
900.655884,320
900.772156,295
900.888489,308
901.004822,323
901.121033,315
901.237366,325
901.353699,309
901.46991,315
901.586304,306
901.702515,316
901.818787,332
901.93512,317
902.051331,327
902.167603,314
902.283875,313
902.400085,329
902.516418,313
902.632629,320
902.74884,311
902.865112,329
902.981384,318
903.097595,333
903.213867,311
903.330017,318
903.446289,328
903.5625,323
903.67865,313
903.794922,329
903.911072,303
904.027344,310
904.143494,323
904.259705,307
904.375916,295
904.492065,325
904.608215,315
904.724426,327
904.840576,309
904.956726,311
905.072876,310
905.189087,327
905.305176,333
905.421387,327
905.537537,315
905.653687,311
905.769775,322
905.885925,315
906.002014,330
906.118164,307
906.234314,326
906.350403,313
906.466492,323
906.582642,311
906.69873,315
906.814758,314
906.930908,324
907.046936,326
907.163086,325
907.279175,311
907.395264,317
907.511353,328
907.62738,322
907.743408,316
907.859497,322
907.975525,309
908.091553,316
908.207703,311
908.32373,318
908.439758,324
908.555786,316
908.671814,321
908.787842,320
908.90387,319
909.019775,325
909.135864,319
909.251892,319
909.367859,327
909.483826,322
909.599854,310
909.715881,310
909.831848,317
909.947815,307
910.063782,319
910.179749,313
910.295776,319
910.411743,314
910.527649,317
910.643616,306
910.759583,318
910.875488,325
910.991455,322
911.107361,318
911.223267,326
911.339294,316
911.4552,322
911.571106,320
911.687073,321
911.802979,313
911.918823,301
912.034729,316
912.150635,313
912.266602,310
912.382446,315
912.498352,314
912.614197,318
912.730103,306
912.846008,316
792.44574,326
792.56488,365
792.68396,392
792.80304,377
792.92218,327
793.041199,338
793.160339,328
793.279419,349
793.398499,323
793.517578,324
793.636658,338
793.755737,330
793.874817,340
793.993896,354
794.112976,331
794.232056,327
794.351074,340
794.470215,335
794.589233,337
794.708313,320
794.827393,338
794.946411,328
795.065552,333
795.18457,338
795.303589,324
795.422668,332
795.541687,330
795.660767,342
795.779846,332
795.898865,323
796.017883,328
796.136963,319
796.255981,327
796.375061,333
796.49408,337
796.613037,322
796.732117,325
796.851135,342
796.970154,331
797.089233,334
797.208191,325
797.327271,337
797.446228,325
797.565186,328
797.684265,334
797.803223,318
797.922241,335
798.04126,331
798.160278,333
798.279297,329
798.398315,327
798.517273,330
798.636292,328
798.75531,335
798.874268,323
798.993286,322
799.112244,329
799.231323,333
799.350281,344
799.469238,328
799.588257,329
799.707153,328
799.826111,329
799.945129,332
800.064087,331
800.183044,340
800.302063,318
800.421021,333
800.539978,325
800.658936,335
800.777893,317
800.896912,335
801.015747,318
801.134705,329
801.253723,327
801.37262,324
801.491638,329
801.610535,318
801.729492,328
801.84845,325
801.967407,333
802.086243,327
802.205261,334
802.324158,318
802.443115,334
802.562073,338
802.680969,317
802.799927,328
802.918762,335
803.037659,332
803.156677,331
803.275574,337
803.39447,326
803.513428,328
803.632263,330
803.751221,324
803.870117,333
803.989014,331
804.107971,323
804.226746,324
804.345642,346
804.4646,332
804.583496,323
804.702393,340
804.821228,320
804.940125,335
805.059021,340
805.177917,329
805.296814,342
805.415649,343
805.534546,331
805.653442,327
805.772278,316
805.891113,334
806.01001,337
806.128906,346
806.247742,331
806.366577,320
806.485413,337
806.604309,321
806.723145,338
806.84198,335
806.960876,324
807.079712,336
807.198486,342
807.317383,335
807.436218,343
807.554993,338
807.673889,338
807.792725,334
807.91156,354
808.030396,344
808.14917,343
808.268005,328
808.386841,332
808.505676,335
808.624451,333
808.743286,330
808.862122,322
808.980896,330
809.099731,334
809.218506,340
809.337341,313
809.456116,350
809.57489,333
809.693726,335
809.8125,333
809.931274,335
810.050049,333
810.168884,344
810.287659,335
810.406372,342
810.525269,318
810.643982,331
810.762756,333
810.881531,339
811.000305,342
811.11908,333
811.237854,329
811.356567,331
811.475403,318
811.594116,338
811.71283,340
811.831604,345
811.950378,331
812.069153,331
812.187927,337
812.30658,335
812.425415,337
812.544128,335
812.662781,343
812.781616,340
812.900269,333
813.019043,327
813.137756,329
813.256531,321
813.375244,322
813.493896,339
813.612671,335
813.731384,323
813.850037,340
813.96875,339
814.087524,325
814.206238,333
814.324951,338
814.443604,333
814.562256,334
814.68103,333
814.799683,339
814.918335,330
815.037109,334
815.155762,331
815.274475,330
815.393188,340
815.511841,331
815.630554,339
815.749146,337
815.867859,326
815.986572,338
816.105164,335
816.223877,319
816.342529,334
816.461182,333
816.579895,348
816.698486,330
816.817139,339
816.935791,326
817.054504,333
817.173096,347
817.291748,345
817.4104,335
817.529053,349
817.647644,326
817.766235,330
817.884949,321
818.00354,332
818.122192,329
818.240845,327
818.359436,331
818.478088,334
818.59668,321
818.715271,319
818.833923,328
818.952515,333
819.071106,314
819.189758,324
819.30835,308
819.426941,313
819.545532,326
819.664124,324
819.782715,321
819.901306,325
820.019897,323
820.138489,335
820.25708,324
820.375671,326
820.494202,315
820.612732,320
820.731384,335
820.849915,334
820.968506,325
821.087097,318
821.205627,317
821.324158,321
821.442749,307
821.561279,321
821.679871,321
821.798401,327
821.916931,308
822.035461,323
822.154053,321
822.272583,327
822.391174,323
822.509583,316
822.628174,309
822.746704,317
822.865234,318
822.983765,332
823.102295,318
823.220825,321
823.339294,329
823.457825,322
823.576355,315
823.694824,322
823.813354,318
823.931885,324
824.050354,310
824.168884,322
824.287354,321
824.405823,325
824.524353,315
824.642822,302
824.761353,327
824.879822,322
824.998291,327
825.116699,308
825.235291,311
825.353699,315
825.472168,329
825.590637,316
825.709106,322
825.827576,323
825.946045,330
826.064453,317
826.182983,324
826.301392,329
826.4198,319
826.53833,323
826.656738,322
826.775208,328
826.893677,324
827.012024,309
827.130493,320
827.248962,309
827.36731,328
827.485779,326
827.604248,312
827.722595,315
827.841064,320
827.959412,313
828.077942,312
828.196289,328
828.314636,306
828.433105,325
828.551514,317
828.669861,327
828.78833,315
828.906677,314
829.025085,316
829.143433,314
829.261841,306
829.38031,326
829.498657,315
829.617004,315
829.735413,316
829.85376,322
829.972107,316
830.090515,324
830.208862,313
830.327209,312
830.445557,315
830.563904,325
830.682312,312
830.800659,328
830.919006,309
831.037354,315
831.155701,332
831.274048,324
831.392395,315
831.51062,310
831.629028,317
831.747314,321
831.865662,320
831.984009,319
832.102356,315
832.220642,333
832.338928,317
832.457275,320
832.575623,330
832.693909,319
832.812134,316
832.930481,313
833.048828,320
833.167114,318
833.2854,315
833.403687,327
833.521973,328
833.640259,318
833.758545,312
833.876831,311
833.995056,307
834.113281,319
834.231628,321
834.349915,304
834.468201,322
834.586426,317
834.704651,323
834.822998,310
834.941162,307
835.059448,327
835.177673,311
835.295959,333
835.414246,309
835.53241,321
835.650635,317
835.768921,327
835.887146,316
836.005371,314
836.123596,326
836.241821,315
836.360046,316
836.478271,336
836.596497,321
836.714722,321
836.832886,317
836.95105,312
837.069336,311
837.1875,322
837.305725,312
837.423889,314
837.542053,317
837.660339,332
837.778503,319
837.896667,303
838.014832,322
838.132996,326
838.25116,319
838.369385,309
838.487488,321
838.605713,317
838.723877,315
838.84198,313
838.960205,333
839.078308,313
839.196472,300
839.314636,325
839.4328,314
839.550964,322
839.669067,324
839.787231,318
839.905396,319
840.023499,317
840.141602,318
840.259766,320
840.377869,323
840.495972,308
840.614136,318
840.732239,301
840.850342,323
840.968445,310
841.086548,320
841.204651,315
841.322754,313
841.440918,316
841.55896,320
841.677002,320
841.795166,320
841.913208,317
842.031311,309
842.149353,320
842.267456,321
842.385498,309
842.503601,309
842.621643,323
842.739746,320
842.857788,317
842.97583,323
843.093933,307
843.211975,306
843.330017,322
843.44812,320
843.566101,317
843.684204,310
843.802246,305
843.920227,310
844.038269,321
844.156311,320
844.274292,307
844.392395,317
844.510376,321
844.628357,311
844.74646,314
844.864441,317
844.982422,316
845.100403,317
845.218384,318
845.336426,308
845.454468,320
845.572449,301
845.69043,297
845.808411,305
845.926453,322
846.044373,303
846.162354,329
846.280396,314
846.398315,318
846.516296,314
846.634216,308
846.752197,323
846.870178,317
846.988098,322
847.106079,314
847.22406,302
847.34198,310
847.4599,320
847.577881,320
847.695801,326
847.813782,320
847.931641,321
848.049561,319
848.167603,323
848.285461,307
848.403381,313
848.521362,306
848.639221,324
848.75708,318
848.875,318
848.99292,319
849.110901,306
849.22876,304
849.34668,312
849.464539,319
849.582458,314
849.700317,319
849.818176,323
849.936096,298
850.053955,314
850.171875,315
850.289673,330
850.407593,310
850.525452,326
850.643311,323
850.761169,323
850.878967,309
850.996887,304
851.114746,315
851.232544,314
851.350403,329
851.468262,309
851.58606,310
851.703979,317
851.821777,320
851.939636,309
852.057434,314
852.175232,321
852.293091,314
852.410889,310
852.528687,315
852.646545,324
852.764343,323
852.88208,310
852.999939,315
853.117676,316
853.235535,299
853.353271,324
853.471069,320
853.588928,332
853.706604,322
853.824402,315
853.9422,322
854.059998,309
854.177734,324
854.295532,309
854.413269,323
854.531006,322
854.648804,322
854.766541,313
854.884277,317
855.002014,314
855.119751,339
855.237549,314
855.355225,321
855.473022,315
855.590698,319
855.708435,312
855.826172,333
855.943848,317
856.061646,318
856.179321,310
856.296997,314
856.414795,329
856.53241,321
856.650085,319
856.767822,310
856.885559,303
857.003174,316
857.120911,312
857.238586,317
857.356201,314
857.473938,307
857.591614,318
857.709351,323
857.826965,311
857.944641,317
858.062317,304
858.179993,319
858.297668,303
858.415283,318
858.532959,313
858.650574,313
858.768188,309
858.885803,323
859.003479,310
859.121094,321
859.23877,315
859.356384,316
859.473999,310
859.591675,319
859.709229,302
859.826843,323
859.944458,308
860.062012,315
860.179626,313
860.297302,305
860.414856,312
860.532471,314
860.650024,312
860.767639,306
860.885193,289
861.002808,314
861.120361,308
861.237976,319
861.35553,312
861.473022,314
861.590698,312
861.708191,317
861.825745,321
861.943298,318
862.060852,306
862.178406,323
862.295959,304
862.413513,308
862.531006,312
862.64856,317
862.766113,309
862.883667,319
863.00116,313
863.118713,323
863.236206,302
863.353699,318
863.471252,313
863.588745,326
863.706177,322
863.82373,317
863.941162,326
864.058716,329
864.176208,320
864.29364,315
864.411194,312
864.528687,315
864.646118,308
864.763611,307
864.881042,305
864.998535,312
865.116028,313
865.233459,320
865.350891,318
865.468384,321
865.585754,317
865.703308,315
865.820679,324
865.938171,308
866.055542,308
866.173035,325
866.290466,301
866.407837,323
866.52533,315
866.6427,307
866.760071,316
866.877563,317
866.994934,304
867.112305,324
867.229736,324
867.347107,317
867.464539,315
867.58197,318
867.699341,309
867.81665,303
867.934082,312
868.051453,304
868.168823,313
868.286194,308
868.403564,306
868.520935,327
868.638306,323
868.755676,317
868.872986,315
868.990295,304
869.107727,309
869.225037,313
869.342346,321
869.459717,304
869.577026,321
869.694336,314
869.811707,310
869.929016,327
870.046326,319
870.163635,317
870.280945,318
870.398254,324
870.515564,304
870.632812,320
870.750183,314
870.867432,305
870.984741,312
871.102051,320
871.219299,322
871.336609,314
871.453918,319
871.571106,321
871.688416,315
871.805664,330
871.922852,317
872.040222,314
872.157471,311
872.274719,319
872.391968,321
872.509155,316
872.626465,315
872.743652,313
872.860962,307
872.978149,325
873.095337,316
873.212646,316
873.329834,312
873.44696,316
873.564209,308
873.681396,314
873.798645,310
873.915894,315
874.03302,318
874.150208,308
874.267456,313
874.384583,313
874.501831,304
874.618958,318
874.736145,311
874.853333,299
874.970459,316
875.087646,320
875.204834,339
875.32196,311
875.439148,317
875.556274,321
875.673401,305
875.790527,336
875.907715,329
876.024841,315
876.141968,302
876.259094,321
876.376282,317
876.493347,320
876.610474,322
876.7276,321
876.844727,316
876.961853,326
877.078918,302
877.195984,315
877.313171,314
877.430237,314
877.547302,318
877.664368,312
877.781433,321
877.898499,308
878.015625,321
878.13269,315
878.249695,318
878.366821,324
878.483887,312
878.600952,310
878.717957,317
878.834961,320
878.952087,304
879.069092,320
879.186157,311
879.303162,326
879.420227,318
879.537231,313
879.654236,321
879.77124,319
879.888306,308
880.005249,327
880.122314,318
880.239319,321
880.356323,305
880.473328,317
880.590271,309
880.707275,320
880.824341,315
880.941284,328
881.058228,302
881.175232,313
881.292236,308
881.40918,323
881.526123,305
881.643066,334
881.760071,303
881.877014,304
881.993958,321
882.11084,303
882.227783,308
882.344727,318
882.46167,312
882.578613,319
882.695618,315
882.812439,322
882.929382,305
883.046326,314
883.163208,315
883.280151,308
883.397034,320
883.513916,320
883.630798,313
883.747742,315
883.864563,296
883.981506,321
884.098389,309
884.21521,311
884.332153,313
884.448975,312
884.565796,329
884.682678,309
884.7995,304
884.916443,321
885.033264,297
885.150085,313
885.266968,314
885.383789,309
885.500671,315
885.617493,318
885.734314,319
885.851196,308
885.967896,314
886.084717,329
886.201599,321
886.318359,318
886.435181,320
886.552002,322
886.668762,313
886.785645,312
886.902344,317
887.019165,315
887.135925,306
887.252747,307
887.369446,302
887.486267,324
887.603027,312
887.719788,314
887.836548,322
887.953247,330
888.070068,317
888.186829,323
888.303528,316
888.420288,317
888.536987,305
888.653687,304
888.770447,312
888.887146,311
889.003967,318
889.120667,320
889.237305,321
889.354065,322
889.470703,326
889.587463,324
889.704163,310
889.820862,316
889.937561,333
890.054199,317
890.170837,316
890.287598,316
890.404236,307
890.520874,323
890.637634,316
890.754211,304
890.87085,307
890.987549,323
891.104187,293
891.220886,321
891.337463,315
891.454102,320
891.57074,319
891.687378,312
891.804077,309
891.920654,305
892.037231,302
892.15387,314
892.270447,322
892.387085,321
892.503723,327
892.6203,306
892.736877,315
892.853516,315
892.970032,313
893.08667,335
893.203186,308
893.319763,321
893.43634,306
893.552917,331
893.669556,317
893.786011,327
893.902588,306
894.019165,311
894.135681,298
894.252197,320
894.368835,308
894.485291,317
894.601868,309
894.718384,314
894.8349,312
894.951355,312
895.067932,303
895.184448,336
895.300964,310
895.417419,327
895.533936,302
895.650452,320
895.766907,329
895.883423,312
895.999878,321
896.116333,322
896.232849,312
896.349304,317
896.465759,310
896.582214,317
896.698669,318
896.815125,319
896.931641,315
897.048035,314
897.164551,324
897.280884,312
897.397339,316
897.513794,336
897.630249,316
897.746582,314
897.863098,318
897.979431,314
898.095886,327
898.212341,298
898.328674,318
898.445129,324
898.561462,315
898.677795,296
898.794312,313
898.910645,309
899.026978,316
899.143433,318
899.259766,324
899.37616,307
899.492493,320
899.608765,327
899.725159,312
899.841553,321
899.957947,323
900.07428,331
900.190552,305
900.306946,322
900.423157,319
900.53949,312
900.655884,318
900.772156,313
900.888489,321
901.004822,318
901.121033,308
901.237366,327
901.353699,319
901.46991,318
901.586304,311
901.702515,323
901.818787,329
901.93512,323
902.051331,306
902.167603,316
902.283875,307
902.400085,323
902.516418,324
902.632629,317
902.74884,307
902.865112,308
902.981384,326
903.097595,327
903.213867,324
903.330017,316
903.446289,317
903.5625,316
903.67865,317
903.794922,317
903.911072,305
904.027344,316
904.143494,312
904.259705,307
904.375916,324
904.492065,320
904.608215,311
904.724426,306
904.840576,318
904.956726,321
905.072876,311
905.189087,306
905.305176,314
905.421387,327
905.537537,301
905.653687,306
905.769775,312
905.885925,326
906.002014,314
906.118164,319
906.234314,316
906.350403,327
906.466492,314
906.582642,326
906.69873,324
906.814758,325
906.930908,310
907.046936,310
907.163086,317
907.279175,321
907.395264,311
907.511353,326
907.62738,315
907.743408,309
907.859497,327
907.975525,330
908.091553,315
908.207703,333
908.32373,321
908.439758,330
908.555786,315
908.671814,317
908.787842,318
908.90387,314
909.019775,317
909.135864,329
909.251892,313
909.367859,324
909.483826,306
909.599854,319
909.715881,314
909.831848,304
909.947815,317
910.063782,324
910.179749,314
910.295776,317
910.411743,314
910.527649,325
910.643616,317
910.759583,295
910.875488,310
910.991455,315
911.107361,304
911.223267,321
911.339294,318
911.4552,316
911.571106,305
911.687073,317
911.802979,329
911.918823,325
912.034729,326
912.150635,325
912.266602,318
912.382446,313
912.498352,329
912.614197,323
912.730103,316
912.846008,311
792.44574,321
792.56488,355
792.68396,403
792.80304,379
792.92218,342
793.041199,307
793.160339,326
793.279419,350
793.398499,332
793.517578,326
793.636658,330
793.755737,345
793.874817,352
793.993896,345
794.112976,341
794.232056,326
794.351074,323
794.470215,321
794.589233,322
794.708313,320
794.827393,326
794.946411,338
795.065552,346
795.18457,326
795.303589,344
795.422668,326
795.541687,337
795.660767,315
795.779846,336
795.898865,327
796.017883,328
796.136963,330
796.255981,340
796.375061,323
796.49408,332
796.613037,330
796.732117,328
796.851135,353
796.970154,321
797.089233,325
797.208191,329
797.327271,329
797.446228,333
797.565186,323
797.684265,328
797.803223,350
797.922241,323
798.04126,322
798.160278,339
798.279297,330
798.398315,320
798.517273,334
798.636292,327
798.75531,329
798.874268,344
798.993286,315
799.112244,339
799.231323,323
799.350281,337
799.469238,327
799.588257,326
799.707153,323
799.826111,340
799.945129,338
800.064087,321
800.183044,333
800.302063,339
800.421021,332
800.539978,341
800.658936,321
800.777893,333
800.896912,324
801.015747,329
801.134705,328
801.253723,335
801.37262,332
801.491638,339
801.610535,322
801.729492,328
801.84845,328
801.967407,327
802.086243,321
802.205261,338
802.324158,336
802.443115,330
802.562073,335
802.680969,326
802.799927,326
802.918762,327
803.037659,332
803.156677,318
803.275574,333
803.39447,341
803.513428,318
803.632263,333
803.751221,320
803.870117,331
803.989014,329
804.107971,327
804.226746,330
804.345642,329
804.4646,323
804.583496,329
804.702393,333
804.821228,322
804.940125,330
805.059021,327
805.177917,318
805.296814,329
805.415649,338
805.534546,336
805.653442,330
805.772278,322
805.891113,334
806.01001,336
806.128906,335
806.247742,337
806.366577,335
806.485413,343
806.604309,316
806.723145,339
806.84198,332
806.960876,330
807.079712,335
807.198486,338
807.317383,326
807.436218,343
807.554993,334
807.673889,316
807.792725,329
807.91156,339
808.030396,322
808.14917,326
808.268005,336
808.386841,337
808.505676,325
808.624451,329
808.743286,323
808.862122,345
808.980896,323
809.099731,335
809.218506,332
809.337341,325
809.456116,329
809.57489,339
809.693726,334
809.8125,333
809.931274,340
810.050049,334
810.168884,349
810.287659,349
810.406372,322
810.525269,338
810.643982,329
810.762756,343
810.881531,331
811.000305,342
811.11908,337
811.237854,327
811.356567,342
811.475403,336
811.594116,334
811.71283,335
811.831604,317
811.950378,334
812.069153,321
812.187927,333
812.30658,342
812.425415,339
812.544128,341
812.662781,339
812.781616,341
812.900269,321
813.019043,337
813.137756,338
813.256531,327
813.375244,342
813.493896,340
813.612671,342
813.731384,345
813.850037,330
813.96875,328
814.087524,340
814.206238,336
814.324951,342
814.443604,339
814.562256,327
814.68103,332
814.799683,336
814.918335,345
815.037109,334
815.155762,320
815.274475,340
815.393188,334
815.511841,339
815.630554,331
815.749146,338
815.867859,334
815.986572,335
816.105164,337
816.223877,342
816.342529,333
816.461182,342
816.579895,323
816.698486,351
816.817139,342
816.935791,327
817.054504,331
817.173096,327
817.291748,320
817.4104,330
817.529053,339
817.647644,327
817.766235,331
817.884949,331
818.00354,325
818.122192,325
818.240845,317
818.359436,329
818.478088,320
818.59668,314
818.715271,338
818.833923,324
818.952515,314
819.071106,334
819.189758,329
819.30835,308
819.426941,327
819.545532,333
819.664124,328
819.782715,333
819.901306,314
820.019897,330
820.138489,311
820.25708,316
820.375671,328
820.494202,317
820.612732,336
820.731384,320
820.849915,329
820.968506,320
821.087097,339
821.205627,336
821.324158,303
821.442749,329
821.561279,327
821.679871,304
821.798401,323
821.916931,304
822.035461,333
822.154053,321
822.272583,317
822.391174,327
822.509583,316
822.628174,336
822.746704,318
822.865234,308
822.983765,314
823.102295,346
823.220825,312
823.339294,317
823.457825,319
823.576355,308
823.694824,317
823.813354,322
823.931885,319
824.050354,324
824.168884,321
824.287354,328
824.405823,315
824.524353,325
824.642822,325
824.761353,325
824.879822,315
824.998291,328
825.116699,318
825.235291,316
825.353699,322
825.472168,319
825.590637,331
825.709106,312
825.827576,322
825.946045,323
826.064453,319
826.182983,313
826.301392,328
826.4198,318
826.53833,313
826.656738,303
826.775208,334
826.893677,311
827.012024,327
827.130493,324
827.248962,323
827.36731,318
827.485779,324
827.604248,325
827.722595,321
827.841064,309
827.959412,317
828.077942,329
828.196289,315
828.314636,328
828.433105,315
828.551514,331
828.669861,311
828.78833,333
828.906677,306
829.025085,307
829.143433,316
829.261841,310
829.38031,319
829.498657,311
829.617004,312
829.735413,309
829.85376,310
829.972107,306
830.090515,316
830.208862,317
830.327209,309
830.445557,324
830.563904,322
830.682312,318
830.800659,314
830.919006,327
831.037354,303
831.155701,322
831.274048,311
831.392395,331
831.51062,324
831.629028,335
831.747314,316
831.865662,330
831.984009,314
832.102356,326
832.220642,313
832.338928,312
832.457275,320
832.575623,320
832.693909,312
832.812134,317
832.930481,303
833.048828,326
833.167114,317
833.2854,311
833.403687,313
833.521973,315
833.640259,298
833.758545,320
833.876831,318
833.995056,315
834.113281,312
834.231628,332
834.349915,319
834.468201,326
834.586426,335
834.704651,310
834.822998,314
834.941162,325
835.059448,315
835.177673,326
835.295959,318
835.414246,323
835.53241,317
835.650635,334
835.768921,312
835.887146,312
836.005371,323
836.123596,314
836.241821,313
836.360046,315
836.478271,312
836.596497,323
836.714722,324
836.832886,317
836.95105,314
837.069336,327
837.1875,316
837.305725,311
837.423889,312
837.542053,333
837.660339,316
837.778503,314
837.896667,315
838.014832,324
838.132996,325
838.25116,316
838.369385,326
838.487488,325
838.605713,321
838.723877,327
838.84198,313
838.960205,318
839.078308,324
839.196472,327
839.314636,325
839.4328,313
839.550964,315
839.669067,331
839.787231,308
839.905396,311
840.023499,320
840.141602,322
840.259766,316
840.377869,352
840.495972,317
840.614136,317
840.732239,315
840.850342,323
840.968445,318
841.086548,316
841.204651,312
841.322754,320
841.440918,319
841.55896,317
841.677002,296
841.795166,313
841.913208,318
842.031311,311
842.149353,320
842.267456,321
842.385498,313
842.503601,313
842.621643,312
842.739746,339
842.857788,314
842.97583,320
843.093933,308
843.211975,312
843.330017,324
843.44812,312
843.566101,317
843.684204,319
843.802246,323
843.920227,314
844.038269,321
844.156311,320
844.274292,322
844.392395,316
844.510376,323
844.628357,320
844.74646,319
844.864441,317
844.982422,320
845.100403,330
845.218384,308
845.336426,322
845.454468,315
845.572449,315
845.69043,320
845.808411,311
845.926453,321
846.044373,315
846.162354,320
846.280396,331
846.398315,329
846.516296,327
846.634216,310
846.752197,323
846.870178,326
846.988098,328
847.106079,312
847.22406,331
847.34198,323
847.4599,320
847.577881,327
847.695801,314
847.813782,299
847.931641,322
848.049561,333
848.167603,318
848.285461,315
848.403381,322
848.521362,298
848.639221,309
848.75708,324
848.875,322
848.99292,326
849.110901,300
849.22876,315
849.34668,310
849.464539,311
849.582458,313
849.700317,313
849.818176,318
849.936096,318
850.053955,313
850.171875,316
850.289673,322
850.407593,309
850.525452,321
850.643311,317
850.761169,324
850.878967,317
850.996887,325
851.114746,313
851.232544,319
851.350403,313
851.468262,325
851.58606,310
851.703979,332
851.821777,313
851.939636,324
852.057434,307
852.175232,320
852.293091,312
852.410889,325
852.528687,304
852.646545,321
852.764343,317
852.88208,329
852.999939,297
853.117676,311
853.235535,317
853.353271,314
853.471069,315
853.588928,312
853.706604,325
853.824402,317
853.9422,312
854.059998,326
854.177734,311
854.295532,329
854.413269,326
854.531006,312
854.648804,318
854.766541,326
854.884277,311
855.002014,323
855.119751,311
855.237549,320
855.355225,321
855.473022,325
855.590698,301
855.708435,308
855.826172,324
855.943848,327
856.061646,323
856.179321,324
856.296997,320
856.414795,316
856.53241,319
856.650085,317
856.767822,330
856.885559,318
857.003174,317
857.120911,321
857.238586,332
857.356201,312
857.473938,308
857.591614,326
857.709351,313
857.826965,331
857.944641,313
858.062317,329
858.179993,314
858.297668,316
858.415283,307
858.532959,311
858.650574,309
858.768188,303
858.885803,315
859.003479,307
859.121094,301
859.23877,314
859.356384,309
859.473999,325
859.591675,305
859.709229,336
859.826843,331
859.944458,314
860.062012,314
860.179626,323
860.297302,300
860.414856,333
860.532471,303
860.650024,328
860.767639,309
860.885193,321
861.002808,315
861.120361,332
861.237976,317
861.35553,328
861.473022,314
861.590698,313
861.708191,312
861.825745,308
861.943298,328
862.060852,315
862.178406,309
862.295959,316
862.413513,310
862.531006,318
862.64856,314
862.766113,327
862.883667,327
863.00116,325
863.118713,317
863.236206,322
863.353699,316
863.471252,326
863.588745,313
863.706177,326
863.82373,311
863.941162,313
864.058716,321
864.176208,318
864.29364,306
864.411194,321
864.528687,316
864.646118,327
864.763611,305
864.881042,330
864.998535,324
865.116028,311
865.233459,314
865.350891,316
865.468384,320
865.585754,323
865.703308,326
865.820679,319
865.938171,319
866.055542,315
866.173035,311
866.290466,326
866.407837,320
866.52533,321
866.6427,316
866.760071,321
866.877563,303
866.994934,319
867.112305,313
867.229736,327
867.347107,314
867.464539,335
867.58197,307
867.699341,304
867.81665,314
867.934082,324
868.051453,315
868.168823,330
868.286194,311
868.403564,326
868.520935,301
868.638306,301
868.755676,329
868.872986,319
868.990295,319
869.107727,318
869.225037,317
869.342346,315
869.459717,314
869.577026,309
869.694336,322
869.811707,319
869.929016,318
870.046326,315
870.163635,316
870.280945,318
870.398254,324
870.515564,316
870.632812,319
870.750183,306
870.867432,320
870.984741,314
871.102051,320
871.219299,312
871.336609,315
871.453918,316
871.571106,319
871.688416,311
871.805664,321
871.922852,333
872.040222,309
872.157471,315
872.274719,321
872.391968,314
872.509155,324
872.626465,335
872.743652,320
872.860962,319
872.978149,297
873.095337,322
873.212646,311
873.329834,316
873.44696,316
873.564209,319
873.681396,320
873.798645,320
873.915894,314
874.03302,321
874.150208,310
874.267456,313
874.384583,301
874.501831,325
874.618958,309
874.736145,314
874.853333,315
874.970459,323
875.087646,317
875.204834,330
875.32196,322
875.439148,324
875.556274,319
875.673401,325
875.790527,321
875.907715,322
876.024841,308
876.141968,320
876.259094,313
876.376282,318
876.493347,312
876.610474,307
876.7276,320
876.844727,326
876.961853,314
877.078918,332
877.195984,325
877.313171,315
877.430237,312
877.547302,321
877.664368,325
877.781433,333
877.898499,314
878.015625,323
878.13269,310
878.249695,313
878.366821,319
878.483887,325
878.600952,312
878.717957,319
878.834961,322
878.952087,314
879.069092,306
879.186157,327
879.303162,297
879.420227,316
879.537231,312
879.654236,309
879.77124,306
879.888306,326
880.005249,316
880.122314,323
880.239319,310
880.356323,322
880.473328,329
880.590271,329
880.707275,319
880.824341,320
880.941284,321
881.058228,333
881.175232,299
881.292236,314
881.40918,323
881.526123,314
881.643066,303
881.760071,315
881.877014,311
881.993958,311
882.11084,325
882.227783,325
882.344727,317
882.46167,335
882.578613,327
882.695618,315
882.812439,322
882.929382,298
883.046326,329
883.163208,311
883.280151,322
883.397034,319
883.513916,297
883.630798,313
883.747742,318
883.864563,321
883.981506,318
884.098389,326
884.21521,316
884.332153,310
884.448975,332
884.565796,313
884.682678,311
884.7995,327
884.916443,311
885.033264,304
885.150085,311
885.266968,313
885.383789,318
885.500671,321
885.617493,311
885.734314,319
885.851196,312
885.967896,310
886.084717,325
886.201599,330
886.318359,310
886.435181,315
886.552002,319
886.668762,322
886.785645,301
886.902344,316
887.019165,308
887.135925,320
887.252747,306
887.369446,318
887.486267,315
887.603027,322
887.719788,317
887.836548,329
887.953247,320
888.070068,315
888.186829,301
888.303528,322
888.420288,320
888.536987,316
888.653687,308
888.770447,308
888.887146,318
889.003967,313
889.120667,312
889.237305,324
889.354065,311
889.470703,317
889.587463,309
889.704163,313
889.820862,331
889.937561,312
890.054199,316
890.170837,311
890.287598,316
890.404236,325
890.520874,313
890.637634,320
890.754211,314
890.87085,335
890.987549,322
891.104187,319
891.220886,329
891.337463,324
891.454102,310
891.57074,319
891.687378,302
891.804077,318
891.920654,310
892.037231,328
892.15387,318
892.270447,322
892.387085,331
892.503723,308
892.6203,308
892.736877,310
892.853516,323
892.970032,331
893.08667,314
893.203186,330
893.319763,309
893.43634,315
893.552917,307
893.669556,309
893.786011,326
893.902588,314
894.019165,317
894.135681,321
894.252197,299
894.368835,325
894.485291,309
894.601868,312
894.718384,318
894.8349,307
894.951355,313
895.067932,321
895.184448,313
895.300964,312
895.417419,320
895.533936,313
895.650452,326
895.766907,319
895.883423,311
895.999878,327
896.116333,319
896.232849,323
896.349304,294
896.465759,319
896.582214,316
896.698669,315
896.815125,314
896.931641,308
897.048035,324
897.164551,314
897.280884,319
897.397339,319
897.513794,320
897.630249,331
897.746582,299
897.863098,320
897.979431,322
898.095886,317
898.212341,311
898.328674,317
898.445129,326
898.561462,322
898.677795,310
898.794312,325
898.910645,305
899.026978,309
899.143433,319
899.259766,310
899.37616,323
899.492493,306
899.608765,328
899.725159,317
899.841553,323
899.957947,322
900.07428,317
900.190552,315
900.306946,313
900.423157,324
900.53949,314
900.655884,312
900.772156,320
900.888489,325
901.004822,318
901.121033,325
901.237366,311
901.353699,324
901.46991,316
901.586304,320
901.702515,319
901.818787,310
901.93512,314
902.051331,330
902.167603,320
902.283875,330
902.400085,319
902.516418,309
902.632629,312
902.74884,340
902.865112,316
902.981384,318
903.097595,327
903.213867,313
903.330017,319
903.446289,328
903.5625,308
903.67865,327
903.794922,309
903.911072,323
904.027344,302
904.143494,326
904.259705,321
904.375916,330
904.492065,323
904.608215,305
904.724426,298
904.840576,333
904.956726,321
905.072876,330
905.189087,311
905.305176,313
905.421387,314
905.537537,321
905.653687,311
905.769775,332
905.885925,311
906.002014,311
906.118164,322
906.234314,335
906.350403,319
906.466492,318
906.582642,316
906.69873,337
906.814758,317
906.930908,317
907.046936,316
907.163086,322
907.279175,310
907.395264,325
907.511353,313
907.62738,331
907.743408,313
907.859497,326
907.975525,317
908.091553,330
908.207703,315
908.32373,335
908.439758,316
908.555786,318
908.671814,333
908.787842,325
908.90387,313
909.019775,332
909.135864,308
909.251892,332
909.367859,317
909.483826,312
909.599854,314
909.715881,320
909.831848,309
909.947815,309
910.063782,313
910.179749,318
910.295776,313
910.411743,312
910.527649,308
910.643616,331
910.759583,310
910.875488,326
910.991455,305
911.107361,329
911.223267,311
911.339294,323
911.4552,307
911.571106,330
911.687073,315
911.802979,336
911.918823,313
912.034729,319
912.150635,326
912.266602,327
912.382446,310
912.498352,327
912.614197,311
912.730103,316
912.846008,303
