792.44574,321
792.56488,353
792.68396,391
792.80304,366
792.92218,343
793.041199,306
793.160339,321
793.279419,344
793.398499,322
793.517578,314
793.636658,317
793.755737,349
793.874817,349
793.993896,328
794.112976,336
794.232056,327
794.351074,330
794.470215,337
794.589233,321
794.708313,323
794.827393,330
794.946411,327
795.065552,345
795.18457,332
795.303589,323
795.422668,323
795.541687,334
795.660767,342
795.779846,329
795.898865,314
796.017883,323
796.136963,329
796.255981,333
796.375061,338
796.49408,327
796.613037,337
796.732117,318
796.851135,333
796.970154,322
797.089233,332
797.208191,327
797.327271,316
797.446228,322
797.565186,328
797.684265,337
797.803223,327
797.922241,316
798.04126,334
798.160278,330
798.279297,328
798.398315,335
798.517273,322
798.636292,335
798.75531,339
798.874268,329
798.993286,322
799.112244,330
799.231323,329
799.350281,316
799.469238,338
799.588257,332
799.707153,332
799.826111,327
799.945129,339
800.064087,331
800.183044,323
800.302063,329
800.421021,328
800.539978,320
800.658936,338
800.777893,337
800.896912,334
801.015747,334
801.134705,330
801.253723,322
801.37262,324
801.491638,341
801.610535,333
801.729492,333
801.84845,339
801.967407,331
802.086243,334
802.205261,326
802.324158,314
802.443115,323
802.562073,323
802.680969,318
802.799927,332
802.918762,329
803.037659,332
803.156677,332
803.275574,319
803.39447,332
803.513428,326
803.632263,324
803.751221,330
803.870117,316
803.989014,333
804.107971,332
804.226746,328
804.345642,336
804.4646,316
804.583496,343
804.702393,325
804.821228,335
804.940125,332
805.059021,328
805.177917,344
805.296814,331
805.415649,320
805.534546,326
805.653442,326
805.772278,328
805.891113,334
806.01001,316
806.128906,327
806.247742,323
806.366577,326
806.485413,330
806.604309,334
806.723145,350
806.84198,326
806.960876,328
807.079712,324
807.198486,330
807.317383,321
807.436218,329
807.554993,340
807.673889,335
807.792725,327
807.91156,329
808.030396,334
808.14917,329
808.268005,337
808.386841,337
808.505676,327
808.624451,335
808.743286,337
808.862122,324
808.980896,329
809.099731,320
809.218506,329
809.337341,330
809.456116,323
809.57489,330
809.693726,339
809.8125,348
809.931274,331
810.050049,355
810.168884,312
810.287659,334
810.406372,332
810.525269,318
810.643982,329
810.762756,336
810.881531,330
811.000305,336
811.11908,327
811.237854,322
811.356567,344
811.475403,324
811.594116,337
811.71283,336
811.831604,328
811.950378,344
812.069153,335
812.187927,327
812.30658,339
812.425415,340
812.544128,331
812.662781,341
812.781616,340
812.900269,328
813.019043,336
813.137756,335
813.256531,328
813.375244,328
813.493896,327
813.612671,332
813.731384,334
813.850037,340
813.96875,324
814.087524,324
814.206238,344
814.324951,331
814.443604,327
814.562256,336
814.68103,320
814.799683,339
814.918335,321
815.037109,341
815.155762,330
815.274475,335
815.393188,325
815.511841,348
815.630554,335
815.749146,319
815.867859,325
815.986572,328
816.105164,320
816.223877,352
816.342529,329
816.461182,343
816.579895,341
816.698486,339
816.817139,336
816.935791,353
817.054504,329
817.173096,322
817.291748,334
817.4104,318
817.529053,335
817.647644,339
817.766235,313
817.884949,340
818.00354,320
818.122192,335
818.240845,327
818.359436,332
818.478088,327
818.59668,323
818.715271,334
818.833923,325
818.952515,335
819.071106,316
819.189758,330
819.30835,314
819.426941,321
819.545532,311
819.664124,325
819.782715,319
819.901306,325
820.019897,326
820.138489,309
820.25708,334
820.375671,311
820.494202,325
820.612732,329
820.731384,323
820.849915,316
820.968506,318
821.087097,321
821.205627,323
821.324158,314
821.442749,306
821.561279,314
821.679871,317
821.798401,317
821.916931,329
822.035461,320
822.154053,323
822.272583,320
822.391174,321
822.509583,310
822.628174,313
822.746704,313
822.865234,324
822.983765,297
823.102295,320
823.220825,307
823.339294,329
823.457825,319
823.576355,316
823.694824,321
823.813354,308
823.931885,313
824.050354,324
824.168884,329
824.287354,302
824.405823,336
824.524353,319
824.642822,330
824.761353,325
824.879822,313
824.998291,331
825.116699,314
825.235291,309
825.353699,319
825.472168,318
825.590637,322
825.709106,312
825.827576,311
825.946045,312
826.064453,313
826.182983,332
826.301392,318
826.4198,324
826.53833,311
826.656738,324
826.775208,311
826.893677,322
827.012024,310
827.130493,321
827.248962,316
827.36731,325
827.485779,314
827.604248,311
827.722595,321
827.841064,327
827.959412,319
828.077942,324
828.196289,323
828.314636,315
828.433105,322
828.551514,313
828.669861,311
828.78833,322
828.906677,321
829.025085,315
829.143433,309
829.261841,325
829.38031,320
829.498657,316
829.617004,305
829.735413,324
829.85376,318
829.972107,324
830.090515,300
830.208862,324
830.327209,311
830.445557,324
830.563904,318
830.682312,319
830.800659,310
830.919006,322
831.037354,323
831.155701,320
831.274048,317
831.392395,323
831.51062,312
831.629028,320
831.747314,309
831.865662,321
831.984009,303
832.102356,317
832.220642,321
832.338928,326
832.457275,323
832.575623,330
832.693909,308
832.812134,319
832.930481,301
833.048828,320
833.167114,306
833.2854,321
833.403687,329
833.521973,311
833.640259,315
833.758545,302
833.876831,310
833.995056,302
834.113281,324
834.231628,312
834.349915,318
834.468201,324
834.586426,320
834.704651,325
834.822998,320
834.941162,300
835.059448,311
835.177673,325
835.295959,309
835.414246,329
835.53241,317
835.650635,318
835.768921,314
835.887146,312
836.005371,315
836.123596,315
836.241821,321
836.360046,326
836.478271,317
836.596497,309
836.714722,306
836.832886,321
836.95105,325
837.069336,327
837.1875,306
837.305725,313
837.423889,322
837.542053,305
837.660339,326
837.778503,326
837.896667,306
838.014832,324
838.132996,323
838.25116,321
838.369385,315
838.487488,316
838.605713,319
838.723877,319
838.84198,319
838.960205,311
839.078308,315
839.196472,330
839.314636,329
839.4328,335
839.550964,318
839.669067,310
839.787231,315
839.905396,321
840.023499,307
840.141602,309
840.259766,323
840.377869,328
840.495972,309
840.614136,306
840.732239,305
840.850342,317
840.968445,311
841.086548,322
841.204651,312
841.322754,321
841.440918,312
841.55896,328
841.677002,316
841.795166,322
841.913208,317
842.031311,318
842.149353,303
842.267456,321
842.385498,313
842.503601,327
842.621643,311
842.739746,329
842.857788,313
842.97583,325
843.093933,326
843.211975,299
843.330017,318
843.44812,326
843.566101,320
843.684204,313
843.802246,302
843.920227,318
844.038269,307
844.156311,332
844.274292,316
844.392395,319
844.510376,320
844.628357,314
844.74646,313
844.864441,319
844.982422,307
845.100403,326
845.218384,312
845.336426,322
845.454468,317
845.572449,312
845.69043,315
845.808411,328
845.926453,314
846.044373,313
846.162354,298
846.280396,320
846.398315,307
846.516296,319
846.634216,302
846.752197,310
846.870178,314
846.988098,317
847.106079,305
847.22406,318
847.34198,312
847.4599,315
847.577881,318
847.695801,320
847.813782,315
847.931641,322
848.049561,308
848.167603,325
848.285461,313
848.403381,324
848.521362,319
848.639221,325
848.75708,303
848.875,323
848.99292,318
849.110901,322
849.22876,314
849.34668,320
849.464539,320
849.582458,322
849.700317,315
849.818176,319
849.936096,326
850.053955,322
850.171875,312
850.289673,314
850.407593,306
850.525452,320
850.643311,314
850.761169,316
850.878967,308
850.996887,330
851.114746,313
851.232544,314
851.350403,317
851.468262,301
851.58606,311
851.703979,314
851.821777,307
851.939636,316
852.057434,305
852.175232,329
852.293091,319
852.410889,316
852.528687,304
852.646545,320
852.764343,312
852.88208,305
852.999939,322
853.117676,326
853.235535,309
853.353271,313
853.471069,313
853.588928,329
853.706604,312
853.824402,305
853.9422,306
854.059998,329
854.177734,313
854.295532,316
854.413269,306
854.531006,316
854.648804,313
854.766541,308
854.884277,317
855.002014,320
855.119751,319
855.237549,312
855.355225,308
855.473022,317
855.590698,306
855.708435,315
855.826172,318
855.943848,328
856.061646,306
856.179321,311
856.296997,308
856.414795,323
856.53241,308
856.650085,312
856.767822,317
856.885559,310
857.003174,306
857.120911,308
857.238586,309
857.356201,328
857.473938,307
857.591614,309
857.709351,325
857.826965,316
857.944641,303
858.062317,313
858.179993,307
858.297668,328
858.415283,314
858.532959,318
858.650574,315
858.768188,320
858.885803,315
859.003479,313
859.121094,304
859.23877,333
859.356384,323
859.473999,333
859.591675,313
859.709229,311
859.826843,316
859.944458,317
860.062012,309
860.179626,333
860.297302,308
860.414856,304
860.532471,307
860.650024,322
860.767639,308
860.885193,323
861.002808,324
861.120361,319
861.237976,309
861.35553,328
861.473022,316
861.590698,315
861.708191,316
861.825745,317
861.943298,308
862.060852,309
862.178406,308
862.295959,316
862.413513,311
862.531006,326
862.64856,308
862.766113,313
862.883667,312
863.00116,322
863.118713,309
863.236206,313
863.353699,324
863.471252,311
863.588745,322
863.706177,309
863.82373,310
863.941162,303
864.058716,305
864.176208,303
864.29364,315
864.411194,327
864.528687,313
864.646118,305
864.763611,310
864.881042,317
864.998535,321
865.116028,318
865.233459,304
865.350891,322
865.468384,308
865.585754,310
865.703308,302
865.820679,315
865.938171,311
866.055542,312
866.173035,323
866.290466,319
866.407837,301
866.52533,326
866.6427,304
866.760071,331
866.877563,317
866.994934,316
867.112305,316
867.229736,328
867.347107,313
867.464539,315
867.58197,309
867.699341,316
867.81665,327
867.934082,325
868.051453,307
868.168823,319
868.286194,315
868.403564,308
868.520935,306
868.638306,313
868.755676,317
868.872986,324
868.990295,314
869.107727,320
869.225037,315
869.342346,322
869.459717,317
869.577026,319
869.694336,317
869.811707,325
869.929016,318
870.046326,310
870.163635,319
870.280945,308
870.398254,308
870.515564,308
870.632812,306
870.750183,321
870.867432,318
870.984741,308
871.102051,313
871.219299,319
871.336609,312
871.453918,303
871.571106,318
871.688416,325
871.805664,317
871.922852,321
872.040222,316
872.157471,325
872.274719,309
872.391968,327
872.509155,314
872.626465,321
872.743652,313
872.860962,325
872.978149,311
873.095337,317
873.212646,315
873.329834,310
873.44696,313
873.564209,319
873.681396,321
873.798645,311
873.915894,315
874.03302,322
874.150208,323
874.267456,307
874.384583,305
874.501831,328
874.618958,303
874.736145,310
874.853333,313
874.970459,317
875.087646,313
875.204834,316
875.32196,312
875.439148,309
875.556274,316
875.673401,321
875.790527,313
875.907715,318
876.024841,310
876.141968,307
876.259094,300
876.376282,331
876.493347,310
876.610474,325
876.7276,321
876.844727,316
876.961853,303
877.078918,323
877.195984,301
877.313171,310
877.430237,326
877.547302,338
877.664368,317
877.781433,321
877.898499,312
878.015625,323
878.13269,309
878.249695,334
878.366821,320
878.483887,315
878.600952,319
878.717957,313
878.834961,304
878.952087,310
879.069092,307
879.186157,312
879.303162,324
879.420227,326
879.537231,316
879.654236,316
879.77124,323
879.888306,324
880.005249,298
880.122314,320
880.239319,312
880.356323,315
880.473328,317
880.590271,315
880.707275,318
880.824341,314
880.941284,317
881.058228,325
881.175232,317
881.292236,315
881.40918,305
881.526123,313
881.643066,316
881.760071,329
881.877014,311
881.993958,303
882.11084,319
882.227783,316
882.344727,312
882.46167,327
882.578613,312
882.695618,322
882.812439,308
882.929382,321
883.046326,311
883.163208,319
883.280151,305
883.397034,300
883.513916,305
883.630798,317
883.747742,317
883.864563,318
883.981506,309
884.098389,326
884.21521,315
884.332153,317
884.448975,321
884.565796,317
884.682678,303
884.7995,318
884.916443,319
885.033264,323
885.150085,306
885.266968,315
885.383789,311
885.500671,307
885.617493,325
885.734314,334
885.851196,316
885.967896,323
886.084717,315
886.201599,325
886.318359,316
886.435181,325
886.552002,306
886.668762,314
886.785645,314
886.902344,331
887.019165,305
887.135925,318
887.252747,318
887.369446,326
887.486267,313
887.603027,318
887.719788,309
887.836548,314
887.953247,322
888.070068,328
888.186829,311
888.303528,335
888.420288,311
888.536987,316
888.653687,306
888.770447,323
888.887146,318
889.003967,323
889.120667,312
889.237305,323
889.354065,319
889.470703,322
889.587463,319
889.704163,325
889.820862,319
889.937561,325
890.054199,312
890.170837,317
890.287598,331
890.404236,325
890.520874,309
890.637634,313
890.754211,310
890.87085,318
890.987549,312
891.104187,328
891.220886,320
891.337463,318
891.454102,312
891.57074,320
891.687378,307
891.804077,326
891.920654,314
892.037231,324
892.15387,293
892.270447,324
892.387085,311
892.503723,319
892.6203,313
892.736877,307
892.853516,306
892.970032,310
893.08667,324
893.203186,318
893.319763,312
893.43634,319
893.552917,321
893.669556,315
893.786011,316
893.902588,329
894.019165,322
894.135681,317
894.252197,314
894.368835,327
894.485291,315
894.601868,320
894.718384,328
894.8349,319
894.951355,305
895.067932,326
895.184448,307
895.300964,310
895.417419,328
895.533936,309
895.650452,310
895.766907,334
895.883423,314
895.999878,311
896.116333,310
896.232849,313
896.349304,317
896.465759,327
896.582214,317
896.698669,330
896.815125,302
896.931641,330
897.048035,314
897.164551,319
897.280884,311
897.397339,325
897.513794,311
897.630249,308
897.746582,311
897.863098,295
897.979431,317
898.095886,327
898.212341,314
898.328674,327
898.445129,311
898.561462,317
898.677795,317
898.794312,328
898.910645,318
899.026978,303
899.143433,314
899.259766,314
899.37616,303
899.492493,324
899.608765,313
899.725159,311
899.841553,323
899.957947,318
900.07428,327
900.190552,317
900.306946,318
900.423157,326
900.53949,313
900.655884,303
900.772156,324
900.888489,307
901.004822,315
901.121033,330
901.237366,303
901.353699,318
901.46991,313
901.586304,319
901.702515,320
901.818787,313
901.93512,319
902.051331,327
902.167603,325
902.283875,321
902.400085,306
902.516418,326
902.632629,313
902.74884,321
902.865112,306
902.981384,315
903.097595,315
903.213867,309
903.330017,316
903.446289,320
903.5625,319
903.67865,325
903.794922,316
903.911072,326
904.027344,311
904.143494,320
904.259705,317
904.375916,316
904.492065,315
904.608215,317
904.724426,307
904.840576,335
904.956726,312
905.072876,316
905.189087,310
905.305176,320
905.421387,310
905.537537,320
905.653687,324
905.769775,325
905.885925,308
906.002014,321
906.118164,316
906.234314,327
906.350403,312
906.466492,314
906.582642,317
906.69873,312
906.814758,303
906.930908,324
907.046936,302
907.163086,333
907.279175,317
907.395264,319
907.511353,316
907.62738,316
907.743408,312
907.859497,328
907.975525,314
908.091553,305
908.207703,327
908.32373,314
908.439758,317
908.555786,319
908.671814,325
908.787842,319
908.90387,300
909.019775,317
909.135864,311
909.251892,322
909.367859,308
909.483826,312
909.599854,312
909.715881,326
909.831848,319
909.947815,315
910.063782,324
910.179749,325
910.295776,309
910.411743,309
910.527649,317
910.643616,325
910.759583,302
910.875488,318
910.991455,327
911.107361,320
911.223267,318
911.339294,305
911.4552,325
911.571106,317
911.687073,323
911.802979,323
911.918823,318
912.034729,310
912.150635,313
912.266602,323
912.382446,322
912.498352,312
912.614197,299
912.730103,317
912.846008,315
792.44574,319
792.56488,322
792.68396,403
792.80304,367
792.92218,338
793.041199,301
793.160339,331
793.279419,324
793.398499,329
793.517578,313
793.636658,316
793.755737,345
793.874817,345
793.993896,335
794.112976,342
794.232056,320
794.351074,326
794.470215,330
794.589233,343
794.708313,314
794.827393,320
794.946411,327
795.065552,327
795.18457,343
795.303589,329
795.422668,330
795.541687,322
795.660767,336
795.779846,328
795.898865,318
796.017883,320
796.136963,338
796.255981,337
796.375061,337
796.49408,334
796.613037,333
796.732117,335
796.851135,323
796.970154,328
797.089233,335
797.208191,326
797.327271,322
797.446228,343
797.565186,324
797.684265,329
797.803223,323
797.922241,331
798.04126,329
798.160278,338
798.279297,326
798.398315,333
798.517273,332
798.636292,335
798.75531,330
798.874268,332
798.993286,334
799.112244,329
799.231323,332
799.350281,329
799.469238,326
799.588257,333
799.707153,334
799.826111,324
799.945129,334
800.064087,316
800.183044,326
800.302063,324
800.421021,329
800.539978,321
800.658936,315
800.777893,318
800.896912,327
801.015747,314
801.134705,332
801.253723,343
801.37262,340
801.491638,323
801.610535,336
801.729492,323
801.84845,337
801.967407,323
802.086243,349
802.205261,316
802.324158,320
802.443115,331
802.562073,342
802.680969,324
802.799927,329
802.918762,323
803.037659,317
803.156677,333
803.275574,338
803.39447,335
803.513428,340
803.632263,329
803.751221,336
803.870117,319
803.989014,341
804.107971,325
804.226746,327
804.345642,339
804.4646,325
804.583496,332
804.702393,333
804.821228,334
804.940125,328
805.059021,330
805.177917,318
805.296814,335
805.415649,323
805.534546,326
805.653442,324
805.772278,336
805.891113,324
806.01001,337
806.128906,341
806.247742,317
806.366577,325
806.485413,341
806.604309,330
806.723145,336
806.84198,328
806.960876,340
807.079712,330
807.198486,329
807.317383,336
807.436218,332
807.554993,326
807.673889,320
807.792725,330
807.91156,330
808.030396,334
808.14917,321
808.268005,328
808.386841,318
808.505676,326
808.624451,324
808.743286,326
808.862122,333
808.980896,339
809.099731,338
809.218506,329
809.337341,329
809.456116,329
809.57489,316
809.693726,349
809.8125,315
809.931274,321
810.050049,345
810.168884,340
810.287659,327
810.406372,328
810.525269,334
810.643982,322
810.762756,338
810.881531,329
811.000305,334
811.11908,343
811.237854,329
811.356567,319
811.475403,333
811.594116,330
811.71283,327
811.831604,333
811.950378,328
812.069153,332
812.187927,338
812.30658,330
812.425415,332
812.544128,344
812.662781,326
812.781616,338
812.900269,331
813.019043,344
813.137756,333
813.256531,319
813.375244,336
813.493896,329
813.612671,328
813.731384,342
813.850037,327
813.96875,333
814.087524,336
814.206238,329
814.324951,335
814.443604,332
814.562256,335
814.68103,333
814.799683,324
814.918335,335
815.037109,341
815.155762,333
815.274475,328
815.393188,326
815.511841,329
815.630554,330
815.749146,317
815.867859,329
815.986572,329
816.105164,322
816.223877,343
816.342529,321
816.461182,324
816.579895,340
816.698486,342
816.817139,330
816.935791,340
817.054504,327
817.173096,328
817.291748,340
817.4104,330
817.529053,322
817.647644,338
817.766235,325
817.884949,336
818.00354,319
818.122192,316
818.240845,320
818.359436,317
818.478088,328
818.59668,318
818.715271,333
818.833923,329
818.952515,323
819.071106,324
819.189758,327
819.30835,314
819.426941,308
819.545532,320
819.664124,317
819.782715,337
819.901306,325
820.019897,323
820.138489,321
820.25708,326
820.375671,319
820.494202,328
820.612732,324
820.731384,331
820.849915,318
820.968506,328
821.087097,320
821.205627,321
821.324158,326
821.442749,317
821.561279,314
821.679871,342
821.798401,318
821.916931,327
822.035461,320
822.154053,328
822.272583,327
822.391174,314
822.509583,327
822.628174,310
822.746704,309
822.865234,325
822.983765,311
823.102295,310
823.220825,318
823.339294,315
823.457825,320
823.576355,302
823.694824,327
823.813354,316
823.931885,314
824.050354,325
824.168884,326
824.287354,314
824.405823,322
824.524353,308
824.642822,319
824.761353,320
824.879822,317
824.998291,310
825.116699,332
825.235291,317
825.353699,331
825.472168,317
825.590637,320
825.709106,322
825.827576,327
825.946045,316
826.064453,327
826.182983,309
826.301392,321
826.4198,309
826.53833,324
826.656738,310
826.775208,328
826.893677,315
827.012024,326
827.130493,315
827.248962,312
827.36731,311
827.485779,325
827.604248,308
827.722595,324
827.841064,316
827.959412,318
828.077942,327
828.196289,303
828.314636,330
828.433105,302
828.551514,320
828.669861,316
828.78833,319
828.906677,311
829.025085,324
829.143433,315
829.261841,324
829.38031,308
829.498657,318
829.617004,316
829.735413,306
829.85376,315
829.972107,313
830.090515,313
830.208862,316
830.327209,317
830.445557,319
830.563904,311
830.682312,306
830.800659,305
830.919006,315
831.037354,315
831.155701,314
831.274048,301
831.392395,306
831.51062,321
831.629028,313
831.747314,324
831.865662,315
831.984009,320
832.102356,316
832.220642,314
832.338928,320
832.457275,316
832.575623,320
832.693909,319
832.812134,314
832.930481,320
833.048828,314
833.167114,309
833.2854,307
833.403687,316
833.521973,311
833.640259,312
833.758545,316
833.876831,315
833.995056,319
834.113281,312
834.231628,317
834.349915,317
834.468201,317
834.586426,330
834.704651,319
834.822998,311
834.941162,324
835.059448,311
835.177673,302
835.295959,319
835.414246,306
835.53241,322
835.650635,312
835.768921,327
835.887146,308
836.005371,314
836.123596,313
836.241821,323
836.360046,320
836.478271,328
836.596497,312
836.714722,326
836.832886,313
836.95105,316
837.069336,316
837.1875,324
837.305725,326
837.423889,309
837.542053,320
837.660339,314
837.778503,324
837.896667,324
838.014832,320
838.132996,304
838.25116,325
838.369385,304
838.487488,321
838.605713,307
838.723877,327
838.84198,323
838.960205,320
839.078308,315
839.196472,312
839.314636,312
839.4328,314
839.550964,326
839.669067,309
839.787231,316
839.905396,323
840.023499,313
840.141602,315
840.259766,316
840.377869,316
840.495972,314
840.614136,322
840.732239,315
840.850342,311
840.968445,323
841.086548,322
841.204651,306
841.322754,311
841.440918,315
841.55896,313
841.677002,313
841.795166,307
841.913208,318
842.031311,302
842.149353,314
842.267456,327
842.385498,328
842.503601,319
842.621643,312
842.739746,314
842.857788,318
842.97583,307
843.093933,317
843.211975,317
843.330017,309
843.44812,319
843.566101,324
843.684204,311
843.802246,309
843.920227,306
844.038269,318
844.156311,308
844.274292,307
844.392395,314
844.510376,303
844.628357,318
844.74646,320
844.864441,316
844.982422,295
845.100403,326
845.218384,320
845.336426,310
845.454468,309
845.572449,300
845.69043,315
845.808411,305
845.926453,324
846.044373,318
846.162354,309
846.280396,320
846.398315,323
846.516296,303
846.634216,305
846.752197,319
846.870178,309
846.988098,321
847.106079,304
847.22406,310
847.34198,314
847.4599,315
847.577881,320
847.695801,320
847.813782,302
847.931641,325
848.049561,305
848.167603,309
848.285461,320
848.403381,314
848.521362,314
848.639221,297
848.75708,314
848.875,320
848.99292,308
849.110901,317
849.22876,306
849.34668,321
849.464539,319
849.582458,303
849.700317,318
849.818176,305
849.936096,322
850.053955,308
850.171875,293
850.289673,323
850.407593,315
850.525452,318
850.643311,323
850.761169,301
850.878967,315
850.996887,301
851.114746,321
851.232544,317
851.350403,319
851.468262,315
851.58606,316
851.703979,315
851.821777,316
851.939636,314
852.057434,313
852.175232,303
852.293091,307
852.410889,318
852.528687,308
852.646545,315
852.764343,313
852.88208,306
852.999939,314
853.117676,318
853.235535,311
853.353271,322
853.471069,318
853.588928,316
853.706604,304
853.824402,319
853.9422,298
854.059998,335
854.177734,312
854.295532,315
854.413269,322
854.531006,299
854.648804,324
854.766541,306
854.884277,322
855.002014,327
855.119751,321
855.237549,313
855.355225,323
855.473022,303
855.590698,318
855.708435,322
855.826172,318
855.943848,306
856.061646,301
856.179321,321
856.296997,309
856.414795,308
856.53241,313
856.650085,294
856.767822,320
856.885559,309
857.003174,315
857.120911,310
857.238586,317
857.356201,313
857.473938,317
857.591614,331
857.709351,309
857.826965,316
857.944641,324
858.062317,316
858.179993,321
858.297668,320
858.415283,314
858.532959,326
858.650574,317
858.768188,326
858.885803,315
859.003479,303
859.121094,318
859.23877,299
859.356384,317
859.473999,314
859.591675,306
859.709229,300
859.826843,321
859.944458,321
860.062012,338
860.179626,314
860.297302,315
860.414856,302
860.532471,311
860.650024,322
860.767639,312
860.885193,299
861.002808,322
861.120361,310
861.237976,313
861.35553,313
861.473022,323
861.590698,319
861.708191,314
861.825745,337
861.943298,320
862.060852,319
862.178406,315
862.295959,316
862.413513,307
862.531006,313
862.64856,313
862.766113,312
862.883667,317
863.00116,313
863.118713,308
863.236206,311
863.353699,313
863.471252,312
863.588745,319
863.706177,325
863.82373,321
863.941162,317
864.058716,309
864.176208,311
864.29364,310
864.411194,324
864.528687,314
864.646118,310
864.763611,311
864.881042,297
864.998535,326
865.116028,317
865.233459,311
865.350891,303
865.468384,317
865.585754,310
865.703308,305
865.820679,326
865.938171,314
866.055542,330
866.173035,307
866.290466,312
866.407837,319
866.52533,317
866.6427,313
866.760071,299
866.877563,307
866.994934,322
867.112305,306
867.229736,331
867.347107,334
867.464539,304
867.58197,311
867.699341,315
867.81665,316
867.934082,313
868.051453,317
868.168823,320
868.286194,310
868.403564,314
868.520935,320
868.638306,312
868.755676,317
868.872986,315
868.990295,321
869.107727,306
869.225037,317
869.342346,306
869.459717,322
869.577026,311
869.694336,314
869.811707,323
869.929016,317
870.046326,313
870.163635,298
870.280945,303
870.398254,318
870.515564,310
870.632812,318
870.750183,319
870.867432,305
870.984741,316
871.102051,315
871.219299,309
871.336609,301
871.453918,327
871.571106,320
871.688416,328
871.805664,307
871.922852,319
872.040222,329
872.157471,298
872.274719,318
872.391968,327
872.509155,304
872.626465,318
872.743652,316
872.860962,329
872.978149,315
873.095337,302
873.212646,325
873.329834,309
873.44696,316
873.564209,316
873.681396,314
873.798645,316
873.915894,328
874.03302,322
874.150208,303
874.267456,315
874.384583,315
874.501831,317
874.618958,319
874.736145,309
874.853333,310
874.970459,322
875.087646,313
875.204834,311
875.32196,317
875.439148,326
875.556274,312
875.673401,312
875.790527,310
875.907715,323
876.024841,308
876.141968,314
876.259094,311
876.376282,308
876.493347,331
876.610474,305
876.7276,311
876.844727,309
876.961853,320
877.078918,307
877.195984,309
877.313171,307
877.430237,325
877.547302,321
877.664368,333
877.781433,316
877.898499,309
878.015625,324
878.13269,313
878.249695,310
878.366821,315
878.483887,301
878.600952,320
878.717957,327
878.834961,318
878.952087,298
879.069092,314
879.186157,308
879.303162,322
879.420227,309
879.537231,310
879.654236,317
879.77124,325
879.888306,319
880.005249,331
880.122314,309
880.239319,311
880.356323,308
880.473328,317
880.590271,302
880.707275,316
880.824341,321
880.941284,296
881.058228,313
881.175232,320
881.292236,314
881.40918,312
881.526123,314
881.643066,312
881.760071,310
881.877014,315
881.993958,328
882.11084,308
882.227783,308
882.344727,326
882.46167,300
882.578613,324
882.695618,312
882.812439,318
882.929382,302
883.046326,318
883.163208,316
883.280151,313
883.397034,311
883.513916,317
883.630798,319
883.747742,303
883.864563,309
883.981506,326
884.098389,323
884.21521,317
884.332153,321
884.448975,318
884.565796,308
884.682678,328
884.7995,308
884.916443,318
885.033264,307
885.150085,329
885.266968,323
885.383789,312
885.500671,307
885.617493,313
885.734314,315
885.851196,316
885.967896,325
886.084717,332
886.201599,302
886.318359,310
886.435181,317
886.552002,317
886.668762,322
886.785645,312
886.902344,313
887.019165,326
887.135925,315
887.252747,311
887.369446,311
887.486267,306
887.603027,311
887.719788,324
887.836548,318
887.953247,314
888.070068,330
888.186829,324
888.303528,304
888.420288,306
888.536987,318
888.653687,317
888.770447,315
888.887146,315
889.003967,306
889.120667,309
889.237305,311
889.354065,313
889.470703,309
889.587463,321
889.704163,306
889.820862,321
889.937561,323
890.054199,311
890.170837,326
890.287598,312
890.404236,317
890.520874,322
890.637634,305
890.754211,301
890.87085,315
890.987549,318
891.104187,329
891.220886,320
891.337463,301
891.454102,311
891.57074,325
891.687378,316
891.804077,314
891.920654,325
892.037231,298
892.15387,331
892.270447,329
892.387085,310
892.503723,313
892.6203,318
892.736877,310
892.853516,315
892.970032,312
893.08667,315
893.203186,312
893.319763,330
893.43634,308
893.552917,297
893.669556,306
893.786011,315
893.902588,319
894.019165,308
894.135681,319
894.252197,322
894.368835,313
894.485291,326
894.601868,310
894.718384,329
894.8349,316
894.951355,326
895.067932,320
895.184448,321
895.300964,320
895.417419,309
895.533936,308
895.650452,316
895.766907,320
895.883423,317
895.999878,314
896.116333,311
896.232849,323
896.349304,318
896.465759,312
896.582214,300
896.698669,328
896.815125,320
896.931641,315
897.048035,321
897.164551,321
897.280884,314
897.397339,305
897.513794,316
897.630249,301
897.746582,317
897.863098,303
897.979431,306
898.095886,308
898.212341,321
898.328674,322
898.445129,306
898.561462,318
898.677795,318
898.794312,314
898.910645,334
899.026978,298
899.143433,309
899.259766,301
899.37616,312
899.492493,317
899.608765,318
899.725159,313
899.841553,324
899.957947,311
900.07428,321
900.190552,326
900.306946,307
900.423157,319
900.53949,307
900.655884,314
900.772156,315
900.888489,318
901.004822,317
901.121033,313
901.237366,312
901.353699,305
901.46991,323
901.586304,312
901.702515,307
901.818787,309
901.93512,314
902.051331,309
902.167603,310
902.283875,301
902.400085,321
902.516418,320
902.632629,322
902.74884,315
902.865112,330
902.981384,318
903.097595,314
903.213867,328
903.330017,315
903.446289,301
903.5625,326
903.67865,305
903.794922,314
903.911072,304
904.027344,316
904.143494,311
904.259705,307
904.375916,313
904.492065,325
904.608215,308
904.724426,320
904.840576,305
904.956726,322
905.072876,322
905.189087,314
905.305176,306
905.421387,308
905.537537,321
905.653687,317
905.769775,316
905.885925,324
906.002014,307
906.118164,328
906.234314,312
906.350403,326
906.466492,313
906.582642,311
906.69873,302
906.814758,321
906.930908,309
907.046936,326
907.163086,315
907.279175,318
907.395264,318
907.511353,320
907.62738,316
907.743408,312
907.859497,314
907.975525,316
908.091553,318
908.207703,329
908.32373,311
908.439758,312
908.555786,317
908.671814,316
908.787842,325
908.90387,322
909.019775,316
909.135864,310
909.251892,315
909.367859,316
909.483826,325
909.599854,317
909.715881,326
909.831848,313
909.947815,316
910.063782,322
910.179749,314
910.295776,317
910.411743,300
910.527649,326
910.643616,325
910.759583,310
910.875488,324
910.991455,308
911.107361,322
911.223267,316
911.339294,308
911.4552,313
911.571106,308
911.687073,321
911.802979,338
911.918823,316
912.034729,309
912.150635,303
912.266602,325
912.382446,308
912.498352,315
912.614197,314
912.730103,308
912.846008,324
792.44574,310
792.56488,341
792.68396,396
792.80304,391
792.92218,333
793.041199,319
793.160339,318
793.279419,352
793.398499,331
793.517578,320
793.636658,334
793.755737,326
793.874817,345
793.993896,349
794.112976,323
794.232056,320
794.351074,333
794.470215,333
794.589233,332
794.708313,320
794.827393,349
794.946411,337
795.065552,327
795.18457,341
795.303589,334
795.422668,344
795.541687,349
795.660767,339
795.779846,328
795.898865,333
796.017883,335
796.136963,341
796.255981,338
796.375061,333
796.49408,322
796.613037,341
796.732117,331
796.851135,321
796.970154,317
797.089233,324
797.208191,329
797.327271,328
797.446228,313
797.565186,332
797.684265,344
797.803223,323
797.922241,322
798.04126,338
798.160278,328
798.279297,333
798.398315,347
798.517273,324
798.636292,338
798.75531,344
798.874268,339
798.993286,326
799.112244,340
799.231323,330
799.350281,329
799.469238,332
799.588257,336
799.707153,321
799.826111,348
799.945129,316
800.064087,334
800.183044,333
800.302063,335
800.421021,332
800.539978,336
800.658936,320
800.777893,327
800.896912,325
801.015747,330
801.134705,335
801.253723,326
801.37262,347
801.491638,339
801.610535,338
801.729492,336
801.84845,323
801.967407,341
802.086243,319
802.205261,342
802.324158,336
802.443115,329
802.562073,319
802.680969,328
802.799927,311
802.918762,331
803.037659,327
803.156677,331
803.275574,326
803.39447,332
803.513428,321
803.632263,330
803.751221,329
803.870117,335
803.989014,334
804.107971,336
804.226746,338
804.345642,339
804.4646,329
804.583496,328
804.702393,338
804.821228,339
804.940125,342
805.059021,325
805.177917,328
805.296814,330
805.415649,321
805.534546,323
805.653442,327
805.772278,335
805.891113,348
806.01001,334
806.128906,340
806.247742,318
806.366577,344
806.485413,334
806.604309,332
806.723145,328
806.84198,327
806.960876,345
807.079712,330
807.198486,339
807.317383,337
807.436218,334
807.554993,329
807.673889,336
807.792725,314
807.91156,341
808.030396,319
808.14917,342
808.268005,335
808.386841,337
808.505676,335
808.624451,329
808.743286,341
808.862122,336
808.980896,330
809.099731,331
809.218506,328
809.337341,335
809.456116,322
809.57489,342
809.693726,334
809.8125,341
809.931274,339
810.050049,337
810.168884,327
810.287659,341
810.406372,337
810.525269,338
810.643982,344
810.762756,325
810.881531,324
811.000305,332
811.11908,337
811.237854,323
811.356567,332
811.475403,342
811.594116,341
811.71283,330
811.831604,322
811.950378,342
812.069153,339
812.187927,331
812.30658,332
812.425415,336
812.544128,326
812.662781,329
812.781616,322
812.900269,329
813.019043,327
813.137756,334
813.256531,329
813.375244,340
813.493896,333
813.612671,335
813.731384,325
813.850037,326
813.96875,332
814.087524,324
814.206238,339
814.324951,336
814.443604,325
814.562256,332
814.68103,319
814.799683,347
814.918335,332
815.037109,329
815.155762,334
815.274475,348
815.393188,336
815.511841,347
815.630554,331
815.749146,318
815.867859,342
815.986572,353
816.105164,329
816.223877,340
816.342529,326
816.461182,339
816.579895,328
816.698486,335
816.817139,330
816.935791,326
817.054504,322
817.173096,326
817.291748,328
817.4104,324
817.529053,337
817.647644,337
817.766235,322
817.884949,330
818.00354,318
818.122192,331
818.240845,332
818.359436,332
818.478088,323
818.59668,304
818.715271,320
818.833923,325
818.952515,326
819.071106,330
819.189758,316
819.30835,321
819.426941,315
819.545532,314
819.664124,329
819.782715,317
819.901306,324
820.019897,330
820.138489,324
820.25708,323
820.375671,313
820.494202,327
820.612732,316
820.731384,332
820.849915,331
820.968506,313
821.087097,314
821.205627,323
821.324158,319
821.442749,327
821.561279,313
821.679871,319
821.798401,308
821.916931,326
822.035461,311
822.154053,318
822.272583,311
822.391174,321
822.509583,319
822.628174,311
822.746704,316
822.865234,324
822.983765,322
823.102295,322
823.220825,311
823.339294,317
823.457825,326
823.576355,317
823.694824,321
823.813354,325
823.931885,309
824.050354,321
824.168884,320
824.287354,323
824.405823,317
824.524353,317
824.642822,312
824.761353,319
824.879822,316
824.998291,319
825.116699,329
825.235291,317
825.353699,337
825.472168,322
825.590637,319
825.709106,315
825.827576,328
825.946045,311
826.064453,326
826.182983,302
826.301392,312
826.4198,315
826.53833,327
826.656738,310
826.775208,317
826.893677,311
827.012024,323
827.130493,315
827.248962,323
827.36731,319
827.485779,324
827.604248,320
827.722595,315
827.841064,325
827.959412,303
828.077942,309
828.196289,325
828.314636,322
828.433105,323
828.551514,309
828.669861,315
828.78833,314
828.906677,327
829.025085,315
829.143433,310
829.261841,326
829.38031,322
829.498657,327
829.617004,314
829.735413,321
829.85376,325
829.972107,320
830.090515,304
830.208862,313
830.327209,327
830.445557,306
830.563904,311
830.682312,320
830.800659,311
830.919006,312
831.037354,325
831.155701,320
831.274048,324
831.392395,319
831.51062,316
831.629028,320
831.747314,318
831.865662,324
831.984009,296
832.102356,303
832.220642,319
832.338928,308
832.457275,309
832.575623,314
832.693909,316
832.812134,321
832.930481,307
833.048828,329
833.167114,313
833.2854,314
833.403687,308
833.521973,321
833.640259,323
833.758545,316
833.876831,315
833.995056,321
834.113281,314
834.231628,319
834.349915,307
834.468201,318
834.586426,303
834.704651,325
834.822998,311
834.941162,312
835.059448,314
835.177673,324
835.295959,315
835.414246,308
835.53241,307
835.650635,321
835.768921,319
835.887146,314
836.005371,333
836.123596,311
836.241821,307
836.360046,318
836.478271,332
836.596497,324
836.714722,311
836.832886,327
836.95105,310
837.069336,336
837.1875,324
837.305725,328
837.423889,316
837.542053,322
837.660339,312
837.778503,325
837.896667,315
838.014832,318
838.132996,309
838.25116,325
838.369385,297
838.487488,311
838.605713,330
838.723877,313
838.84198,306
838.960205,328
839.078308,311
839.196472,316
839.314636,313
839.4328,317
839.550964,327
839.669067,310
839.787231,308
839.905396,318
840.023499,321
840.141602,319
840.259766,317
840.377869,308
840.495972,317
840.614136,310
840.732239,318
840.850342,335
840.968445,315
841.086548,315
841.204651,314
841.322754,311
841.440918,315
841.55896,319
841.677002,307
841.795166,331
841.913208,320
842.031311,304
842.149353,319
842.267456,330
842.385498,310
842.503601,318
842.621643,306
842.739746,315
842.857788,318
842.97583,305
843.093933,308
843.211975,325
843.330017,326
843.44812,327
843.566101,316
843.684204,325
843.802246,310
843.920227,313
844.038269,300
844.156311,318
844.274292,307
844.392395,312
844.510376,318
844.628357,317
844.74646,321
844.864441,326
844.982422,324
845.100403,322
845.218384,308
845.336426,305
845.454468,316
845.572449,314
845.69043,317
845.808411,321
845.926453,311
846.044373,324
846.162354,313
846.280396,305
846.398315,310
846.516296,315
846.634216,318
846.752197,322
846.870178,309
846.988098,323
847.106079,307
847.22406,321
847.34198,310
847.4599,304
847.577881,312
847.695801,304
847.813782,322
847.931641,322
848.049561,315
848.167603,315
848.285461,314
848.403381,327
848.521362,311
848.639221,308
848.75708,311
848.875,319
848.99292,314
849.110901,309
849.22876,303
849.34668,325
849.464539,312
849.582458,318
849.700317,310
849.818176,312
849.936096,314
850.053955,324
850.171875,308
850.289673,326
850.407593,313
850.525452,317
850.643311,304
850.761169,331
850.878967,315
850.996887,317
851.114746,302
851.232544,321
851.350403,307
851.468262,305
851.58606,304
851.703979,328
851.821777,302
851.939636,327
852.057434,317
852.175232,309
852.293091,309
852.410889,322
852.528687,320
852.646545,316
852.764343,310
852.88208,318
852.999939,317
853.117676,309
853.235535,301
853.353271,306
853.471069,317
853.588928,321
853.706604,322
853.824402,312
853.9422,324
854.059998,325
854.177734,314
854.295532,309
854.413269,306
854.531006,324
854.648804,309
854.766541,315
854.884277,323
855.002014,311
855.119751,303
855.237549,318
855.355225,321
855.473022,327
855.590698,312
855.708435,322
855.826172,325
855.943848,320
856.061646,316
856.179321,311
856.296997,311
856.414795,322
856.53241,320
856.650085,326
856.767822,315
856.885559,317
857.003174,306
857.120911,309
857.238586,311
857.356201,325
857.473938,308
857.591614,320
857.709351,320
857.826965,330
857.944641,309
858.062317,317
858.179993,326
858.297668,319
858.415283,303
858.532959,325
858.650574,319
858.768188,320
858.885803,310
859.003479,327
859.121094,321
859.23877,311
859.356384,312
859.473999,321
859.591675,319
859.709229,314
859.826843,299
859.944458,317
860.062012,293
860.179626,325
860.297302,315
860.414856,319
860.532471,321
860.650024,325
860.767639,311
860.885193,333
861.002808,327
861.120361,314
861.237976,309
861.35553,332
861.473022,306
861.590698,312
861.708191,317
861.825745,317
861.943298,319
862.060852,309
862.178406,319
862.295959,314
862.413513,316
862.531006,327
862.64856,315
862.766113,328
862.883667,319
863.00116,327
863.118713,322
863.236206,327
863.353699,310
863.471252,313
863.588745,329
863.706177,304
863.82373,323
863.941162,303
864.058716,308
864.176208,319
864.29364,311
864.411194,324
864.528687,313
864.646118,311
864.763611,315
864.881042,310
864.998535,315
865.116028,306
865.233459,316
865.350891,308
865.468384,306
865.585754,306
865.703308,314
865.820679,306
865.938171,318
866.055542,330
866.173035,318
866.290466,316
866.407837,306
866.52533,316
866.6427,308
866.760071,317
866.877563,318
866.994934,303
867.112305,314
867.229736,332
867.347107,317
867.464539,309
867.58197,317
867.699341,307
867.81665,312
867.934082,321
868.051453,294
868.168823,321
868.286194,301
868.403564,314
868.520935,312
868.638306,319
868.755676,293
868.872986,319
868.990295,321
869.107727,326
869.225037,310
869.342346,320
869.459717,302
869.577026,313
869.694336,318
869.811707,319
869.929016,317
870.046326,322
870.163635,316
870.280945,307
870.398254,305
870.515564,314
870.632812,304
870.750183,321
870.867432,299
870.984741,313
871.102051,311
871.219299,322
871.336609,319
871.453918,318
871.571106,316
871.688416,317
871.805664,308
871.922852,304
872.040222,311
872.157471,298
872.274719,314
872.391968,321
872.509155,314
872.626465,329
872.743652,319
872.860962,322
872.978149,321
873.095337,327
873.212646,318
873.329834,322
873.44696,316
873.564209,318
873.681396,317
873.798645,322
873.915894,309
874.03302,312
874.150208,319
874.267456,309
874.384583,327
874.501831,325
874.618958,298
874.736145,320
874.853333,306
874.970459,324
875.087646,306
875.204834,314
875.32196,299
875.439148,310
875.556274,309
875.673401,321
875.790527,312
875.907715,320
876.024841,320
876.141968,317
876.259094,314
876.376282,327
876.493347,314
876.610474,321
876.7276,310
876.844727,317
876.961853,319
877.078918,330
877.195984,313
877.313171,321
877.430237,321
877.547302,326
877.664368,308
877.781433,313
877.898499,314
878.015625,314
878.13269,323
878.249695,308
878.366821,315
878.483887,318
878.600952,317
878.717957,315
878.834961,315
878.952087,329
879.069092,313
879.186157,322
879.303162,310
879.420227,325
879.537231,314
879.654236,315
879.77124,308
879.888306,316
880.005249,321
880.122314,325
880.239319,312
880.356323,309
880.473328,321
880.590271,319
880.707275,319
880.824341,319
880.941284,309
881.058228,317
881.175232,314
881.292236,325
881.40918,320
881.526123,323
881.643066,312
881.760071,310
881.877014,307
881.993958,318
882.11084,304
882.227783,329
882.344727,316
882.46167,323
882.578613,307
882.695618,322
882.812439,321
882.929382,315
883.046326,310
883.163208,319
883.280151,314
883.397034,307
883.513916,322
883.630798,319
883.747742,323
883.864563,313
883.981506,308
884.098389,319
884.21521,310
884.332153,322
884.448975,296
884.565796,318
884.682678,321
884.7995,308
884.916443,312
885.033264,319
885.150085,315
885.266968,313
885.383789,314
885.500671,327
885.617493,311
885.734314,310
885.851196,308
885.967896,327
886.084717,310
886.201599,320
886.318359,313
886.435181,311
886.552002,316
886.668762,328
886.785645,311
886.902344,331
887.019165,318
887.135925,322
887.252747,283
887.369446,308
887.486267,322
887.603027,315
887.719788,306
887.836548,311
887.953247,309
888.070068,327
888.186829,311
888.303528,322
888.420288,310
888.536987,320
888.653687,317
888.770447,320
888.887146,317
889.003967,320
889.120667,309
889.237305,330
889.354065,308
889.470703,327
889.587463,318
889.704163,314
889.820862,310
889.937561,323
890.054199,307
890.170837,327
890.287598,314
890.404236,317
890.520874,316
890.637634,310
890.754211,311
890.87085,326
890.987549,309
891.104187,312
891.220886,322
891.337463,316
891.454102,313
891.57074,324
891.687378,321
891.804077,323
891.920654,311
892.037231,322
892.15387,310
892.270447,312
892.387085,336
892.503723,304
892.6203,301
892.736877,331
892.853516,308
892.970032,329
893.08667,327
893.203186,315
893.319763,312
893.43634,317
893.552917,317
893.669556,324
893.786011,312
893.902588,327
894.019165,313
894.135681,327
894.252197,316
894.368835,331
894.485291,315
894.601868,313
894.718384,316
894.8349,304
894.951355,309
895.067932,315
895.184448,292
895.300964,316
895.417419,313
895.533936,315
895.650452,316
895.766907,330
895.883423,313
895.999878,316
896.116333,310
896.232849,322
896.349304,307
896.465759,324
896.582214,320
896.698669,315
896.815125,325
896.931641,317
897.048035,313
897.164551,309
897.280884,314
897.397339,320
897.513794,303
897.630249,315
897.746582,323
897.863098,329
897.979431,307
898.095886,325
898.212341,316
898.328674,325
898.445129,307
898.561462,326
898.677795,317
898.794312,329
898.910645,325
899.026978,321
899.143433,305
899.259766,328
899.37616,308
899.492493,328
899.608765,302
899.725159,326
899.841553,316
899.957947,326
900.07428,310
900.190552,323
900.306946,307
900.423157,303
900.53949,314
900.655884,335
900.772156,300
900.888489,325
901.004822,316
901.121033,309
901.237366,312
901.353699,315
901.46991,310
901.586304,323
901.702515,315
901.818787,315
901.93512,320
902.051331,309
902.167603,308
902.283875,314
902.400085,306
902.516418,327
902.632629,316
902.74884,312
902.865112,313
902.981384,319
903.097595,313
903.213867,324
903.330017,315
903.446289,309
903.5625,311
903.67865,319
903.794922,302
903.911072,326
904.027344,309
904.143494,324
904.259705,295
904.375916,319
904.492065,318
904.608215,325
904.724426,300
904.840576,318
904.956726,315
905.072876,319
905.189087,318
905.305176,316
905.421387,315
905.537537,318
905.653687,310
905.769775,309
905.885925,311
906.002014,318
906.118164,312
906.234314,326
906.350403,323
906.466492,331
906.582642,317
906.69873,315
906.814758,301
906.930908,325
907.046936,306
907.163086,306
907.279175,314
907.395264,320
907.511353,312
907.62738,316
907.743408,314
907.859497,319
907.975525,308
908.091553,322
908.207703,306
908.32373,320
908.439758,324
908.555786,317
908.671814,319
908.787842,322
908.90387,310
909.019775,310
909.135864,306
909.251892,323
909.367859,308
909.483826,322
909.599854,314
909.715881,327
909.831848,310
909.947815,310
910.063782,312
910.179749,331
910.295776,318
910.411743,333
910.527649,316
910.643616,321
910.759583,318
910.875488,319
910.991455,321
911.107361,316
911.223267,308
911.339294,324
911.4552,315
911.571106,311
911.687073,316
911.802979,312
911.918823,313
912.034729,329
912.150635,325
912.266602,319
912.382446,306
912.498352,304
912.614197,313
912.730103,323
912.846008,308
