792.44574,314
792.56488,358
792.68396,398
792.80304,383
792.92218,342
793.041199,311
793.160339,339
793.279419,339
793.398499,330
793.517578,305
793.636658,322
793.755737,340
793.874817,353
793.993896,343
794.112976,338
794.232056,333
794.351074,341
794.470215,338
794.589233,333
794.708313,320
794.827393,315
794.946411,347
795.065552,343
795.18457,336
795.303589,322
795.422668,331
795.541687,333
795.660767,325
795.779846,329
795.898865,331
796.017883,332
796.136963,340
796.255981,322
796.375061,340
796.49408,326
796.613037,327
796.732117,346
796.851135,326
796.970154,338
797.089233,317
797.208191,323
797.327271,320
797.446228,335
797.565186,346
797.684265,322
797.803223,334
797.922241,325
798.04126,333
798.160278,329
798.279297,328
798.398315,334
798.517273,328
798.636292,333
798.75531,323
798.874268,332
798.993286,327
799.112244,338
799.231323,329
799.350281,320
799.469238,316
799.588257,327
799.707153,337
799.826111,334
799.945129,310
800.064087,333
800.183044,332
800.302063,331
800.421021,339
800.539978,339
800.658936,325
800.777893,327
800.896912,331
801.015747,329
801.134705,322
801.253723,335
801.37262,318
801.491638,340
801.610535,329
801.729492,333
801.84845,335
801.967407,325
802.086243,336
802.205261,330
802.324158,334
802.443115,332
802.562073,317
802.680969,323
802.799927,324
802.918762,335
803.037659,329
803.156677,327
803.275574,329
803.39447,320
803.513428,325
803.632263,329
803.751221,331
803.870117,326
803.989014,328
804.107971,338
804.226746,331
804.345642,338
804.4646,323
804.583496,340
804.702393,330
804.821228,330
804.940125,338
805.059021,333
805.177917,337
805.296814,326
805.415649,334
805.534546,331
805.653442,324
805.772278,337
805.891113,333
806.01001,334
806.128906,327
806.247742,332
806.366577,337
806.485413,334
806.604309,339
806.723145,332
806.84198,323
806.960876,327
807.079712,337
807.198486,336
807.317383,312
807.436218,313
807.554993,331
807.673889,337
807.792725,347
807.91156,337
808.030396,339
808.14917,322
808.268005,337
808.386841,340
808.505676,331
808.624451,333
808.743286,331
808.862122,337
808.980896,330
809.099731,325
809.218506,336
809.337341,336
809.456116,342
809.57489,333
809.693726,337
809.8125,338
809.931274,321
810.050049,342
810.168884,314
810.287659,335
810.406372,326
810.525269,345
810.643982,344
810.762756,330
810.881531,327
811.000305,346
811.11908,339
811.237854,352
811.356567,333
811.475403,346
811.594116,330
811.71283,346
811.831604,332
811.950378,323
812.069153,329
812.187927,338
812.30658,330
812.425415,346
812.544128,329
812.662781,332
812.781616,338
812.900269,337
813.019043,345
813.137756,344
813.256531,330
813.375244,330
813.493896,331
813.612671,341
813.731384,338
813.850037,329
813.96875,322
814.087524,322
814.206238,345
814.324951,337
814.443604,322
814.562256,345
814.68103,314
814.799683,332
814.918335,332
815.037109,341
815.155762,347
815.274475,337
815.393188,331
815.511841,334
815.630554,314
815.749146,333
815.867859,331
815.986572,327
816.105164,338
816.223877,324
816.342529,338
816.461182,325
816.579895,331
816.698486,337
816.817139,331
816.935791,338
817.054504,345
817.173096,326
817.291748,321
817.4104,338
817.529053,325
817.647644,334
817.766235,318
817.884949,340
818.00354,332
818.122192,334
818.240845,314
818.359436,328
818.478088,322
818.59668,317
818.715271,330
818.833923,324
818.952515,330
819.071106,325
819.189758,319
819.30835,309
819.426941,311
819.545532,323
819.664124,320
819.782715,319
819.901306,331
820.019897,305
820.138489,330
820.25708,327
820.375671,323
820.494202,329
820.612732,312
820.731384,325
820.849915,325
820.968506,315
821.087097,311
821.205627,325
821.324158,322
821.442749,318
821.561279,314
821.679871,321
821.798401,311
821.916931,326
822.035461,325
822.154053,316
822.272583,320
822.391174,321
822.509583,322
822.628174,317
822.746704,314
822.865234,325
822.983765,320
823.102295,317
823.220825,321
823.339294,307
823.457825,305
823.576355,314
823.694824,323
823.813354,317
823.931885,318
824.050354,304
824.168884,319
824.287354,335
824.405823,319
824.524353,312
824.642822,307
824.761353,318
824.879822,315
824.998291,325
825.116699,313
825.235291,329
825.353699,308
825.472168,320
825.590637,324
825.709106,318
825.827576,312
825.946045,311
826.064453,315
826.182983,323
826.301392,316
826.4198,313
826.53833,317
826.656738,323
826.775208,314
826.893677,314
827.012024,316
827.130493,318
827.248962,302
827.36731,316
827.485779,321
827.604248,315
827.722595,329
827.841064,307
827.959412,314
828.077942,321
828.196289,321
828.314636,325
828.433105,314
828.551514,323
828.669861,314
828.78833,317
828.906677,318
829.025085,316
829.143433,327
829.261841,317
829.38031,327
829.498657,313
829.617004,328
829.735413,326
829.85376,312
829.972107,312
830.090515,317
830.208862,316
830.327209,323
830.445557,300
830.563904,326
830.682312,315
830.800659,319
830.919006,311
831.037354,312
831.155701,305
831.274048,323
831.392395,328
831.51062,313
831.629028,313
831.747314,319
831.865662,309
831.984009,315
832.102356,332
832.220642,314
832.338928,313
832.457275,309
832.575623,315
832.693909,323
832.812134,316
832.930481,310
833.048828,312
833.167114,320
833.2854,336
833.403687,307
833.521973,318
833.640259,300
833.758545,322
833.876831,297
833.995056,308
834.113281,330
834.231628,328
834.349915,317
834.468201,315
834.586426,325
834.704651,319
834.822998,317
834.941162,317
835.059448,315
835.177673,322
835.295959,303
835.414246,320
835.53241,323
835.650635,314
835.768921,296
835.887146,311
836.005371,307
836.123596,334
836.241821,318
836.360046,313
836.478271,316
836.596497,330
836.714722,315
836.832886,326
836.95105,319
837.069336,320
837.1875,304
837.305725,325
837.423889,311
837.542053,326
837.660339,324
837.778503,325
837.896667,330
838.014832,326
838.132996,305
838.25116,323
838.369385,319
838.487488,321
838.605713,312
838.723877,319
838.84198,313
838.960205,321
839.078308,313
839.196472,318
839.314636,317
839.4328,312
839.550964,324
839.669067,317
839.787231,302
839.905396,318
840.023499,316
840.141602,330
840.259766,319
840.377869,317
840.495972,318
840.614136,323
840.732239,314
840.850342,328
840.968445,313
841.086548,320
841.204651,325
841.322754,320
841.440918,316
841.55896,315
841.677002,316
841.795166,315
841.913208,315
842.031311,320
842.149353,333
842.267456,320
842.385498,312
842.503601,306
842.621643,326
842.739746,317
842.857788,302
842.97583,317
843.093933,313
843.211975,318
843.330017,315
843.44812,313
843.566101,305
843.684204,327
843.802246,327
843.920227,313
844.038269,319
844.156311,303
844.274292,310
844.392395,323
844.510376,313
844.628357,319
844.74646,321
844.864441,310
844.982422,316
845.100403,326
845.218384,314
845.336426,314
845.454468,304
845.572449,322
845.69043,293
845.808411,314
845.926453,316
846.044373,318
846.162354,303
846.280396,326
846.398315,304
846.516296,322
846.634216,301
846.752197,315
846.870178,317
846.988098,315
847.106079,310
847.22406,300
847.34198,317
847.4599,317
847.577881,311
847.695801,323
847.813782,314
847.931641,312
848.049561,322
848.167603,315
848.285461,313
848.403381,311
848.521362,309
848.639221,323
848.75708,297
848.875,319
848.99292,296
849.110901,315
849.22876,314
849.34668,316
849.464539,313
849.582458,318
849.700317,302
849.818176,319
849.936096,318
850.053955,305
850.171875,320
850.289673,317
850.407593,310
850.525452,329
850.643311,323
850.761169,307
850.878967,319
850.996887,317
851.114746,305
851.232544,317
851.350403,319
851.468262,312
851.58606,327
851.703979,316
851.821777,318
851.939636,318
852.057434,316
852.175232,327
852.293091,306
852.410889,317
852.528687,315
852.646545,322
852.764343,310
852.88208,321
852.999939,302
853.117676,314
853.235535,313
853.353271,314
853.471069,318
853.588928,316
853.706604,305
853.824402,321
853.9422,303
854.059998,305
854.177734,307
854.295532,317
854.413269,310
854.531006,310
854.648804,317
854.766541,306
854.884277,326
855.002014,313
855.119751,318
855.237549,308
855.355225,316
855.473022,321
855.590698,311
855.708435,315
855.826172,318
855.943848,317
856.061646,319
856.179321,319
856.296997,313
856.414795,315
856.53241,322
856.650085,322
856.767822,318
856.885559,321
857.003174,323
857.120911,317
857.238586,340
857.356201,327
857.473938,303
857.591614,318
857.709351,309
857.826965,310
857.944641,314
858.062317,321
858.179993,301
858.297668,320
858.415283,311
858.532959,313
858.650574,333
858.768188,322
858.885803,306
859.003479,324
859.121094,323
859.23877,310
859.356384,317
859.473999,311
859.591675,307
859.709229,325
859.826843,314
859.944458,326
860.062012,319
860.179626,329
860.297302,323
860.414856,316
860.532471,311
860.650024,313
860.767639,314
860.885193,318
861.002808,321
861.120361,325
861.237976,315
861.35553,317
861.473022,311
861.590698,321
861.708191,311
861.825745,312
861.943298,301
862.060852,307
862.178406,308
862.295959,323
862.413513,317
862.531006,336
862.64856,306
862.766113,311
862.883667,325
863.00116,312
863.118713,327
863.236206,312
863.353699,307
863.471252,308
863.588745,315
863.706177,327
863.82373,323
863.941162,316
864.058716,309
864.176208,309
864.29364,309
864.411194,321
864.528687,325
864.646118,315
864.763611,299
864.881042,327
864.998535,311
865.116028,315
865.233459,315
865.350891,312
865.468384,303
865.585754,307
865.703308,313
865.820679,324
865.938171,308
866.055542,320
866.173035,312
866.290466,322
866.407837,309
866.52533,310
866.6427,319
866.760071,319
866.877563,328
866.994934,311
867.112305,333
867.229736,316
867.347107,319
867.464539,313
867.58197,326
867.699341,313
867.81665,311
867.934082,321
868.051453,315
868.168823,322
868.286194,305
868.403564,301
868.520935,325
868.638306,320
868.755676,327
868.872986,320
868.990295,304
869.107727,316
869.225037,303
869.342346,320
869.459717,301
869.577026,325
869.694336,312
869.811707,310
869.929016,311
870.046326,309
870.163635,314
870.280945,326
870.398254,318
870.515564,324
870.632812,306
870.750183,320
870.867432,315
870.984741,316
871.102051,319
871.219299,318
871.336609,325
871.453918,327
871.571106,300
871.688416,316
871.805664,321
871.922852,321
872.040222,325
872.157471,327
872.274719,299
872.391968,320
872.509155,311
872.626465,322
872.743652,308
872.860962,327
872.978149,322
873.095337,304
873.212646,308
873.329834,315
873.44696,317
873.564209,318
873.681396,323
873.798645,331
873.915894,310
874.03302,314
874.150208,324
874.267456,316
874.384583,304
874.501831,312
874.618958,301
874.736145,331
874.853333,309
874.970459,307
875.087646,324
875.204834,321
875.32196,318
875.439148,319
875.556274,318
875.673401,322
875.790527,311
875.907715,316
876.024841,314
876.141968,327
876.259094,311
876.376282,315
876.493347,316
876.610474,325
876.7276,309
876.844727,309
876.961853,310
877.078918,316
877.195984,311
877.313171,328
877.430237,333
877.547302,312
877.664368,322
877.781433,313
877.898499,314
878.015625,318
878.13269,313
878.249695,308
878.366821,309
878.483887,313
878.600952,324
878.717957,306
878.834961,302
878.952087,316
879.069092,313
879.186157,312
879.303162,315
879.420227,328
879.537231,312
879.654236,316
879.77124,322
879.888306,327
880.005249,319
880.122314,336
880.239319,311
880.356323,315
880.473328,318
880.590271,318
880.707275,324
880.824341,321
880.941284,319
881.058228,319
881.175232,319
881.292236,320
881.40918,310
881.526123,306
881.643066,318
881.760071,320
881.877014,306
881.993958,310
882.11084,314
882.227783,326
882.344727,316
882.46167,318
882.578613,321
882.695618,317
882.812439,308
882.929382,325
883.046326,303
883.163208,328
883.280151,318
883.397034,325
883.513916,321
883.630798,309
883.747742,315
883.864563,324
883.981506,308
884.098389,313
884.21521,319
884.332153,315
884.448975,307
884.565796,333
884.682678,317
884.7995,308
884.916443,315
885.033264,324
885.150085,302
885.266968,312
885.383789,314
885.500671,320
885.617493,311
885.734314,321
885.851196,325
885.967896,315
886.084717,308
886.201599,322
886.318359,311
886.435181,338
886.552002,314
886.668762,315
886.785645,318
886.902344,317
887.019165,309
887.135925,316
887.252747,309
887.369446,318
887.486267,320
887.603027,312
887.719788,323
887.836548,333
887.953247,313
888.070068,318
888.186829,314
888.303528,315
888.420288,315
888.536987,308
888.653687,306
888.770447,317
888.887146,311
889.003967,309
889.120667,309
889.237305,309
889.354065,304
889.470703,319
889.587463,322
889.704163,325
889.820862,312
889.937561,319
890.054199,325
890.170837,306
890.287598,307
890.404236,328
890.520874,312
890.637634,317
890.754211,308
890.87085,324
890.987549,306
891.104187,324
891.220886,304
891.337463,321
891.454102,326
891.57074,311
891.687378,302
891.804077,311
891.920654,317
892.037231,315
892.15387,319
892.270447,316
892.387085,314
892.503723,324
892.6203,318
892.736877,318
892.853516,326
892.970032,315
893.08667,320
893.203186,325
893.319763,320
893.43634,319
893.552917,315
893.669556,328
893.786011,313
893.902588,312
894.019165,321
894.135681,316
894.252197,314
894.368835,322
894.485291,316
894.601868,316
894.718384,317
894.8349,326
894.951355,330
895.067932,321
895.184448,306
895.300964,317
895.417419,312
895.533936,320
895.650452,315
895.766907,330
895.883423,309
895.999878,318
896.116333,323
896.232849,319
896.349304,308
896.465759,326
896.582214,316
896.698669,324
896.815125,317
896.931641,314
897.048035,308
897.164551,340
897.280884,313
897.397339,332
897.513794,327
897.630249,326
897.746582,310
897.863098,321
897.979431,312
898.095886,317
898.212341,316
898.328674,325
898.445129,313
898.561462,308
898.677795,316
898.794312,310
898.910645,313
899.026978,329
899.143433,311
899.259766,326
899.37616,316
899.492493,324
899.608765,317
899.725159,311
899.841553,307
899.957947,322
900.07428,327
900.190552,319
900.306946,299
900.423157,323
900.53949,310
900.655884,321
900.772156,315
900.888489,323
901.004822,310
901.121033,308
901.237366,316
901.353699,320
901.46991,324
901.586304,330
901.702515,315
901.818787,320
901.93512,315
902.051331,312
902.167603,313
902.283875,303
902.400085,308
902.516418,314
902.632629,300
902.74884,328
902.865112,308
902.981384,333
903.097595,318
903.213867,312
903.330017,319
903.446289,318
903.5625,322
903.67865,325
903.794922,309
903.911072,327
904.027344,317
904.143494,315
904.259705,326
904.375916,306
904.492065,318
904.608215,320
904.724426,320
904.840576,322
904.956726,321
905.072876,324
905.189087,300
905.305176,308
905.421387,325
905.537537,321
905.653687,312
905.769775,320
905.885925,318
906.002014,327
906.118164,315
906.234314,324
906.350403,322
906.466492,325
906.582642,309
906.69873,303
906.814758,319
906.930908,324
907.046936,314
907.163086,320
907.279175,319
907.395264,321
907.511353,318
907.62738,322
907.743408,316
907.859497,315
907.975525,312
908.091553,322
908.207703,317
908.32373,327
908.439758,307
908.555786,319
908.671814,312
908.787842,315
908.90387,315
909.019775,320
909.135864,318
909.251892,316
909.367859,312
909.483826,324
909.599854,314
909.715881,318
909.831848,295
909.947815,322
910.063782,315
910.179749,314
910.295776,325
910.411743,320
910.527649,310
910.643616,323
910.759583,317
910.875488,309
910.991455,306
911.107361,320
911.223267,310
911.339294,318
911.4552,321
911.571106,322
911.687073,330
911.802979,324
911.918823,319
912.034729,330
912.150635,309
912.266602,306
912.382446,318
912.498352,312
912.614197,323
912.730103,313
912.846008,317
792.44574,310
792.56488,346
792.68396,397
792.80304,380
792.92218,336
793.041199,332
793.160339,316
793.279419,346
793.398499,358
793.517578,307
793.636658,338
793.755737,320
793.874817,348
793.993896,330
794.112976,338
794.232056,325
794.351074,326
794.470215,336
794.589233,332
794.708313,322
794.827393,328
794.946411,332
795.065552,343
795.18457,335
795.303589,349
795.422668,328
795.541687,333
795.660767,326
795.779846,328
795.898865,315
796.017883,331
796.136963,349
796.255981,328
796.375061,326
796.49408,329
796.613037,325
796.732117,344
796.851135,324
796.970154,335
797.089233,328
797.208191,328
797.327271,322
797.446228,326
797.565186,348
797.684265,321
797.803223,345
797.922241,332
798.04126,333
798.160278,315
798.279297,332
798.398315,331
798.517273,326
798.636292,318
798.75531,322
798.874268,337
798.993286,320
799.112244,326
799.231323,341
799.350281,323
799.469238,335
799.588257,326
799.707153,326
799.826111,336
799.945129,342
800.064087,335
800.183044,326
800.302063,332
800.421021,329
800.539978,340
800.658936,321
800.777893,334
800.896912,332
801.015747,328
801.134705,313
801.253723,337
801.37262,327
801.491638,324
801.610535,329
801.729492,321
801.84845,337
801.967407,329
802.086243,328
802.205261,324
802.324158,332
802.443115,324
802.562073,331
802.680969,323
802.799927,325
802.918762,331
803.037659,335
803.156677,323
803.275574,320
803.39447,325
803.513428,328
803.632263,333
803.751221,336
803.870117,329
803.989014,330
804.107971,347
804.226746,322
804.345642,337
804.4646,313
804.583496,335
804.702393,325
804.821228,338
804.940125,325
805.059021,329
805.177917,322
805.296814,315
805.415649,335
805.534546,330
805.653442,321
805.772278,331
805.891113,330
806.01001,328
806.128906,315
806.247742,327
806.366577,325
806.485413,323
806.604309,329
806.723145,327
806.84198,317
806.960876,331
807.079712,323
807.198486,328
807.317383,331
807.436218,325
807.554993,331
807.673889,344
807.792725,327
807.91156,324
808.030396,317
808.14917,331
808.268005,309
808.386841,338
808.505676,333
808.624451,336
808.743286,321
808.862122,336
808.980896,318
809.099731,352
809.218506,323
809.337341,337
809.456116,309
809.57489,349
809.693726,328
809.8125,329
809.931274,332
810.050049,341
810.168884,330
810.287659,333
810.406372,325
810.525269,326
810.643982,328
810.762756,354
810.881531,317
811.000305,329
811.11908,346
811.237854,333
811.356567,333
811.475403,331
811.594116,324
811.71283,343
811.831604,327
811.950378,326
812.069153,341
812.187927,328
812.30658,338
812.425415,347
812.544128,324
812.662781,349
812.781616,326
812.900269,337
813.019043,325
813.137756,328
813.256531,338
813.375244,331
813.493896,341
813.612671,331
813.731384,336
813.850037,331
813.96875,315
814.087524,331
814.206238,326
814.324951,340
814.443604,338
814.562256,342
814.68103,320
814.799683,331
814.918335,340
815.037109,340
815.155762,342
815.274475,333
815.393188,324
815.511841,328
815.630554,351
815.749146,340
815.867859,333
815.986572,343
816.105164,327
816.223877,325
816.342529,331
816.461182,329
816.579895,334
816.698486,322
816.817139,321
816.935791,329
817.054504,333
817.173096,331
817.291748,323
817.4104,333
817.529053,327
817.647644,336
817.766235,319
817.884949,317
818.00354,322
818.122192,316
818.240845,327
818.359436,318
818.478088,344
818.59668,332
818.715271,319
818.833923,317
818.952515,324
819.071106,330
819.189758,315
819.30835,332
819.426941,312
819.545532,325
819.664124,320
819.782715,329
819.901306,315
820.019897,327
820.138489,297
820.25708,327
820.375671,315
820.494202,314
820.612732,315
820.731384,323
820.849915,318
820.968506,328
821.087097,318
821.205627,322
821.324158,309
821.442749,317
821.561279,331
821.679871,326
821.798401,317
821.916931,331
822.035461,307
822.154053,335
822.272583,306
822.391174,319
822.509583,314
822.628174,317
822.746704,306
822.865234,315
822.983765,318
823.102295,305
823.220825,324
823.339294,314
823.457825,321
823.576355,315
823.694824,333
823.813354,331
823.931885,303
824.050354,325
824.168884,327
824.287354,315
824.405823,310
824.524353,324
824.642822,306
824.761353,309
824.879822,313
824.998291,316
825.116699,323
825.235291,316
825.353699,319
825.472168,330
825.590637,317
825.709106,321
825.827576,316
825.946045,326
826.064453,314
826.182983,335
826.301392,316
826.4198,329
826.53833,305
826.656738,311
826.775208,314
826.893677,313
827.012024,322
827.130493,311
827.248962,314
827.36731,316
827.485779,322
827.604248,328
827.722595,310
827.841064,328
827.959412,311
828.077942,321
828.196289,318
828.314636,338
828.433105,328
828.551514,312
828.669861,308
828.78833,313
828.906677,304
829.025085,308
829.143433,306
829.261841,321
829.38031,309
829.498657,329
829.617004,307
829.735413,316
829.85376,306
829.972107,323
830.090515,312
830.208862,325
830.327209,323
830.445557,301
830.563904,295
830.682312,318
830.800659,312
830.919006,312
831.037354,311
831.155701,309
831.274048,308
831.392395,304
831.51062,313
831.629028,329
831.747314,316
831.865662,311
831.984009,306
832.102356,317
832.220642,326
832.338928,312
832.457275,300
832.575623,319
832.693909,317
832.812134,318
832.930481,312
833.048828,317
833.167114,314
833.2854,316
833.403687,324
833.521973,322
833.640259,305
833.758545,317
833.876831,318
833.995056,315
834.113281,305
834.231628,314
834.349915,312
834.468201,314
834.586426,318
834.704651,311
834.822998,311
834.941162,311
835.059448,312
835.177673,317
835.295959,303
835.414246,321
835.53241,312
835.650635,320
835.768921,310
835.887146,322
836.005371,315
836.123596,316
836.241821,303
836.360046,313
836.478271,305
836.596497,322
836.714722,323
836.832886,319
836.95105,318
837.069336,308
837.1875,323
837.305725,303
837.423889,314
837.542053,332
837.660339,325
837.778503,318
837.896667,307
838.014832,321
838.132996,320
838.25116,321
838.369385,310
838.487488,325
838.605713,318
838.723877,305
838.84198,320
838.960205,324
839.078308,312
839.196472,325
839.314636,317
839.4328,318
839.550964,318
839.669067,314
839.787231,318
839.905396,329
840.023499,310
840.141602,310
840.259766,308
840.377869,315
840.495972,321
840.614136,330
840.732239,314
840.850342,316
840.968445,305
841.086548,319
841.204651,306
841.322754,320
841.440918,323
841.55896,325
841.677002,302
841.795166,305
841.913208,312
842.031311,321
842.149353,320
842.267456,321
842.385498,312
842.503601,311
842.621643,327
842.739746,325
842.857788,315
842.97583,319
843.093933,320
843.211975,318
843.330017,321
843.44812,317
843.566101,311
843.684204,325
843.802246,311
843.920227,310
844.038269,312
844.156311,308
844.274292,318
844.392395,323
844.510376,304
844.628357,325
844.74646,311
844.864441,312
844.982422,306
845.100403,324
845.218384,314
845.336426,302
845.454468,316
845.572449,313
845.69043,306
845.808411,329
845.926453,308
846.044373,318
846.162354,321
846.280396,316
846.398315,308
846.516296,317
846.634216,313
846.752197,314
846.870178,309
846.988098,326
847.106079,307
847.22406,311
847.34198,319
847.4599,326
847.577881,304
847.695801,314
847.813782,295
847.931641,320
848.049561,306
848.167603,315
848.285461,316
848.403381,331
848.521362,317
848.639221,310
848.75708,308
848.875,304
848.99292,315
849.110901,323
849.22876,313
849.34668,319
849.464539,304
849.582458,320
849.700317,310
849.818176,322
849.936096,322
850.053955,324
850.171875,328
850.289673,311
850.407593,324
850.525452,315
850.643311,292
850.761169,313
850.878967,327
850.996887,316
851.114746,303
851.232544,315
851.350403,315
851.468262,328
851.58606,316
851.703979,334
851.821777,313
851.939636,309
852.057434,321
852.175232,317
852.293091,308
852.410889,313
852.528687,305
852.646545,306
852.764343,325
852.88208,316
852.999939,299
853.117676,312
853.235535,310
853.353271,307
853.471069,328
853.588928,308
853.706604,305
853.824402,325
853.9422,312
854.059998,306
854.177734,320
854.295532,317
854.413269,317
854.531006,329
854.648804,318
854.766541,315
854.884277,315
855.002014,321
855.119751,309
855.237549,299
855.355225,307
855.473022,317
855.590698,304
855.708435,320
855.826172,319
855.943848,325
856.061646,305
856.179321,328
856.296997,326
856.414795,316
856.53241,309
856.650085,305
856.767822,314
856.885559,311
857.003174,319
857.120911,313
857.238586,303
857.356201,318
857.473938,308
857.591614,306
857.709351,316
857.826965,320
857.944641,311
858.062317,322
858.179993,311
858.297668,327
858.415283,310
858.532959,309
858.650574,306
858.768188,308
858.885803,308
859.003479,315
859.121094,311
859.23877,319
859.356384,307
859.473999,336
859.591675,311
859.709229,322
859.826843,330
859.944458,306
860.062012,306
860.179626,328
860.297302,320
860.414856,319
860.532471,320
860.650024,322
860.767639,318
860.885193,310
861.002808,323
861.120361,319
861.237976,307
861.35553,321
861.473022,320
861.590698,321
861.708191,315
861.825745,325
861.943298,329
862.060852,314
862.178406,314
862.295959,311
862.413513,295
862.531006,310
862.64856,292
862.766113,325
862.883667,301
863.00116,320
863.118713,313
863.236206,311
863.353699,310
863.471252,319
863.588745,313
863.706177,316
863.82373,313
863.941162,311
864.058716,307
864.176208,313
864.29364,304
864.411194,310
864.528687,321
864.646118,307
864.763611,311
864.881042,324
864.998535,311
865.116028,319
865.233459,318
865.350891,316
865.468384,299
865.585754,308
865.703308,314
865.820679,313
865.938171,311
866.055542,307
866.173035,302
866.290466,326
866.407837,315
866.52533,311
866.6427,313
866.760071,320
866.877563,321
866.994934,313
867.112305,314
867.229736,320
867.347107,307
867.464539,319
867.58197,316
867.699341,315
867.81665,317
867.934082,312
868.051453,311
868.168823,323
868.286194,295
868.403564,317
868.520935,309
868.638306,316
868.755676,309
868.872986,301
868.990295,326
869.107727,315
869.225037,317
869.342346,327
869.459717,315
869.577026,302
869.694336,308
869.811707,311
869.929016,313
870.046326,327
870.163635,303
870.280945,314
870.398254,325
870.515564,328
870.632812,297
870.750183,311
870.867432,319
870.984741,324
871.102051,304
871.219299,307
871.336609,321
871.453918,328
871.571106,312
871.688416,321
871.805664,317
871.922852,318
872.040222,305
872.157471,302
872.274719,310
872.391968,310
872.509155,315
872.626465,324
872.743652,309
872.860962,326
872.978149,301
873.095337,326
873.212646,308
873.329834,315
873.44696,303
873.564209,322
873.681396,318
873.798645,318
873.915894,315
874.03302,315
874.150208,306
874.267456,317
874.384583,309
874.501831,322
874.618958,310
874.736145,306
874.853333,308
874.970459,316
875.087646,319
875.204834,312
875.32196,307
875.439148,333
875.556274,313
875.673401,310
875.790527,307
875.907715,306
876.024841,308
876.141968,305
876.259094,316
876.376282,311
876.493347,314
876.610474,318
876.7276,307
876.844727,313
876.961853,304
877.078918,307
877.195984,302
877.313171,324
877.430237,319
877.547302,311
877.664368,310
877.781433,320
877.898499,315
878.015625,320
878.13269,308
878.249695,318
878.366821,306
878.483887,323
878.600952,310
878.717957,321
878.834961,322
878.952087,319
879.069092,325
879.186157,311
879.303162,307
879.420227,314
879.537231,309
879.654236,314
879.77124,320
879.888306,326
880.005249,310
880.122314,308
880.239319,298
880.356323,321
880.473328,321
880.590271,318
880.707275,315
880.824341,316
880.941284,307
881.058228,322
881.175232,308
881.292236,324
881.40918,310
881.526123,305
881.643066,303
881.760071,314
881.877014,333
881.993958,308
882.11084,325
882.227783,323
882.344727,310
882.46167,319
882.578613,310
882.695618,305
882.812439,309
882.929382,306
883.046326,308
883.163208,307
883.280151,325
883.397034,319
883.513916,312
883.630798,314
883.747742,310
883.864563,322
883.981506,308
884.098389,317
884.21521,317
884.332153,308
884.448975,321
884.565796,312
884.682678,311
884.7995,310
884.916443,305
885.033264,320
885.150085,317
885.266968,310
885.383789,321
885.500671,320
885.617493,319
885.734314,309
885.851196,322
885.967896,320
886.084717,308
886.201599,319
886.318359,311
886.435181,315
886.552002,309
886.668762,318
886.785645,327
886.902344,314
887.019165,309
887.135925,322
887.252747,310
887.369446,318
887.486267,296
887.603027,331
887.719788,316
887.836548,328
887.953247,316
888.070068,314
888.186829,308
888.303528,318
888.420288,323
888.536987,330
888.653687,316
888.770447,315
888.887146,316
889.003967,324
889.120667,324
889.237305,314
889.354065,314
889.470703,318
889.587463,310
889.704163,320
889.820862,309
889.937561,310
890.054199,314
890.170837,321
890.287598,309
890.404236,321
890.520874,319
890.637634,309
890.754211,321
890.87085,322
890.987549,334
891.104187,317
891.220886,316
891.337463,312
891.454102,316
891.57074,304
891.687378,319
891.804077,326
891.920654,303
892.037231,323
892.15387,313
892.270447,304
892.387085,304
892.503723,328
892.6203,318
892.736877,319
892.853516,311
892.970032,315
893.08667,294
893.203186,316
893.319763,308
893.43634,333
893.552917,306
893.669556,304
893.786011,313
893.902588,319
894.019165,313
894.135681,317
894.252197,315
894.368835,328
894.485291,304
894.601868,321
894.718384,324
894.8349,313
894.951355,316
895.067932,311
895.184448,301
895.300964,326
895.417419,299
895.533936,318
895.650452,314
895.766907,320
895.883423,318
895.999878,325
896.116333,331
896.232849,320
896.349304,313
896.465759,322
896.582214,311
896.698669,326
896.815125,325
896.931641,324
897.048035,321
897.164551,314
897.280884,312
897.397339,326
897.513794,317
897.630249,320
897.746582,308
897.863098,308
897.979431,312
898.095886,316
898.212341,318
898.328674,317
898.445129,321
898.561462,324
898.677795,318
898.794312,318
898.910645,326
899.026978,311
899.143433,309
899.259766,304
899.37616,326
899.492493,306
899.608765,314
899.725159,300
899.841553,310
899.957947,323
900.07428,313
900.190552,322
900.306946,308
900.423157,320
900.53949,325
900.655884,317
900.772156,314
900.888489,317
901.004822,311
901.121033,310
901.237366,322
901.353699,331
901.46991,315
901.586304,320
901.702515,314
901.818787,317
901.93512,319
902.051331,321
902.167603,312
902.283875,319
902.400085,311
902.516418,309
902.632629,301
902.74884,331
902.865112,320
902.981384,312
903.097595,318
903.213867,307
903.330017,303
903.446289,323
903.5625,310
903.67865,328
903.794922,317
903.911072,314
904.027344,316
904.143494,322
904.259705,304
904.375916,322
904.492065,302
904.608215,325
904.724426,316
904.840576,314
904.956726,316
905.072876,325
905.189087,317
905.305176,324
905.421387,316
905.537537,323
905.653687,319
905.769775,308
905.885925,301
906.002014,322
906.118164,317
906.234314,319
906.350403,318
906.466492,324
906.582642,308
906.69873,319
906.814758,296
906.930908,326
907.046936,314
907.163086,326
907.279175,306
907.395264,312
907.511353,314
907.62738,333
907.743408,321
907.859497,322
907.975525,315
908.091553,325
908.207703,310
908.32373,312
908.439758,316
908.555786,301
908.671814,296
908.787842,309
908.90387,316
909.019775,333
909.135864,311
909.251892,334
909.367859,298
909.483826,326
909.599854,315
909.715881,316
909.831848,318
909.947815,327
910.063782,322
910.179749,308
910.295776,305
910.411743,319
910.527649,314
910.643616,316
910.759583,302
910.875488,316
910.991455,317
911.107361,319
911.223267,307
911.339294,317
911.4552,321
911.571106,326
911.687073,311
911.802979,309
911.918823,304
912.034729,326
912.150635,319
912.266602,312
912.382446,309
912.498352,324
912.614197,320
912.730103,321
912.846008,305
792.44574,308
792.56488,341
792.68396,401
792.80304,393
792.92218,334
793.041199,310
793.160339,317
793.279419,332
793.398499,344
793.517578,317
793.636658,326
793.755737,329
793.874817,344
793.993896,355
794.112976,333
794.232056,328
794.351074,329
794.470215,337
794.589233,325
794.708313,321
794.827393,326
794.946411,340
795.065552,348
795.18457,336
795.303589,345
795.422668,337
795.541687,328
795.660767,339
795.779846,334
795.898865,319
796.017883,335
796.136963,338
796.255981,334
796.375061,327
796.49408,336
796.613037,337
796.732117,331
796.851135,336
796.970154,334
797.089233,326
797.208191,319
797.327271,321
797.446228,341
797.565186,330
797.684265,331
797.803223,313
797.922241,327
798.04126,319
798.160278,321
798.279297,324
798.398315,333
798.517273,326
798.636292,335
798.75531,320
798.874268,330
798.993286,327
799.112244,327
799.231323,335
799.350281,324
799.469238,332
799.588257,328
799.707153,320
799.826111,324
799.945129,324
800.064087,316
800.183044,341
800.302063,316
800.421021,342
800.539978,318
800.658936,329
800.777893,342
800.896912,312
801.015747,320
801.134705,333
801.253723,326
801.37262,326
801.491638,316
801.610535,331
801.729492,330
801.84845,319
801.967407,334
802.086243,316
802.205261,339
802.324158,321
802.443115,333
802.562073,337
802.680969,336
802.799927,325
802.918762,345
803.037659,335
803.156677,330
803.275574,322
803.39447,327
803.513428,325
803.632263,328
803.751221,334
803.870117,328
803.989014,317
804.107971,334
804.226746,314
804.345642,334
804.4646,346
804.583496,309
804.702393,323
804.821228,322
804.940125,318
805.059021,319
805.177917,327
805.296814,323
805.415649,346
805.534546,326
805.653442,334
805.772278,332
805.891113,321
806.01001,339
806.128906,329
806.247742,329
806.366577,331
806.485413,342
806.604309,343
806.723145,344
806.84198,318
806.960876,331
807.079712,337
807.198486,318
807.317383,331
807.436218,335
807.554993,321
807.673889,329
807.792725,332
807.91156,343
808.030396,323
808.14917,336
808.268005,325
808.386841,338
808.505676,321
808.624451,327
808.743286,328
808.862122,341
808.980896,337
809.099731,326
809.218506,332
809.337341,343
809.456116,339
809.57489,335
809.693726,335
809.8125,333
809.931274,315
810.050049,343
810.168884,335
810.287659,337
810.406372,328
810.525269,323
810.643982,326
810.762756,318
810.881531,333
811.000305,316
811.11908,328
811.237854,315
811.356567,328
811.475403,340
811.594116,344
811.71283,329
811.831604,324
811.950378,338
812.069153,325
812.187927,334
812.30658,328
812.425415,330
812.544128,339
812.662781,335
812.781616,343
812.900269,334
813.019043,346
813.137756,336
813.256531,335
813.375244,324
813.493896,335
813.612671,343
813.731384,330
813.850037,328
813.96875,336
814.087524,337
814.206238,333
814.324951,322
814.443604,340
814.562256,336
814.68103,331
814.799683,329
814.918335,319
815.037109,331
815.155762,318
815.274475,327
815.393188,328
815.511841,321
815.630554,351
815.749146,332
815.867859,327
815.986572,334
816.105164,333
816.223877,333
816.342529,339
816.461182,325
816.579895,335
816.698486,331
816.817139,328
816.935791,338
817.054504,327
817.173096,327
817.291748,332
817.4104,323
817.529053,334
817.647644,326
817.766235,326
817.884949,339
818.00354,321
818.122192,335
818.240845,318
818.359436,325
818.478088,332
818.59668,336
818.715271,304
818.833923,335
818.952515,326
819.071106,319
819.189758,323
819.30835,318
819.426941,323
819.545532,308
819.664124,322
819.782715,319
819.901306,312
820.019897,330
820.138489,321
820.25708,320
820.375671,314
820.494202,321
820.612732,323
820.731384,323
820.849915,321
820.968506,322
821.087097,313
821.205627,319
821.324158,328
821.442749,314
821.561279,312
821.679871,323
821.798401,320
821.916931,319
822.035461,324
822.154053,321
822.272583,319
822.391174,320
822.509583,317
822.628174,312
822.746704,305
822.865234,311
822.983765,323
823.102295,318
823.220825,312
823.339294,324
823.457825,327
823.576355,322
823.694824,321
823.813354,324
823.931885,321
824.050354,312
824.168884,330
824.287354,310
824.405823,308
824.524353,331
824.642822,313
824.761353,311
824.879822,322
824.998291,311
825.116699,324
825.235291,312
825.353699,325
825.472168,324
825.590637,308
825.709106,314
825.827576,317
825.946045,304
826.064453,323
826.182983,315
826.301392,322
826.4198,307
826.53833,301
826.656738,311
826.775208,323
826.893677,301
827.012024,311
827.130493,314
827.248962,318
827.36731,322
827.485779,331
827.604248,310
827.722595,310
827.841064,309
827.959412,313
828.077942,309
828.196289,306
828.314636,311
828.433105,315
828.551514,310
828.669861,327
828.78833,321
828.906677,321
829.025085,320
829.143433,300
829.261841,317
829.38031,296
829.498657,321
829.617004,314
829.735413,310
829.85376,335
829.972107,309
830.090515,317
830.208862,317
830.327209,316
830.445557,324
830.563904,301
830.682312,325
830.800659,308
830.919006,312
831.037354,310
831.155701,313
831.274048,326
831.392395,326
831.51062,315
831.629028,303
831.747314,313
831.865662,312
831.984009,303
832.102356,318
832.220642,309
832.338928,327
832.457275,310
832.575623,322
832.693909,312
832.812134,315
832.930481,318
833.048828,311
833.167114,317
833.2854,321
833.403687,322
833.521973,326
833.640259,304
833.758545,330
833.876831,305
833.995056,318
834.113281,304
834.231628,303
834.349915,311
834.468201,331
834.586426,314
834.704651,317
834.822998,309
834.941162,315
835.059448,311
835.177673,314
835.295959,296
835.414246,329
835.53241,318
835.650635,319
835.768921,314
835.887146,313
836.005371,317
836.123596,317
836.241821,301
836.360046,332
836.478271,316
836.596497,316
836.714722,308
836.832886,320
836.95105,324
837.069336,325
837.1875,312
837.305725,318
837.423889,308
837.542053,328
837.660339,302
837.778503,322
837.896667,318
838.014832,330
838.132996,317
838.25116,309
838.369385,310
838.487488,322
838.605713,331
838.723877,319
838.84198,314
838.960205,327
839.078308,307
839.196472,321
839.314636,308
839.4328,314
839.550964,328
839.669067,316
839.787231,320
839.905396,327
840.023499,301
840.141602,311
840.259766,310
840.377869,315
840.495972,315
840.614136,322
840.732239,320
840.850342,312
840.968445,317
841.086548,324
841.204651,314
841.322754,308
841.440918,299
841.55896,321
841.677002,313
841.795166,320
841.913208,310
842.031311,322
842.149353,315
842.267456,302
842.385498,318
842.503601,307
842.621643,312
842.739746,315
842.857788,299
842.97583,305
843.093933,311
843.211975,312
843.330017,316
843.44812,323
843.566101,312
843.684204,320
843.802246,304
843.920227,320
844.038269,314
844.156311,300
844.274292,331
844.392395,309
844.510376,316
844.628357,319
844.74646,304
844.864441,315
844.982422,312
845.100403,319
845.218384,305
845.336426,313
845.454468,302
845.572449,306
845.69043,314
845.808411,317
845.926453,307
846.044373,316
846.162354,318
846.280396,306
846.398315,308
846.516296,329
846.634216,311
846.752197,317
846.870178,318
846.988098,328
847.106079,313
847.22406,327
847.34198,311
847.4599,315
847.577881,316
847.695801,302
847.813782,308
847.931641,309
848.049561,315
848.167603,319
848.285461,310
848.403381,307
848.521362,311
848.639221,319
848.75708,315
848.875,315
848.99292,312
849.110901,312
849.22876,321
849.34668,314
849.464539,310
849.582458,305
849.700317,306
849.818176,315
849.936096,305
850.053955,313
850.171875,291
850.289673,310
850.407593,311
850.525452,325
850.643311,327
850.761169,318
850.878967,321
850.996887,324
851.114746,316
851.232544,319
851.350403,311
851.468262,325
851.58606,307
851.703979,313
851.821777,301
851.939636,320
852.057434,314
852.175232,319
852.293091,315
852.410889,305
852.528687,310
852.646545,312
852.764343,314
852.88208,312
852.999939,332
853.117676,319
853.235535,312
853.353271,320
853.471069,303
853.588928,316
853.706604,312
853.824402,316
853.9422,316
854.059998,308
854.177734,304
854.295532,311
854.413269,311
854.531006,310
854.648804,324
854.766541,313
854.884277,315
855.002014,321
855.119751,317
855.237549,302
855.355225,315
855.473022,329
855.590698,314
855.708435,320
855.826172,315
855.943848,334
856.061646,320
856.179321,317
856.296997,324
856.414795,316
856.53241,307
856.650085,308
856.767822,312
856.885559,318
857.003174,321
857.120911,309
857.238586,304
857.356201,309
857.473938,313
857.591614,320
857.709351,316
857.826965,312
857.944641,311
858.062317,318
858.179993,317
858.297668,318
858.415283,306
858.532959,314
858.650574,316
858.768188,314
858.885803,317
859.003479,315
859.121094,304
859.23877,327
859.356384,305
859.473999,303
859.591675,313
859.709229,323
859.826843,300
859.944458,318
860.062012,304
860.179626,324
860.297302,301
860.414856,308
860.532471,306
860.650024,309
860.767639,308
860.885193,309
861.002808,317
861.120361,307
861.237976,310
861.35553,308
861.473022,296
861.590698,315
861.708191,315
861.825745,318
861.943298,313
862.060852,314
862.178406,309
862.295959,309
862.413513,311
862.531006,312
862.64856,308
862.766113,318
862.883667,319
863.00116,309
863.118713,322
863.236206,334
863.353699,316
863.471252,317
863.588745,318
863.706177,306
863.82373,318
863.941162,325
864.058716,307
864.176208,315
864.29364,310
864.411194,311
864.528687,319
864.646118,312
864.763611,313
864.881042,306
864.998535,308
865.116028,313
865.233459,312
865.350891,317
865.468384,320
865.585754,314
865.703308,301
865.820679,329
865.938171,311
866.055542,310
866.173035,299
866.290466,305
866.407837,309
866.52533,313
866.6427,305
866.760071,321
866.877563,297
866.994934,317
867.112305,305
867.229736,321
867.347107,320
867.464539,320
867.58197,312
867.699341,317
867.81665,311
867.934082,306
868.051453,314
868.168823,316
868.286194,324
868.403564,315
868.520935,321
868.638306,320
868.755676,321
868.872986,315
868.990295,301
869.107727,319
869.225037,326
869.342346,317
869.459717,314
869.577026,309
869.694336,313
869.811707,325
869.929016,317
870.046326,308
870.163635,312
870.280945,313
870.398254,325
870.515564,310
870.632812,299
870.750183,323
870.867432,302
870.984741,318
871.102051,317
871.219299,317
871.336609,318
871.453918,315
871.571106,325
871.688416,315
871.805664,307
871.922852,314
872.040222,321
872.157471,323
872.274719,304
872.391968,319
872.509155,315
872.626465,322
872.743652,320
872.860962,311
872.978149,306
873.095337,312
873.212646,308
873.329834,315
873.44696,300
873.564209,326
873.681396,307
873.798645,312
873.915894,324
874.03302,316
874.150208,305
874.267456,314
874.384583,312
874.501831,319
874.618958,324
874.736145,313
874.853333,305
874.970459,317
875.087646,301
875.204834,328
875.32196,321
875.439148,310
875.556274,310
875.673401,312
875.790527,309
875.907715,327
876.024841,327
876.141968,317
876.259094,308
876.376282,310
876.493347,309
876.610474,307
876.7276,311
876.844727,316
876.961853,331
877.078918,323
877.195984,304
877.313171,315
877.430237,314
877.547302,321
877.664368,304
877.781433,331
877.898499,338
878.015625,321
878.13269,293
878.249695,313
878.366821,310
878.483887,315
878.600952,307
878.717957,315
878.834961,311
878.952087,330
879.069092,309
879.186157,333
879.303162,324
879.420227,309
879.537231,301
879.654236,314
879.77124,311
879.888306,318
880.005249,301
880.122314,305
880.239319,319
880.356323,321
880.473328,303
880.590271,324
880.707275,312
880.824341,313
880.941284,311
881.058228,323
881.175232,306
881.292236,321
881.40918,313
881.526123,329
881.643066,306
881.760071,318
881.877014,323
881.993958,321
882.11084,313
882.227783,311
882.344727,306
882.46167,296
882.578613,313
882.695618,310
882.812439,315
882.929382,328
883.046326,314
883.163208,301
883.280151,305
883.397034,316
883.513916,310
883.630798,299
883.747742,321
883.864563,311
883.981506,313
884.098389,319
884.21521,303
884.332153,314
884.448975,323
884.565796,316
884.682678,305
884.7995,314
884.916443,312
885.033264,316
885.150085,316
885.266968,319
885.383789,309
885.500671,321
885.617493,320
885.734314,320
885.851196,311
885.967896,315
886.084717,307
886.201599,328
886.318359,320
886.435181,302
886.552002,314
886.668762,317
886.785645,317
886.902344,331
887.019165,312
887.135925,324
887.252747,307
887.369446,317
887.486267,314
887.603027,309
887.719788,313
887.836548,298
887.953247,320
888.070068,326
888.186829,312
888.303528,319
888.420288,299
888.536987,313
888.653687,308
888.770447,314
888.887146,297
889.003967,321
889.120667,318
889.237305,325
889.354065,312
889.470703,301
889.587463,313
889.704163,316
889.820862,316
889.937561,320
890.054199,299
890.170837,309
890.287598,317
890.404236,322
890.520874,315
890.637634,315
890.754211,306
890.87085,325
890.987549,319
891.104187,313
891.220886,308
891.337463,317
891.454102,309
891.57074,309
891.687378,307
891.804077,324
891.920654,302
892.037231,309
892.15387,305
892.270447,310
892.387085,314
892.503723,322
892.6203,313
892.736877,343
892.853516,312
892.970032,321
893.08667,309
893.203186,324
893.319763,314
893.43634,315
893.552917,306
893.669556,312
893.786011,313
893.902588,321
894.019165,320
894.135681,321
894.252197,307
894.368835,314
894.485291,303
894.601868,324
894.718384,308
894.8349,320
894.951355,318
895.067932,315
895.184448,306
895.300964,308
895.417419,315
895.533936,329
895.650452,328
895.766907,311
895.883423,314
895.999878,330
896.116333,309
896.232849,312
896.349304,311
896.465759,324
896.582214,315
896.698669,312
896.815125,314
896.931641,303
897.048035,309
897.164551,323
897.280884,314
897.397339,316
897.513794,317
897.630249,313
897.746582,318
897.863098,321
897.979431,323
898.095886,321
898.212341,323
898.328674,316
898.445129,323
898.561462,325
898.677795,302
898.794312,320
898.910645,315
899.026978,316
899.143433,306
899.259766,310
899.37616,311
899.492493,320
899.608765,320
899.725159,308
899.841553,313
899.957947,312
900.07428,313
900.190552,323
900.306946,322
900.423157,307
900.53949,316
900.655884,327
900.772156,316
900.888489,311
901.004822,319
901.121033,314
901.237366,297
901.353699,313
901.46991,321
901.586304,312
901.702515,314
901.818787,309
901.93512,312
902.051331,327
902.167603,311
902.283875,322
902.400085,303
902.516418,327
902.632629,311
902.74884,316
902.865112,310
902.981384,317
903.097595,320
903.213867,319
903.330017,311
903.446289,333
903.5625,318
903.67865,320
903.794922,311
903.911072,315
904.027344,321
904.143494,305
904.259705,314
904.375916,330
904.492065,317
904.608215,309
904.724426,316
904.840576,322
904.956726,313
905.072876,316
905.189087,307
905.305176,310
905.421387,317
905.537537,320
905.653687,320
905.769775,316
905.885925,317
906.002014,323
906.118164,317
906.234314,314
906.350403,316
906.466492,325
906.582642,307
906.69873,318
906.814758,305
906.930908,313
907.046936,321
907.163086,307
907.279175,314
907.395264,321
907.511353,310
907.62738,314
907.743408,321
907.859497,316
907.975525,310
908.091553,310
908.207703,321
908.32373,321
908.439758,312
908.555786,319
908.671814,323
908.787842,324
908.90387,321
909.019775,326
909.135864,304
909.251892,313
909.367859,307
909.483826,320
909.599854,310
909.715881,322
909.831848,320
909.947815,325
910.063782,314
910.179749,314
910.295776,307
910.411743,318
910.527649,317
910.643616,341
910.759583,304
910.875488,313
910.991455,301
911.107361,313
911.223267,311
911.339294,319
911.4552,314
911.571106,322
911.687073,309
911.802979,314
911.918823,311
912.034729,318
912.150635,321
912.266602,303
912.382446,317
912.498352,305
912.614197,313
912.730103,312
912.846008,312
