792.44574,316
792.56488,364
792.68396,397
792.80304,381
792.92218,333
793.041199,319
793.160339,328
793.279419,336
793.398499,321
793.517578,322
793.636658,321
793.755737,343
793.874817,347
793.993896,345
794.112976,335
794.232056,318
794.351074,331
794.470215,339
794.589233,335
794.708313,321
794.827393,325
794.946411,337
795.065552,348
795.18457,330
795.303589,342
795.422668,331
795.541687,346
795.660767,321
795.779846,325
795.898865,327
796.017883,345
796.136963,321
796.255981,325
796.375061,332
796.49408,346
796.613037,342
796.732117,324
796.851135,323
796.970154,335
797.089233,339
797.208191,328
797.327271,334
797.446228,330
797.565186,332
797.684265,325
797.803223,321
797.922241,331
798.04126,322
798.160278,335
798.279297,330
798.398315,329
798.517273,325
798.636292,325
798.75531,324
798.874268,329
798.993286,337
799.112244,332
799.231323,315
799.350281,335
799.469238,320
799.588257,327
799.707153,323
799.826111,324
799.945129,311
800.064087,321
800.183044,338
800.302063,335
800.421021,326
800.539978,322
800.658936,324
800.777893,335
800.896912,336
801.015747,330
801.134705,321
801.253723,325
801.37262,325
801.491638,320
801.610535,330
801.729492,341
801.84845,335
801.967407,313
802.086243,335
802.205261,315
802.324158,343
802.443115,330
802.562073,342
802.680969,317
802.799927,337
802.918762,336
803.037659,327
803.156677,340
803.275574,330
803.39447,335
803.513428,340
803.632263,329
803.751221,331
803.870117,347
803.989014,334
804.107971,327
804.226746,337
804.345642,333
804.4646,329
804.583496,334
804.702393,314
804.821228,346
804.940125,328
805.059021,344
805.177917,331
805.296814,329
805.415649,335
805.534546,338
805.653442,343
805.772278,325
805.891113,332
806.01001,327
806.128906,332
806.247742,332
806.366577,317
806.485413,329
806.604309,337
806.723145,329
806.84198,340
806.960876,336
807.079712,333
807.198486,328
807.317383,332
807.436218,330
807.554993,328
807.673889,332
807.792725,327
807.91156,345
808.030396,338
808.14917,323
808.268005,344
808.386841,343
808.505676,323
808.624451,332
808.743286,345
808.862122,328
808.980896,309
809.099731,331
809.218506,337
809.337341,353
809.456116,345
809.57489,334
809.693726,327
809.8125,333
809.931274,306
810.050049,324
810.168884,326
810.287659,340
810.406372,338
810.525269,323
810.643982,331
810.762756,341
810.881531,341
811.000305,325
811.11908,329
811.237854,335
811.356567,339
811.475403,340
811.594116,327
811.71283,342
811.831604,326
811.950378,345
812.069153,320
812.187927,342
812.30658,330
812.425415,327
812.544128,349
812.662781,334
812.781616,342
812.900269,342
813.019043,338
813.137756,340
813.256531,332
813.375244,337
813.493896,341
813.612671,335
813.731384,336
813.850037,332
813.96875,335
814.087524,358
814.206238,342
814.324951,342
814.443604,339
814.562256,335
814.68103,337
814.799683,321
814.918335,336
815.037109,332
815.155762,330
815.274475,335
815.393188,328
815.511841,340
815.630554,326
815.749146,323
815.867859,331
815.986572,329
816.105164,334
816.223877,319
816.342529,354
816.461182,338
816.579895,333
816.698486,327
816.817139,345
816.935791,341
817.054504,331
817.173096,330
817.291748,342
817.4104,342
817.529053,331
817.647644,346
817.766235,334
817.884949,324
818.00354,319
818.122192,326
818.240845,335
818.359436,334
818.478088,324
818.59668,325
818.715271,325
818.833923,327
818.952515,321
819.071106,324
819.189758,316
819.30835,328
819.426941,320
819.545532,338
819.664124,320
819.782715,318
819.901306,305
820.019897,327
820.138489,323
820.25708,311
820.375671,313
820.494202,316
820.612732,328
820.731384,316
820.849915,323
820.968506,316
821.087097,321
821.205627,324
821.324158,312
821.442749,336
821.561279,321
821.679871,322
821.798401,322
821.916931,314
822.035461,341
822.154053,329
822.272583,318
822.391174,317
822.509583,328
822.628174,312
822.746704,330
822.865234,323
822.983765,319
823.102295,317
823.220825,328
823.339294,320
823.457825,319
823.576355,316
823.694824,313
823.813354,313
823.931885,318
824.050354,323
824.168884,323
824.287354,325
824.405823,318
824.524353,322
824.642822,331
824.761353,325
824.879822,316
824.998291,310
825.116699,328
825.235291,322
825.353699,326
825.472168,307
825.590637,313
825.709106,324
825.827576,315
825.946045,306
826.064453,318
826.182983,322
826.301392,301
826.4198,325
826.53833,324
826.656738,313
826.775208,319
826.893677,316
827.012024,322
827.130493,310
827.248962,324
827.36731,330
827.485779,317
827.604248,312
827.722595,324
827.841064,318
827.959412,313
828.077942,325
828.196289,318
828.314636,317
828.433105,310
828.551514,325
828.669861,321
828.78833,323
828.906677,325
829.025085,321
829.143433,307
829.261841,320
829.38031,313
829.498657,313
829.617004,314
829.735413,329
829.85376,321
829.972107,315
830.090515,321
830.208862,313
830.327209,320
830.445557,314
830.563904,318
830.682312,307
830.800659,313
830.919006,318
831.037354,313
831.155701,322
831.274048,310
831.392395,308
831.51062,331
831.629028,302
831.747314,313
831.865662,306
831.984009,314
832.102356,329
832.220642,315
832.338928,310
832.457275,322
832.575623,319
832.693909,326
832.812134,305
832.930481,326
833.048828,311
833.167114,301
833.2854,322
833.403687,314
833.521973,322
833.640259,312
833.758545,314
833.876831,318
833.995056,317
834.113281,331
834.231628,306
834.349915,318
834.468201,315
834.586426,323
834.704651,310
834.822998,319
834.941162,325
835.059448,318
835.177673,316
835.295959,324
835.414246,312
835.53241,324
835.650635,316
835.768921,319
835.887146,310
836.005371,317
836.123596,331
836.241821,313
836.360046,321
836.478271,321
836.596497,326
836.714722,317
836.832886,324
836.95105,317
837.069336,318
837.1875,313
837.305725,315
837.423889,314
837.542053,330
837.660339,319
837.778503,311
837.896667,327
838.014832,318
838.132996,323
838.25116,303
838.369385,320
838.487488,316
838.605713,322
838.723877,315
838.84198,329
838.960205,326
839.078308,316
839.196472,313
839.314636,324
839.4328,328
839.550964,316
839.669067,316
839.787231,313
839.905396,325
840.023499,319
840.141602,318
840.259766,316
840.377869,321
840.495972,309
840.614136,317
840.732239,326
840.850342,316
840.968445,316
841.086548,319
841.204651,323
841.322754,325
841.440918,322
841.55896,324
841.677002,316
841.795166,333
841.913208,319
842.031311,308
842.149353,312
842.267456,320
842.385498,321
842.503601,325
842.621643,310
842.739746,322
842.857788,321
842.97583,323
843.093933,319
843.211975,307
843.330017,309
843.44812,317
843.566101,311
843.684204,302
843.802246,320
843.920227,296
844.038269,313
844.156311,313
844.274292,317
844.392395,320
844.510376,311
844.628357,314
844.74646,316
844.864441,317
844.982422,320
845.100403,316
845.218384,312
845.336426,311
845.454468,317
845.572449,310
845.69043,313
845.808411,313
845.926453,322
846.044373,316
846.162354,318
846.280396,311
846.398315,326
846.516296,319
846.634216,313
846.752197,316
846.870178,319
846.988098,308
847.106079,320
847.22406,329
847.34198,306
847.4599,314
847.577881,322
847.695801,312
847.813782,332
847.931641,296
848.049561,322
848.167603,310
848.285461,311
848.403381,321
848.521362,309
848.639221,314
848.75708,310
848.875,314
848.99292,312
849.110901,312
849.22876,308
849.34668,324
849.464539,316
849.582458,308
849.700317,308
849.818176,333
849.936096,310
850.053955,310
850.171875,325
850.289673,291
850.407593,320
850.525452,319
850.643311,316
850.761169,312
850.878967,319
850.996887,315
851.114746,314
851.232544,317
851.350403,323
851.468262,318
851.58606,325
851.703979,306
851.821777,314
851.939636,313
852.057434,305
852.175232,330
852.293091,326
852.410889,320
852.528687,312
852.646545,316
852.764343,316
852.88208,312
852.999939,305
853.117676,303
853.235535,325
853.353271,309
853.471069,320
853.588928,324
853.706604,311
853.824402,320
853.9422,330
854.059998,306
854.177734,307
854.295532,313
854.413269,323
854.531006,309
854.648804,315
854.766541,318
854.884277,316
855.002014,304
855.119751,317
855.237549,311
855.355225,333
855.473022,324
855.590698,317
855.708435,317
855.826172,324
855.943848,315
856.061646,319
856.179321,322
856.296997,320
856.414795,325
856.53241,326
856.650085,314
856.767822,303
856.885559,306
857.003174,320
857.120911,324
857.238586,310
857.356201,312
857.473938,307
857.591614,315
857.709351,320
857.826965,308
857.944641,323
858.062317,317
858.179993,312
858.297668,316
858.415283,321
858.532959,318
858.650574,312
858.768188,302
858.885803,321
859.003479,313
859.121094,311
859.23877,323
859.356384,323
859.473999,323
859.591675,311
859.709229,312
859.826843,309
859.944458,298
860.062012,325
860.179626,311
860.297302,317
860.414856,314
860.532471,314
860.650024,319
860.767639,318
860.885193,301
861.002808,311
861.120361,316
861.237976,322
861.35553,312
861.473022,320
861.590698,330
861.708191,313
861.825745,315
861.943298,317
862.060852,322
862.178406,309
862.295959,322
862.413513,323
862.531006,314
862.64856,319
862.766113,312
862.883667,309
863.00116,310
863.118713,311
863.236206,315
863.353699,320
863.471252,317
863.588745,308
863.706177,309
863.82373,315
863.941162,309
864.058716,323
864.176208,315
864.29364,308
864.411194,319
864.528687,315
864.646118,315
864.763611,321
864.881042,316
864.998535,305
865.116028,316
865.233459,319
865.350891,314
865.468384,310
865.585754,317
865.703308,319
865.820679,319
865.938171,318
866.055542,314
866.173035,328
866.290466,323
866.407837,311
866.52533,328
866.6427,322
866.760071,309
866.877563,320
866.994934,316
867.112305,322
867.229736,325
867.347107,314
867.464539,317
867.58197,312
867.699341,313
867.81665,315
867.934082,321
868.051453,312
868.168823,316
868.286194,324
868.403564,319
868.520935,327
868.638306,311
868.755676,315
868.872986,312
868.990295,315
869.107727,317
869.225037,312
869.342346,312
869.459717,325
869.577026,322
869.694336,305
869.811707,321
869.929016,323
870.046326,309
870.163635,313
870.280945,321
870.398254,305
870.515564,319
870.632812,319
870.750183,314
870.867432,320
870.984741,323
871.102051,319
871.219299,303
871.336609,312
871.453918,308
871.571106,318
871.688416,310
871.805664,305
871.922852,327
872.040222,310
872.157471,314
872.274719,329
872.391968,321
872.509155,315
872.626465,328
872.743652,327
872.860962,311
872.978149,323
873.095337,317
873.212646,320
873.329834,312
873.44696,329
873.564209,300
873.681396,332
873.798645,323
873.915894,312
874.03302,321
874.150208,311
874.267456,325
874.384583,320
874.501831,310
874.618958,319
874.736145,308
874.853333,323
874.970459,311
875.087646,318
875.204834,329
875.32196,313
875.439148,307
875.556274,304
875.673401,314
875.790527,311
875.907715,314
876.024841,303
876.141968,324
876.259094,320
876.376282,312
876.493347,328
876.610474,312
876.7276,317
876.844727,316
876.961853,318
877.078918,322
877.195984,318
877.313171,310
877.430237,313
877.547302,306
877.664368,315
877.781433,310
877.898499,304
878.015625,315
878.13269,318
878.249695,317
878.366821,325
878.483887,297
878.600952,316
878.717957,313
878.834961,328
878.952087,308
879.069092,314
879.186157,311
879.303162,309
879.420227,300
879.537231,321
879.654236,316
879.77124,321
879.888306,321
880.005249,322
880.122314,308
880.239319,322
880.356323,316
880.473328,314
880.590271,318
880.707275,321
880.824341,319
880.941284,324
881.058228,315
881.175232,324
881.292236,327
881.40918,312
881.526123,322
881.643066,311
881.760071,315
881.877014,311
881.993958,319
882.11084,313
882.227783,309
882.344727,325
882.46167,314
882.578613,316
882.695618,324
882.812439,314
882.929382,315
883.046326,313
883.163208,310
883.280151,321
883.397034,315
883.513916,317
883.630798,321
883.747742,314
883.864563,309
883.981506,329
884.098389,313
884.21521,315
884.332153,316
884.448975,328
884.565796,313
884.682678,324
884.7995,326
884.916443,310
885.033264,317
885.150085,317
885.266968,323
885.383789,321
885.500671,321
885.617493,313
885.734314,320
885.851196,323
885.967896,315
886.084717,323
886.201599,324
886.318359,307
886.435181,301
886.552002,308
886.668762,304
886.785645,324
886.902344,321
887.019165,324
887.135925,311
887.252747,318
887.369446,318
887.486267,315
887.603027,319
887.719788,312
887.836548,311
887.953247,328
888.070068,320
888.186829,314
888.303528,315
888.420288,329
888.536987,303
888.653687,320
888.770447,323
888.887146,302
889.003967,313
889.120667,313
889.237305,330
889.354065,325
889.470703,312
889.587463,323
889.704163,316
889.820862,311
889.937561,318
890.054199,311
890.170837,312
890.287598,308
890.404236,312
890.520874,324
890.637634,308
890.754211,304
890.87085,312
890.987549,316
891.104187,315
891.220886,319
891.337463,312
891.454102,313
891.57074,317
891.687378,320
891.804077,316
891.920654,312
892.037231,319
892.15387,306
892.270447,318
892.387085,318
892.503723,312
892.6203,327
892.736877,318
892.853516,335
892.970032,311
893.08667,312
893.203186,312
893.319763,318
893.43634,319
893.552917,316
893.669556,306
893.786011,295
893.902588,313
894.019165,326
894.135681,308
894.252197,312
894.368835,311
894.485291,311
894.601868,319
894.718384,330
894.8349,316
894.951355,326
895.067932,313
895.184448,317
895.300964,327
895.417419,316
895.533936,296
895.650452,326
895.766907,317
895.883423,326
895.999878,303
896.116333,329
896.232849,321
896.349304,322
896.465759,307
896.582214,322
896.698669,313
896.815125,311
896.931641,327
897.048035,319
897.164551,339
897.280884,312
897.397339,329
897.513794,324
897.630249,321
897.746582,317
897.863098,322
897.979431,324
898.095886,329
898.212341,326
898.328674,314
898.445129,323
898.561462,299
898.677795,320
898.794312,335
898.910645,316
899.026978,316
899.143433,309
899.259766,311
899.37616,310
899.492493,305
899.608765,320
899.725159,316
899.841553,313
899.957947,323
900.07428,311
900.190552,311
900.306946,315
900.423157,305
900.53949,322
900.655884,308
900.772156,317
900.888489,323
901.004822,319
901.121033,321
901.237366,301
901.353699,314
901.46991,321
901.586304,327
901.702515,322
901.818787,302
901.93512,314
902.051331,307
902.167603,326
902.283875,328
902.400085,321
902.516418,330
902.632629,302
902.74884,325
902.865112,318
902.981384,317
903.097595,318
903.213867,306
903.330017,320
903.446289,327
903.5625,327
903.67865,311
903.794922,321
903.911072,328
904.027344,329
904.143494,311
904.259705,306
904.375916,301
904.492065,322
904.608215,307
904.724426,317
904.840576,323
904.956726,316
905.072876,317
905.189087,317
905.305176,314
905.421387,321
905.537537,300
905.653687,316
905.769775,329
905.885925,302
906.002014,307
906.118164,313
906.234314,324
906.350403,320
906.466492,315
906.582642,320
906.69873,314
906.814758,324
906.930908,323
907.046936,322
907.163086,314
907.279175,317
907.395264,323
907.511353,322
907.62738,322
907.743408,311
907.859497,322
907.975525,320
908.091553,321
908.207703,312
908.32373,328
908.439758,322
908.555786,325
908.671814,314
908.787842,299
908.90387,313
909.019775,304
909.135864,316
909.251892,314
909.367859,308
909.483826,315
909.599854,320
909.715881,328
909.831848,313
909.947815,314
910.063782,318
910.179749,320
910.295776,316
910.411743,302
910.527649,324
910.643616,319
910.759583,320
910.875488,323
910.991455,319
911.107361,311
911.223267,305
911.339294,300
911.4552,314
911.571106,320
911.687073,308
911.802979,318
911.918823,307
912.034729,311
912.150635,320
912.266602,323
912.382446,329
912.498352,311
912.614197,325
912.730103,296
912.846008,308
792.44574,319
792.56488,355
792.68396,414
792.80304,380
792.92218,337
793.041199,321
793.160339,322
793.279419,333
793.398499,338
793.517578,322
793.636658,327
793.755737,337
793.874817,359
793.993896,337
794.112976,344
794.232056,321
794.351074,349
794.470215,333
794.589233,335
794.708313,317
794.827393,325
794.946411,339
795.065552,331
795.18457,338
795.303589,328
795.422668,330
795.541687,326
795.660767,324
795.779846,336
795.898865,323
796.017883,333
796.136963,337
796.255981,325
796.375061,331
796.49408,329
796.613037,320
796.732117,349
796.851135,326
796.970154,337
797.089233,335
797.208191,320
797.327271,354
797.446228,329
797.565186,337
797.684265,321
797.803223,329
797.922241,334
798.04126,336
798.160278,324
798.279297,329
798.398315,325
798.517273,336
798.636292,339
798.75531,327
798.874268,342
798.993286,328
799.112244,328
799.231323,327
799.350281,322
799.469238,338
799.588257,331
799.707153,339
799.826111,316
799.945129,326
800.064087,336
800.183044,317
800.302063,334
800.421021,328
800.539978,341
800.658936,337
800.777893,325
800.896912,335
801.015747,331
801.134705,326
801.253723,338
801.37262,336
801.491638,338
801.610535,321
801.729492,336
801.84845,324
801.967407,330
802.086243,326
802.205261,329
802.324158,336
802.443115,334
802.562073,324
802.680969,320
802.799927,335
802.918762,322
803.037659,340
803.156677,321
803.275574,332
803.39447,332
803.513428,325
803.632263,335
803.751221,336
803.870117,344
803.989014,335
804.107971,327
804.226746,336
804.345642,333
804.4646,341
804.583496,327
804.702393,335
804.821228,319
804.940125,331
805.059021,349
805.177917,336
805.296814,336
805.415649,329
805.534546,324
805.653442,340
805.772278,324
805.891113,331
806.01001,327
806.128906,343
806.247742,336
806.366577,342
806.485413,336
806.604309,336
806.723145,334
806.84198,333
806.960876,338
807.079712,331
807.198486,321
807.317383,331
807.436218,341
807.554993,346
807.673889,325
807.792725,329
807.91156,337
808.030396,334
808.14917,326
808.268005,310
808.386841,336
808.505676,325
808.624451,324
808.743286,326
808.862122,320
808.980896,332
809.099731,341
809.218506,342
809.337341,327
809.456116,337
809.57489,339
809.693726,323
809.8125,337
809.931274,325
810.050049,336
810.168884,332
810.287659,343
810.406372,331
810.525269,331
810.643982,335
810.762756,343
810.881531,328
811.000305,334
811.11908,330
811.237854,331
811.356567,333
811.475403,341
811.594116,330
811.71283,332
811.831604,311
811.950378,343
812.069153,340
812.187927,338
812.30658,327
812.425415,339
812.544128,322
812.662781,324
812.781616,333
812.900269,336
813.019043,326
813.137756,333
813.256531,327
813.375244,343
813.493896,348
813.612671,322
813.731384,327
813.850037,340
813.96875,320
814.087524,342
814.206238,333
814.324951,321
814.443604,327
814.562256,328
814.68103,345
814.799683,328
814.918335,324
815.037109,340
815.155762,329
815.274475,330
815.393188,341
815.511841,332
815.630554,331
815.749146,335
815.867859,309
815.986572,328
816.105164,331
816.223877,350
816.342529,325
816.461182,337
816.579895,333
816.698486,333
816.817139,329
816.935791,331
817.054504,339
817.173096,330
817.291748,321
817.4104,327
817.529053,339
817.647644,338
817.766235,326
817.884949,330
818.00354,328
818.122192,328
818.240845,333
818.359436,333
818.478088,327
818.59668,323
818.715271,311
818.833923,330
818.952515,318
819.071106,324
819.189758,323
819.30835,318
819.426941,320
819.545532,324
819.664124,312
819.782715,323
819.901306,319
820.019897,313
820.138489,318
820.25708,315
820.375671,334
820.494202,330
820.612732,318
820.731384,315
820.849915,329
820.968506,318
821.087097,312
821.205627,323
821.324158,334
821.442749,313
821.561279,315
821.679871,309
821.798401,312
821.916931,313
822.035461,327
822.154053,321
822.272583,313
822.391174,318
822.509583,314
822.628174,327
822.746704,312
822.865234,340
822.983765,325
823.102295,320
823.220825,313
823.339294,320
823.457825,309
823.576355,322
823.694824,319
823.813354,312
823.931885,316
824.050354,317
824.168884,312
824.287354,325
824.405823,316
824.524353,318
824.642822,321
824.761353,328
824.879822,308
824.998291,308
825.116699,301
825.235291,318
825.353699,317
825.472168,311
825.590637,321
825.709106,322
825.827576,309
825.946045,309
826.064453,331
826.182983,318
826.301392,325
826.4198,318
826.53833,315
826.656738,319
826.775208,317
826.893677,324
827.012024,319
827.130493,327
827.248962,315
827.36731,324
827.485779,326
827.604248,323
827.722595,316
827.841064,320
827.959412,317
828.077942,318
828.196289,312
828.314636,322
828.433105,306
828.551514,317
828.669861,317
828.78833,309
828.906677,297
829.025085,312
829.143433,317
829.261841,310
829.38031,322
829.498657,318
829.617004,312
829.735413,328
829.85376,321
829.972107,315
830.090515,316
830.208862,310
830.327209,315
830.445557,319
830.563904,312
830.682312,316
830.800659,313
830.919006,317
831.037354,307
831.155701,324
831.274048,311
831.392395,325
831.51062,319
831.629028,314
831.747314,313
831.865662,323
831.984009,301
832.102356,313
832.220642,320
832.338928,316
832.457275,308
832.575623,313
832.693909,308
832.812134,324
832.930481,309
833.048828,313
833.167114,322
833.2854,313
833.403687,319
833.521973,313
833.640259,326
833.758545,315
833.876831,323
833.995056,306
834.113281,327
834.231628,327
834.349915,320
834.468201,330
834.586426,306
834.704651,332
834.822998,309
834.941162,309
835.059448,318
835.177673,323
835.295959,322
835.414246,307
835.53241,326
835.650635,325
835.768921,314
835.887146,329
836.005371,313
836.123596,307
836.241821,314
836.360046,310
836.478271,316
836.596497,321
836.714722,327
836.832886,313
836.95105,320
837.069336,331
837.1875,312
837.305725,300
837.423889,319
837.542053,312
837.660339,329
837.778503,311
837.896667,322
838.014832,316
838.132996,303
838.25116,318
838.369385,316
838.487488,315
838.605713,338
838.723877,317
838.84198,307
838.960205,338
839.078308,315
839.196472,315
839.314636,311
839.4328,314
839.550964,327
839.669067,320
839.787231,310
839.905396,321
840.023499,313
840.141602,322
840.259766,311
840.377869,321
840.495972,308
840.614136,327
840.732239,315
840.850342,331
840.968445,310
841.086548,325
841.204651,316
841.322754,306
841.440918,312
841.55896,313
841.677002,313
841.795166,316
841.913208,319
842.031311,308
842.149353,325
842.267456,308
842.385498,295
842.503601,321
842.621643,317
842.739746,321
842.857788,330
842.97583,320
843.093933,316
843.211975,323
843.330017,309
843.44812,312
843.566101,324
843.684204,329
843.802246,317
843.920227,318
844.038269,310
844.156311,318
844.274292,323
844.392395,311
844.510376,315
844.628357,311
844.74646,317
844.864441,338
844.982422,316
845.100403,331
845.218384,313
845.336426,325
845.454468,311
845.572449,311
845.69043,320
845.808411,313
845.926453,313
846.044373,319
846.162354,325
846.280396,319
846.398315,304
846.516296,323
846.634216,320
846.752197,314
846.870178,303
846.988098,318
847.106079,310
847.22406,320
847.34198,306
847.4599,327
847.577881,307
847.695801,318
847.813782,311
847.931641,309
848.049561,316
848.167603,326
848.285461,322
848.403381,322
848.521362,313
848.639221,301
848.75708,314
848.875,323
848.99292,311
849.110901,318
849.22876,330
849.34668,313
849.464539,311
849.582458,311
849.700317,321
849.818176,318
849.936096,311
850.053955,324
850.171875,308
850.289673,313
850.407593,310
850.525452,322
850.643311,316
850.761169,318
850.878967,318
850.996887,324
851.114746,313
851.232544,318
851.350403,306
851.468262,336
851.58606,306
851.703979,318
851.821777,309
851.939636,317
852.057434,319
852.175232,304
852.293091,321
852.410889,307
852.528687,309
852.646545,329
852.764343,322
852.88208,319
852.999939,319
853.117676,321
853.235535,316
853.353271,317
853.471069,314
853.588928,315
853.706604,307
853.824402,315
853.9422,308
854.059998,318
854.177734,306
854.295532,310
854.413269,316
854.531006,308
854.648804,316
854.766541,319
854.884277,304
855.002014,327
855.119751,310
855.237549,315
855.355225,327
855.473022,307
855.590698,310
855.708435,319
855.826172,314
855.943848,324
856.061646,310
856.179321,321
856.296997,323
856.414795,326
856.53241,303
856.650085,325
856.767822,307
856.885559,313
857.003174,314
857.120911,329
857.238586,329
857.356201,313
857.473938,321
857.591614,310
857.709351,305
857.826965,310
857.944641,314
858.062317,326
858.179993,308
858.297668,320
858.415283,309
858.532959,307
858.650574,327
858.768188,312
858.885803,313
859.003479,320
859.121094,313
859.23877,320
859.356384,317
859.473999,319
859.591675,325
859.709229,320
859.826843,318
859.944458,311
860.062012,307
860.179626,322
860.297302,312
860.414856,322
860.532471,314
860.650024,329
860.767639,316
860.885193,321
861.002808,315
861.120361,318
861.237976,319
861.35553,334
861.473022,308
861.590698,331
861.708191,314
861.825745,323
861.943298,324
862.060852,317
862.178406,317
862.295959,307
862.413513,324
862.531006,316
862.64856,313
862.766113,315
862.883667,304
863.00116,327
863.118713,322
863.236206,311
863.353699,315
863.471252,313
863.588745,310
863.706177,322
863.82373,300
863.941162,308
864.058716,300
864.176208,303
864.29364,324
864.411194,310
864.528687,312
864.646118,323
864.763611,327
864.881042,314
864.998535,302
865.116028,315
865.233459,311
865.350891,312
865.468384,317
865.585754,316
865.703308,329
865.820679,311
865.938171,316
866.055542,309
866.173035,329
866.290466,318
866.407837,299
866.52533,326
866.6427,305
866.760071,314
866.877563,319
866.994934,308
867.112305,314
867.229736,325
867.347107,321
867.464539,312
867.58197,306
867.699341,323
867.81665,311
867.934082,315
868.051453,322
868.168823,329
868.286194,308
868.403564,318
868.520935,308
868.638306,316
868.755676,301
868.872986,330
868.990295,301
869.107727,317
869.225037,313
869.342346,307
869.459717,315
869.577026,321
869.694336,303
869.811707,331
869.929016,305
870.046326,319
870.163635,314
870.280945,320
870.398254,322
870.515564,321
870.632812,310
870.750183,317
870.867432,311
870.984741,312
871.102051,308
871.219299,320
871.336609,316
871.453918,328
871.571106,321
871.688416,304
871.805664,321
871.922852,318
872.040222,312
872.157471,318
872.274719,325
872.391968,304
872.509155,319
872.626465,294
872.743652,307
872.860962,322
872.978149,307
873.095337,310
873.212646,308
873.329834,318
873.44696,305
873.564209,321
873.681396,313
873.798645,322
873.915894,315
874.03302,328
874.150208,307
874.267456,329
874.384583,309
874.501831,314
874.618958,309
874.736145,322
874.853333,310
874.970459,316
875.087646,304
875.204834,310
875.32196,311
875.439148,317
875.556274,313
875.673401,321
875.790527,316
875.907715,318
876.024841,322
876.141968,319
876.259094,314
876.376282,317
876.493347,313
876.610474,301
876.7276,296
876.844727,326
876.961853,302
877.078918,308
877.195984,315
877.313171,309
877.430237,313
877.547302,316
877.664368,317
877.781433,307
877.898499,298
878.015625,321
878.13269,312
878.249695,322
878.366821,320
878.483887,295
878.600952,312
878.717957,305
878.834961,313
878.952087,313
879.069092,316
879.186157,309
879.303162,314
879.420227,322
879.537231,329
879.654236,318
879.77124,307
879.888306,310
880.005249,311
880.122314,327
880.239319,316
880.356323,307
880.473328,320
880.590271,329
880.707275,323
880.824341,326
880.941284,341
881.058228,314
881.175232,314
881.292236,302
881.40918,306
881.526123,310
881.643066,314
881.760071,315
881.877014,308
881.993958,315
882.11084,327
882.227783,316
882.344727,311
882.46167,307
882.578613,312
882.695618,326
882.812439,312
882.929382,313
883.046326,300
883.163208,314
883.280151,310
883.397034,308
883.513916,317
883.630798,322
883.747742,309
883.864563,323
883.981506,315
884.098389,305
884.21521,304
884.332153,323
884.448975,317
884.565796,325
884.682678,321
884.7995,307
884.916443,319
885.033264,328
885.150085,312
885.266968,329
885.383789,309
885.500671,330
885.617493,322
885.734314,309
885.851196,319
885.967896,308
886.084717,302
886.201599,318
886.318359,302
886.435181,318
886.552002,320
886.668762,298
886.785645,314
886.902344,316
887.019165,310
887.135925,325
887.252747,312
887.369446,320
887.486267,311
887.603027,322
887.719788,307
887.836548,324
887.953247,307
888.070068,326
888.186829,313
888.303528,311
888.420288,303
888.536987,309
888.653687,322
888.770447,319
888.887146,303
889.003967,317
889.120667,323
889.237305,325
889.354065,321
889.470703,329
889.587463,306
889.704163,323
889.820862,316
889.937561,324
890.054199,319
890.170837,319
890.287598,310
890.404236,300
890.520874,324
890.637634,330
890.754211,312
890.87085,308
890.987549,303
891.104187,321
891.220886,319
891.337463,327
891.454102,317
891.57074,323
891.687378,313
891.804077,309
891.920654,326
892.037231,311
892.15387,321
892.270447,325
892.387085,309
892.503723,315
892.6203,316
892.736877,319
892.853516,321
892.970032,317
893.08667,302
893.203186,319
893.319763,315
893.43634,331
893.552917,318
893.669556,306
893.786011,324
893.902588,315
894.019165,319
894.135681,329
894.252197,302
894.368835,326
894.485291,307
894.601868,320
894.718384,323
894.8349,322
894.951355,310
895.067932,317
895.184448,315
895.300964,321
895.417419,315
895.533936,316
895.650452,303
895.766907,322
895.883423,314
895.999878,312
896.116333,318
896.232849,303
896.349304,328
896.465759,318
896.582214,319
896.698669,322
896.815125,322
896.931641,317
897.048035,319
897.164551,320
897.280884,314
897.397339,314
897.513794,316
897.630249,322
897.746582,301
897.863098,326
897.979431,304
898.095886,328
898.212341,308
898.328674,321
898.445129,318
898.561462,322
898.677795,312
898.794312,292
898.910645,310
899.026978,322
899.143433,307
899.259766,325
899.37616,314
899.492493,316
899.608765,308
899.725159,312
899.841553,326
899.957947,314
900.07428,316
900.190552,317
900.306946,309
900.423157,329
900.53949,316
900.655884,323
900.772156,319
900.888489,320
901.004822,316
901.121033,313
901.237366,320
901.353699,318
901.46991,315
901.586304,323
901.702515,332
901.818787,306
901.93512,312
902.051331,317
902.167603,314
902.283875,319
902.400085,316
902.516418,331
902.632629,305
902.74884,335
902.865112,303
902.981384,314
903.097595,332
903.213867,322
903.330017,324
903.446289,331
903.5625,325
903.67865,336
903.794922,313
903.911072,336
904.027344,315
904.143494,316
904.259705,305
904.375916,317
904.492065,325
904.608215,316
904.724426,302
904.840576,311
904.956726,316
905.072876,315
905.189087,324
905.305176,311
905.421387,307
905.537537,318
905.653687,308
905.769775,308
905.885925,319
906.002014,315
906.118164,314
906.234314,318
906.350403,319
906.466492,312
906.582642,311
906.69873,341
906.814758,316
906.930908,316
907.046936,321
907.163086,302
907.279175,310
907.395264,330
907.511353,323
907.62738,316
907.743408,296
907.859497,322
907.975525,318
908.091553,319
908.207703,314
908.32373,329
908.439758,322
908.555786,308
908.671814,328
908.787842,322
908.90387,309
909.019775,316
909.135864,323
909.251892,325
909.367859,306
909.483826,331
909.599854,304
909.715881,338
909.831848,325
909.947815,311
910.063782,320
910.179749,316
910.295776,324
910.411743,315
910.527649,307
910.643616,319
910.759583,314
910.875488,324
910.991455,308
911.107361,333
911.223267,314
911.339294,315
911.4552,325
911.571106,327
911.687073,316
911.802979,320
911.918823,314
912.034729,328
912.150635,330
912.266602,317
912.382446,304
912.498352,328
912.614197,322
912.730103,336
912.846008,309
792.44574,310
792.56488,359
792.68396,403
792.80304,369
792.92218,343
793.041199,315
793.160339,312
793.279419,337
793.398499,325
793.517578,318
793.636658,314
793.755737,320
793.874817,342
793.993896,343
794.112976,332
794.232056,321
794.351074,327
794.470215,332
794.589233,328
794.708313,327
794.827393,330
794.946411,340
795.065552,334
795.18457,329
795.303589,328
795.422668,331
795.541687,334
795.660767,335
795.779846,319
795.898865,325
796.017883,327
796.136963,329
796.255981,335
796.375061,324
796.49408,329
796.613037,344
796.732117,320
796.851135,318
796.970154,322
797.089233,326
797.208191,343
797.327271,332
797.446228,329
797.565186,318
797.684265,334
797.803223,330
797.922241,337
798.04126,323
798.160278,334
798.279297,320
798.398315,321
798.517273,329
798.636292,342
798.75531,319
798.874268,333
798.993286,330
799.112244,333
799.231323,321
799.350281,326
799.469238,333
799.588257,348
799.707153,320
799.826111,325
799.945129,337
800.064087,319
800.183044,316
800.302063,317
800.421021,330
800.539978,330
800.658936,330
800.777893,322
800.896912,328
801.015747,324
801.134705,314
801.253723,337
801.37262,349
801.491638,336
801.610535,326
801.729492,317
801.84845,333
801.967407,336
802.086243,335
802.205261,332
802.324158,333
802.443115,339
802.562073,327
802.680969,330
802.799927,322
802.918762,328
803.037659,328
803.156677,319
803.275574,330
803.39447,326
803.513428,322
803.632263,326
803.751221,333
803.870117,330
803.989014,325
804.107971,330
804.226746,344
804.345642,325
804.4646,328
804.583496,321
804.702393,329
804.821228,320
804.940125,346
805.059021,345
805.177917,332
805.296814,342
805.415649,340
805.534546,323
805.653442,347
805.772278,328
805.891113,332
806.01001,327
806.128906,321
806.247742,331
806.366577,336
806.485413,331
806.604309,340
806.723145,323
806.84198,327
806.960876,328
807.079712,325
807.198486,337
807.317383,334
807.436218,336
807.554993,324
807.673889,333
807.792725,339
807.91156,336
808.030396,340
808.14917,310
808.268005,337
808.386841,326
808.505676,337
808.624451,329
808.743286,323
808.862122,343
808.980896,333
809.099731,341
809.218506,336
809.337341,338
809.456116,342
809.57489,320
809.693726,350
809.8125,334
809.931274,325
810.050049,338
810.168884,324
810.287659,323
810.406372,328
810.525269,337
810.643982,328
810.762756,325
810.881531,331
811.000305,329
811.11908,343
811.237854,343
811.356567,325
811.475403,330
811.594116,333
811.71283,343
811.831604,327
811.950378,329
812.069153,335
812.187927,342
812.30658,331
812.425415,334
812.544128,340
812.662781,327
812.781616,339
812.900269,337
813.019043,337
813.137756,348
813.256531,347
813.375244,328
813.493896,336
813.612671,334
813.731384,335
813.850037,335
813.96875,344
814.087524,337
814.206238,334
814.324951,321
814.443604,331
814.562256,331
814.68103,334
814.799683,336
814.918335,333
815.037109,320
815.155762,342
815.274475,313
815.393188,318
815.511841,331
815.630554,327
815.749146,337
815.867859,332
815.986572,331
816.105164,325
816.223877,329
816.342529,335
816.461182,332
816.579895,344
816.698486,334
816.817139,333
816.935791,344
817.054504,337
817.173096,324
817.291748,337
817.4104,326
817.529053,319
817.647644,331
817.766235,320
817.884949,332
818.00354,327
818.122192,331
818.240845,318
818.359436,325
818.478088,337
818.59668,326
818.715271,325
818.833923,338
818.952515,322
819.071106,326
819.189758,315
819.30835,312
819.426941,334
819.545532,317
819.664124,328
819.782715,324
819.901306,320
820.019897,325
820.138489,304
820.25708,330
820.375671,318
820.494202,328
820.612732,335
820.731384,320
820.849915,309
820.968506,328
821.087097,320
821.205627,314
821.324158,320
821.442749,319
821.561279,321
821.679871,318
821.798401,324
821.916931,321
822.035461,315
822.154053,310
822.272583,320
822.391174,321
822.509583,322
822.628174,304
822.746704,317
822.865234,319
822.983765,322
823.102295,336
823.220825,327
823.339294,309
823.457825,318
823.576355,320
823.694824,311
823.813354,311
823.931885,308
824.050354,323
824.168884,317
824.287354,324
824.405823,311
824.524353,318
824.642822,304
824.761353,321
824.879822,311
824.998291,321
825.116699,308
825.235291,319
825.353699,301
825.472168,317
825.590637,310
825.709106,323
825.827576,332
825.946045,327
826.064453,323
826.182983,314
826.301392,317
826.4198,318
826.53833,319
826.656738,309
826.775208,332
826.893677,309
827.012024,309
827.130493,309
827.248962,316
827.36731,332
827.485779,318
827.604248,318
827.722595,314
827.841064,321
827.959412,335
828.077942,317
828.196289,307
828.314636,313
828.433105,311
828.551514,320
828.669861,296
828.78833,316
828.906677,315
829.025085,325
829.143433,316
829.261841,315
829.38031,307
829.498657,323
829.617004,321
829.735413,314
829.85376,322
829.972107,325
830.090515,316
830.208862,308
830.327209,306
830.445557,316
830.563904,323
830.682312,305
830.800659,324
830.919006,329
831.037354,310
831.155701,314
831.274048,325
831.392395,321
831.51062,308
831.629028,310
831.747314,326
831.865662,320
831.984009,329
832.102356,329
832.220642,319
832.338928,324
832.457275,306
832.575623,321
832.693909,311
832.812134,303
832.930481,321
833.048828,329
833.167114,310
833.2854,328
833.403687,327
833.521973,319
833.640259,312
833.758545,319
833.876831,309
833.995056,324
834.113281,322
834.231628,302
834.349915,309
834.468201,311
834.586426,326
834.704651,315
834.822998,325
834.941162,325
835.059448,304
835.177673,315
835.295959,324
835.414246,326
835.53241,312
835.650635,311
835.768921,307
835.887146,317
836.005371,313
836.123596,309
836.241821,316
836.360046,308
836.478271,333
836.596497,319
836.714722,322
836.832886,309
836.95105,317
837.069336,310
837.1875,317
837.305725,303
837.423889,316
837.542053,314
837.660339,322
837.778503,329
837.896667,325
838.014832,321
838.132996,318
838.25116,317
838.369385,308
838.487488,314
838.605713,311
838.723877,324
838.84198,329
838.960205,316
839.078308,304
839.196472,319
839.314636,313
839.4328,318
839.550964,310
839.669067,314
839.787231,312
839.905396,319
840.023499,308
840.141602,313
840.259766,317
840.377869,325
840.495972,312
840.614136,315
840.732239,310
840.850342,318
840.968445,318
841.086548,312
841.204651,317
841.322754,321
841.440918,315
841.55896,312
841.677002,318
841.795166,304
841.913208,311
842.031311,303
842.149353,325
842.267456,324
842.385498,318
842.503601,320
842.621643,332
842.739746,310
842.857788,313
842.97583,315
843.093933,322
843.211975,316
843.330017,316
843.44812,318
843.566101,327
843.684204,307
843.802246,319
843.920227,309
844.038269,318
844.156311,318
844.274292,307
844.392395,322
844.510376,320
844.628357,312
844.74646,314
844.864441,335
844.982422,317
845.100403,313
845.218384,322
845.336426,305
845.454468,320
845.572449,316
845.69043,318
845.808411,319
845.926453,311
846.044373,323
846.162354,318
846.280396,310
846.398315,311
846.516296,318
846.634216,321
846.752197,310
846.870178,317
846.988098,308
847.106079,314
847.22406,316
847.34198,306
847.4599,320
847.577881,320
847.695801,320
847.813782,306
847.931641,299
848.049561,319
848.167603,321
848.285461,300
848.403381,317
848.521362,312
848.639221,319
848.75708,312
848.875,318
848.99292,315
849.110901,303
849.22876,317
849.34668,302
849.464539,307
849.582458,313
849.700317,319
849.818176,317
849.936096,300
850.053955,332
850.171875,306
850.289673,311
850.407593,323
850.525452,308
850.643311,325
850.761169,318
850.878967,312
850.996887,322
851.114746,307
851.232544,305
851.350403,295
851.468262,316
851.58606,331
851.703979,306
851.821777,301
851.939636,315
852.057434,311
852.175232,310
852.293091,304
852.410889,309
852.528687,315
852.646545,316
852.764343,317
852.88208,306
852.999939,316
853.117676,320
853.235535,307
853.353271,306
853.471069,318
853.588928,306
853.706604,320
853.824402,314
853.9422,320
854.059998,321
854.177734,312
854.295532,310
854.413269,315
854.531006,317
854.648804,305
854.766541,315
854.884277,319
855.002014,318
855.119751,308
855.237549,311
855.355225,312
855.473022,316
855.590698,317
855.708435,319
855.826172,318
855.943848,328
856.061646,329
856.179321,309
856.296997,323
856.414795,319
856.53241,305
856.650085,315
856.767822,303
856.885559,321
857.003174,324
857.120911,309
857.238586,329
857.356201,298
857.473938,322
857.591614,320
857.709351,314
857.826965,323
857.944641,322
858.062317,325
858.179993,310
858.297668,321
858.415283,313
858.532959,316
858.650574,327
858.768188,311
858.885803,326
859.003479,308
859.121094,316
859.23877,302
859.356384,315
859.473999,327
859.591675,303
859.709229,305
859.826843,315
859.944458,313
860.062012,306
860.179626,308
860.297302,308
860.414856,295
860.532471,319
860.650024,320
860.767639,315
860.885193,312
861.002808,331
861.120361,315
861.237976,311
861.35553,314
861.473022,307
861.590698,315
861.708191,310
861.825745,320
861.943298,321
862.060852,304
862.178406,323
862.295959,314
862.413513,307
862.531006,315
862.64856,307
862.766113,310
862.883667,323
863.00116,309
863.118713,316
863.236206,319
863.353699,316
863.471252,308
863.588745,318
863.706177,308
863.82373,316
863.941162,324
864.058716,322
864.176208,299
864.29364,314
864.411194,314
864.528687,306
864.646118,299
864.763611,326
864.881042,332
864.998535,309
865.116028,314
865.233459,315
865.350891,313
865.468384,321
865.585754,308
865.703308,313
865.820679,309
865.938171,322
866.055542,319
866.173035,310
866.290466,323
866.407837,305
866.52533,302
866.6427,304
866.760071,309
866.877563,321
866.994934,305
867.112305,318
867.229736,309
867.347107,327
867.464539,317
867.58197,311
867.699341,309
867.81665,311
867.934082,303
868.051453,304
868.168823,306
868.286194,313
868.403564,313
868.520935,328
868.638306,309
868.755676,321
868.872986,331
868.990295,312
869.107727,306
869.225037,317
869.342346,314
869.459717,321
869.577026,309
869.694336,308
869.811707,316
869.929016,316
870.046326,327
870.163635,319
870.280945,307
870.398254,316
870.515564,319
870.632812,302
870.750183,307
870.867432,322
870.984741,306
871.102051,306
871.219299,312
871.336609,314
871.453918,319
871.571106,330
871.688416,304
871.805664,309
871.922852,320
872.040222,322
872.157471,326
872.274719,312
872.391968,302
872.509155,306
872.626465,316
872.743652,309
872.860962,323
872.978149,316
873.095337,315
873.212646,318
873.329834,309
873.44696,317
873.564209,320
873.681396,320
873.798645,316
873.915894,313
874.03302,322
874.150208,322
874.267456,310
874.384583,321
874.501831,310
874.618958,316
874.736145,316
874.853333,319
874.970459,328
875.087646,319
875.204834,307
875.32196,315
875.439148,325
875.556274,316
875.673401,326
875.790527,308
875.907715,318
876.024841,309
876.141968,311
876.259094,310
876.376282,323
876.493347,320
876.610474,308
876.7276,308
876.844727,314
876.961853,329
877.078918,310
877.195984,317
877.313171,308
877.430237,310
877.547302,312
877.664368,316
877.781433,316
877.898499,312
878.015625,306
878.13269,311
878.249695,310
878.366821,323
878.483887,328
878.600952,327
878.717957,313
878.834961,308
878.952087,317
879.069092,313
879.186157,323
879.303162,322
879.420227,308
879.537231,312
879.654236,309
879.77124,322
879.888306,319
880.005249,309
880.122314,326
880.239319,325
880.356323,316
880.473328,316
880.590271,314
880.707275,314
880.824341,322
880.941284,313
881.058228,306
881.175232,314
881.292236,328
881.40918,308
881.526123,311
881.643066,317
881.760071,311
881.877014,327
881.993958,325
882.11084,319
882.227783,316
882.344727,299
882.46167,317
882.578613,314
882.695618,313
882.812439,322
882.929382,323
883.046326,310
883.163208,310
883.280151,311
883.397034,316
883.513916,320
883.630798,319
883.747742,317
883.864563,306
883.981506,318
884.098389,311
884.21521,314
884.332153,315
884.448975,323
884.565796,311
884.682678,321
884.7995,314
884.916443,299
885.033264,306
885.150085,323
885.266968,308
885.383789,305
885.500671,309
885.617493,316
885.734314,313
885.851196,315
885.967896,311
886.084717,324
886.201599,317
886.318359,311
886.435181,315
886.552002,308
886.668762,309
886.785645,316
886.902344,328
887.019165,319
887.135925,311
887.252747,327
887.369446,312
887.486267,309
887.603027,324
887.719788,317
887.836548,311
887.953247,312
888.070068,328
888.186829,325
888.303528,312
888.420288,312
888.536987,325
888.653687,322
888.770447,323
888.887146,315
889.003967,307
889.120667,317
889.237305,310
889.354065,320
889.470703,313
889.587463,316
889.704163,312
889.820862,323
889.937561,310
890.054199,319
890.170837,308
890.287598,309
890.404236,304
890.520874,323
890.637634,315
890.754211,325
890.87085,311
890.987549,318
891.104187,324
891.220886,311
891.337463,318
891.454102,323
891.57074,317
891.687378,305
891.804077,315
891.920654,306
892.037231,316
892.15387,325
892.270447,309
892.387085,307
892.503723,324
892.6203,324
892.736877,301
892.853516,337
892.970032,311
893.08667,322
893.203186,307
893.319763,323
893.43634,320
893.552917,308
893.669556,312
893.786011,319
893.902588,297
894.019165,331
894.135681,317
894.252197,319
894.368835,310
894.485291,315
894.601868,313
894.718384,332
894.8349,323
894.951355,314
895.067932,322
895.184448,318
895.300964,316
895.417419,315
895.533936,311
895.650452,316
895.766907,322
895.883423,312
895.999878,334
896.116333,311
896.232849,305
896.349304,322
896.465759,319
896.582214,317
896.698669,295
896.815125,316
896.931641,320
897.048035,312
897.164551,311
897.280884,330
897.397339,308
897.513794,334
897.630249,321
897.746582,314
897.863098,309
897.979431,310
898.095886,316
898.212341,328
898.328674,305
898.445129,327
898.561462,317
898.677795,316
898.794312,316
898.910645,332
899.026978,308
899.143433,314
899.259766,307
899.37616,318
899.492493,316
899.608765,322
899.725159,305
899.841553,333
899.957947,322
900.07428,316
900.190552,323
900.306946,320
900.423157,323
900.53949,318
900.655884,301
900.772156,321
900.888489,315
901.004822,317
901.121033,318
901.237366,317
901.353699,321
901.46991,315
901.586304,315
901.702515,315
901.818787,315
901.93512,307
902.051331,312
902.167603,322
902.283875,313
902.400085,322
902.516418,313
902.632629,333
902.74884,323
902.865112,328
902.981384,311
903.097595,312
903.213867,304
903.330017,324
903.446289,310
903.5625,317
903.67865,315
903.794922,318
903.911072,315
904.027344,318
904.143494,315
904.259705,325
904.375916,314
904.492065,336
904.608215,323
904.724426,319
904.840576,317
904.956726,324
905.072876,309
905.189087,317
905.305176,305
905.421387,303
905.537537,300
905.653687,313
905.769775,322
905.885925,317
906.002014,314
906.118164,312
906.234314,319
906.350403,310
906.466492,302
906.582642,311
906.69873,315
906.814758,332
906.930908,314
907.046936,326
907.163086,317
907.279175,305
907.395264,312
907.511353,313
907.62738,317
907.743408,315
907.859497,300
907.975525,313
908.091553,309
908.207703,316
908.32373,321
908.439758,343
908.555786,313
908.671814,325
908.787842,311
908.90387,325
909.019775,320
909.135864,312
909.251892,319
909.367859,311
909.483826,322
909.599854,303
909.715881,315
909.831848,325
909.947815,305
910.063782,329
910.179749,310
910.295776,324
910.411743,327
910.527649,323
910.643616,310
910.759583,321
910.875488,318
910.991455,321
911.107361,303
911.223267,311
911.339294,325
911.4552,317
911.571106,307
911.687073,314
911.802979,312
911.918823,324
912.034729,310
912.150635,327
912.266602,310
912.382446,301
912.498352,316
912.614197,324
912.730103,310
912.846008,290
