792.44574,352
792.56488,384
792.68396,443
792.80304,416
792.92218,382
793.041199,359
793.160339,366
793.279419,392
793.398499,358
793.517578,348
793.636658,354
793.755737,372
793.874817,389
793.993896,375
794.112976,345
794.232056,351
794.351074,342
794.470215,357
794.589233,352
794.708313,353
794.827393,342
794.946411,362
795.065552,351
795.18457,355
795.303589,363
795.422668,347
795.541687,355
795.660767,340
795.779846,337
795.898865,344
796.017883,347
796.136963,336
796.255981,349
796.375061,363
796.49408,355
796.613037,336
796.732117,344
796.851135,337
796.970154,336
797.089233,345
797.208191,334
797.327271,345
797.446228,333
797.565186,334
797.684265,342
797.803223,328
797.922241,325
798.04126,331
798.160278,327
798.279297,326
798.398315,337
798.517273,351
798.636292,345
798.75531,337
798.874268,322
798.993286,340
799.112244,349
799.231323,331
799.350281,323
799.469238,340
799.588257,341
799.707153,326
799.826111,332
799.945129,336
800.064087,344
800.183044,341
800.302063,338
800.421021,332
800.539978,326
800.658936,336
800.777893,328
800.896912,334
801.015747,339
801.134705,335
801.253723,352
801.37262,324
801.491638,342
801.610535,329
801.729492,337
801.84845,327
801.967407,323
802.086243,324
802.205261,351
802.324158,324
802.443115,346
802.562073,313
802.680969,341
802.799927,323
802.918762,328
803.037659,320
803.156677,331
803.275574,339
803.39447,320
803.513428,325
803.632263,331
803.751221,323
803.870117,324
803.989014,329
804.107971,343
804.226746,315
804.345642,323
804.4646,330
804.583496,308
804.702393,333
804.821228,338
804.940125,321
805.059021,321
805.177917,325
805.296814,324
805.415649,322
805.534546,324
805.653442,331
805.772278,334
805.891113,336
806.01001,322
806.128906,334
806.247742,308
806.366577,342
806.485413,324
806.604309,333
806.723145,323
806.84198,335
806.960876,337
807.079712,333
807.198486,331
807.317383,320
807.436218,327
807.554993,325
807.673889,331
807.792725,327
807.91156,321
808.030396,332
808.14917,338
808.268005,336
808.386841,328
808.505676,316
808.624451,334
808.743286,303
808.862122,324
808.980896,323
809.099731,323
809.218506,331
809.337341,339
809.456116,326
809.57489,320
809.693726,309
809.8125,318
809.931274,319
810.050049,337
810.168884,323
810.287659,319
810.406372,334
810.525269,328
810.643982,317
810.762756,336
810.881531,322
811.000305,324
811.11908,312
811.237854,332
811.356567,328
811.475403,330
811.594116,331
811.71283,330
811.831604,327
811.950378,333
812.069153,310
812.187927,342
812.30658,317
812.425415,322
812.544128,330
812.662781,325
812.781616,328
812.900269,327
813.019043,322
813.137756,327
813.256531,338
813.375244,322
813.493896,326
813.612671,326
813.731384,329
813.850037,327
813.96875,321
814.087524,329
814.206238,320
814.324951,336
814.443604,326
814.562256,329
814.68103,327
814.799683,320
814.918335,324
815.037109,333
815.155762,340
815.274475,331
815.393188,325
815.511841,323
815.630554,321
815.749146,319
815.867859,330
815.986572,318
816.105164,323
816.223877,340
816.342529,326
816.461182,315
816.579895,323
816.698486,324
816.817139,322
816.935791,329
817.054504,336
817.173096,325
817.291748,318
817.4104,329
817.529053,336
817.647644,329
817.766235,317
817.884949,327
818.00354,327
818.122192,332
818.240845,341
818.359436,325
818.478088,322
818.59668,323
818.715271,322
818.833923,316
818.952515,322
819.071106,315
819.189758,327
819.30835,332
819.426941,318
819.545532,320
819.664124,335
819.782715,330
819.901306,320
820.019897,331
820.138489,329
820.25708,325
820.375671,325
820.494202,327
820.612732,336
820.731384,332
820.849915,319
820.968506,318
821.087097,330
821.205627,332
821.324158,324
821.442749,330
821.561279,321
821.679871,313
821.798401,320
821.916931,325
822.035461,320
822.154053,315
822.272583,327
822.391174,328
822.509583,324
822.628174,318
822.746704,330
822.865234,323
822.983765,318
823.102295,332
823.220825,324
823.339294,304
823.457825,320
823.576355,319
823.694824,339
823.813354,314
823.931885,327
824.050354,315
824.168884,327
824.287354,329
824.405823,317
824.524353,307
824.642822,322
824.761353,319
824.879822,317
824.998291,322
825.116699,305
825.235291,310
825.353699,337
825.472168,322
825.590637,316
825.709106,319
825.827576,313
825.946045,328
826.064453,333
826.182983,317
826.301392,315
826.4198,321
826.53833,300
826.656738,311
826.775208,336
826.893677,311
827.012024,321
827.130493,327
827.248962,311
827.36731,313
827.485779,308
827.604248,320
827.722595,322
827.841064,314
827.959412,313
828.077942,315
828.196289,307
828.314636,315
828.433105,309
828.551514,318
828.669861,339
828.78833,320
828.906677,330
829.025085,327
829.143433,321
829.261841,331
829.38031,312
829.498657,321
829.617004,323
829.735413,323
829.85376,317
829.972107,325
830.090515,323
830.208862,318
830.327209,323
830.445557,321
830.563904,312
830.682312,304
830.800659,322
830.919006,323
831.037354,323
831.155701,333
831.274048,317
831.392395,327
831.51062,316
831.629028,331
831.747314,315
831.865662,324
831.984009,328
832.102356,320
832.220642,327
832.338928,313
832.457275,320
832.575623,323
832.693909,331
832.812134,317
832.930481,330
833.048828,318
833.167114,324
833.2854,329
833.403687,321
833.521973,323
833.640259,317
833.758545,324
833.876831,302
833.995056,324
834.113281,315
834.231628,318
834.349915,323
834.468201,325
834.586426,319
834.704651,332
834.822998,323
834.941162,320
835.059448,320
835.177673,326
835.295959,314
835.414246,326
835.53241,317
835.650635,325
835.768921,327
835.887146,321
836.005371,312
836.123596,323
836.241821,324
836.360046,321
836.478271,304
836.596497,308
836.714722,333
836.832886,315
836.95105,313
837.069336,322
837.1875,317
837.305725,335
837.423889,324
837.542053,321
837.660339,326
837.778503,312
837.896667,313
838.014832,312
838.132996,312
838.25116,324
838.369385,327
838.487488,318
838.605713,321
838.723877,315
838.84198,328
838.960205,319
839.078308,340
839.196472,315
839.314636,327
839.4328,316
839.550964,324
839.669067,317
839.787231,341
839.905396,321
840.023499,326
840.141602,322
840.259766,322
840.377869,322
840.495972,321
840.614136,336
840.732239,336
840.850342,308
840.968445,321
841.086548,307
841.204651,317
841.322754,314
841.440918,318
841.55896,320
841.677002,329
841.795166,322
841.913208,323
842.031311,321
842.149353,318
842.267456,327
842.385498,315
842.503601,331
842.621643,321
842.739746,324
842.857788,323
842.97583,337
843.093933,317
843.211975,330
843.330017,331
843.44812,326
843.566101,320
843.684204,319
843.802246,322
843.920227,329
844.038269,305
844.156311,323
844.274292,320
844.392395,321
844.510376,331
844.628357,316
844.74646,335
844.864441,322
844.982422,327
845.100403,316
845.218384,318
845.336426,315
845.454468,323
845.572449,324
845.69043,327
845.808411,326
845.926453,316
846.044373,325
846.162354,325
846.280396,317
846.398315,307
846.516296,323
846.634216,322
846.752197,321
846.870178,316
846.988098,324
847.106079,304
847.22406,316
847.34198,337
847.4599,328
847.577881,328
847.695801,322
847.813782,325
847.931641,325
848.049561,328
848.167603,314
848.285461,315
848.403381,325
848.521362,324
848.639221,314
848.75708,318
848.875,326
848.99292,323
849.110901,322
849.22876,326
849.34668,321
849.464539,326
849.582458,320
849.700317,312
849.818176,316
849.936096,325
850.053955,314
850.171875,329
850.289673,331
850.407593,319
850.525452,317
850.643311,326
850.761169,331
850.878967,319
850.996887,324
851.114746,326
851.232544,317
851.350403,326
851.468262,322
851.58606,324
851.703979,327
851.821777,332
851.939636,320
852.057434,330
852.175232,314
852.293091,323
852.410889,322
852.528687,312
852.646545,331
852.764343,334
852.88208,314
852.999939,307
853.117676,312
853.235535,326
853.353271,329
853.471069,326
853.588928,316
853.706604,322
853.824402,330
853.9422,310
854.059998,319
854.177734,330
854.295532,316
854.413269,332
854.531006,310
854.648804,317
854.766541,313
854.884277,324
855.002014,323
855.119751,327
855.237549,309
855.355225,329
855.473022,324
855.590698,331
855.708435,322
855.826172,334
855.943848,329
856.061646,334
856.179321,334
856.296997,330
856.414795,317
856.53241,336
856.650085,326
856.767822,321
856.885559,318
857.003174,343
857.120911,336
857.238586,335
857.356201,331
857.473938,330
857.591614,321
857.709351,318
857.826965,321
857.944641,320
858.062317,318
858.179993,321
858.297668,321
858.415283,319
858.532959,327
858.650574,325
858.768188,324
858.885803,317
859.003479,326
859.121094,320
859.23877,321
859.356384,320
859.473999,318
859.591675,317
859.709229,332
859.826843,332
859.944458,322
860.062012,323
860.179626,327
860.297302,330
860.414856,327
860.532471,318
860.650024,326
860.767639,333
860.885193,315
861.002808,320
861.120361,325
861.237976,318
861.35553,326
861.473022,329
861.590698,322
861.708191,314
861.825745,333
861.943298,319
862.060852,318
862.178406,326
862.295959,321
862.413513,309
862.531006,312
862.64856,318
862.766113,325
862.883667,316
863.00116,317
863.118713,319
863.236206,342
863.353699,326
863.471252,323
863.588745,307
863.706177,326
863.82373,315
863.941162,331
864.058716,334
864.176208,326
864.29364,303
864.411194,323
864.528687,332
864.646118,317
864.763611,324
864.881042,304
864.998535,319
865.116028,317
865.233459,323
865.350891,317
865.468384,322
865.585754,318
865.703308,327
865.820679,317
865.938171,332
866.055542,333
866.173035,322
866.290466,323
866.407837,320
866.52533,316
866.6427,311
866.760071,333
866.877563,315
866.994934,317
867.112305,332
867.229736,329
867.347107,321
867.464539,322
867.58197,327
867.699341,323
867.81665,332
867.934082,333
868.051453,317
868.168823,321
868.286194,318
868.403564,319
868.520935,334
868.638306,316
868.755676,312
868.872986,313
868.990295,323
869.107727,320
869.225037,324
869.342346,307
869.459717,322
869.577026,332
869.694336,328
869.811707,325
869.929016,324
870.046326,303
870.163635,316
870.280945,324
870.398254,320
870.515564,315
870.632812,326
870.750183,324
870.867432,334
870.984741,329
871.102051,332
871.219299,315
871.336609,334
871.453918,329
871.571106,337
871.688416,313
871.805664,322
871.922852,317
872.040222,329
872.157471,323
872.274719,329
872.391968,329
872.509155,319
872.626465,334
872.743652,337
872.860962,321
872.978149,341
873.095337,312
873.212646,331
873.329834,320
873.44696,330
873.564209,336
873.681396,330
873.798645,333
873.915894,321
874.03302,323
874.150208,316
874.267456,323
874.384583,333
874.501831,322
874.618958,326
874.736145,330
874.853333,328
874.970459,322
875.087646,317
875.204834,330
875.32196,322
875.439148,331
875.556274,315
875.673401,318
875.790527,326
875.907715,328
876.024841,322
876.141968,320
876.259094,330
876.376282,329
876.493347,325
876.610474,323
876.7276,331
876.844727,318
876.961853,317
877.078918,322
877.195984,324
877.313171,337
877.430237,329
877.547302,329
877.664368,341
877.781433,319
877.898499,327
878.015625,313
878.13269,341
878.249695,310
878.366821,330
878.483887,316
878.600952,312
878.717957,324
878.834961,315
878.952087,311
879.069092,331
879.186157,313
879.303162,327
879.420227,316
879.537231,313
879.654236,332
879.77124,320
879.888306,323
880.005249,325
880.122314,320
880.239319,313
880.356323,338
880.473328,326
880.590271,311
880.707275,310
880.824341,316
880.941284,333
881.058228,309
881.175232,326
881.292236,318
881.40918,323
881.526123,312
881.643066,321
881.760071,329
881.877014,327
881.993958,319
882.11084,324
882.227783,321
882.344727,326
882.46167,302
882.578613,299
882.695618,319
882.812439,340
882.929382,310
883.046326,322
883.163208,317
883.280151,313
883.397034,328
883.513916,318
883.630798,335
883.747742,326
883.864563,314
883.981506,327
884.098389,322
884.21521,319
884.332153,308
884.448975,314
884.565796,318
884.682678,333
884.7995,324
884.916443,334
885.033264,319
885.150085,338
885.266968,317
885.383789,345
885.500671,325
885.617493,335
885.734314,327
885.851196,340
885.967896,333
886.084717,334
886.201599,329
886.318359,327
886.435181,330
886.552002,340
886.668762,324
886.785645,325
886.902344,324
887.019165,331
887.135925,322
887.252747,333
887.369446,314
887.486267,314
887.603027,338
887.719788,319
887.836548,323
887.953247,338
888.070068,322
888.186829,320
888.303528,314
888.420288,331
888.536987,311
888.653687,319
888.770447,317
888.887146,306
889.003967,318
889.120667,308
889.237305,314
889.354065,317
889.470703,323
889.587463,326
889.704163,317
889.820862,319
889.937561,318
890.054199,315
890.170837,333
890.287598,320
890.404236,317
890.520874,318
890.637634,305
890.754211,310
890.87085,314
890.987549,316
891.104187,327
891.220886,312
891.337463,325
891.454102,313
891.57074,307
891.687378,328
891.804077,317
891.920654,332
892.037231,319
892.15387,318
892.270447,308
892.387085,316
892.503723,314
892.6203,311
892.736877,318
892.853516,331
892.970032,319
893.08667,322
893.203186,321
893.319763,318
893.43634,316
893.552917,321
893.669556,313
893.786011,328
893.902588,319
894.019165,319
894.135681,316
894.252197,336
894.368835,328
894.485291,310
894.601868,328
894.718384,316
894.8349,324
894.951355,314
895.067932,305
895.184448,324
895.300964,306
895.417419,324
895.533936,314
895.650452,328
895.766907,324
895.883423,322
895.999878,315
896.116333,320
896.232849,308
896.349304,319
896.465759,322
896.582214,320
896.698669,318
896.815125,309
896.931641,317
897.048035,324
897.164551,316
897.280884,325
897.397339,319
897.513794,313
897.630249,320
897.746582,310
897.863098,313
897.979431,325
898.095886,300
898.212341,314
898.328674,332
898.445129,328
898.561462,312
898.677795,330
898.794312,327
898.910645,304
899.026978,321
899.143433,323
899.259766,320
899.37616,310
899.492493,318
899.608765,319
899.725159,320
899.841553,316
899.957947,314
900.07428,329
900.190552,328
900.306946,316
900.423157,308
900.53949,317
900.655884,321
900.772156,326
900.888489,321
901.004822,323
901.121033,310
901.237366,321
901.353699,318
901.46991,315
901.586304,309
901.702515,319
901.818787,313
901.93512,330
902.051331,327
902.167603,327
902.283875,324
902.400085,325
902.516418,322
902.632629,321
902.74884,323
902.865112,327
902.981384,325
903.097595,324
903.213867,322
903.330017,331
903.446289,319
903.5625,328
903.67865,326
903.794922,325
903.911072,323
904.027344,326
904.143494,325
904.259705,331
904.375916,317
904.492065,319
904.608215,310
904.724426,328
904.840576,310
904.956726,317
905.072876,327
905.189087,322
905.305176,314
905.421387,324
905.537537,312
905.653687,328
905.769775,322
905.885925,314
906.002014,322
906.118164,328
906.234314,310
906.350403,311
906.466492,321
906.582642,315
906.69873,320
906.814758,320
906.930908,308
907.046936,314
907.163086,328
907.279175,307
907.395264,317
907.511353,316
907.62738,327
907.743408,317
907.859497,311
907.975525,325
908.091553,314
908.207703,331
908.32373,323
908.439758,310
908.555786,322
908.671814,323
908.787842,312
908.90387,330
909.019775,304
909.135864,322
909.251892,313
909.367859,318
909.483826,308
909.599854,318
909.715881,331
909.831848,320
909.947815,312
910.063782,333
910.179749,317
910.295776,326
910.411743,313
910.527649,329
910.643616,313
910.759583,323
910.875488,318
910.991455,316
911.107361,326
911.223267,320
911.339294,316
911.4552,322
911.571106,300
911.687073,331
911.802979,312
911.918823,318
912.034729,317
912.150635,311
912.266602,315
912.382446,315
912.498352,334
912.614197,315
912.730103,318
912.846008,320
792.44574,353
792.56488,410
792.68396,434
792.80304,430
792.92218,366
793.041199,360
793.160339,350
793.279419,375
793.398499,355
793.517578,340
793.636658,368
793.755737,367
793.874817,360
793.993896,384
794.112976,357
794.232056,338
794.351074,356
794.470215,345
794.589233,359
794.708313,349
794.827393,344
794.946411,359
795.065552,344
795.18457,355
795.303589,359
795.422668,339
795.541687,335
795.660767,344
795.779846,339
795.898865,346
796.017883,348
796.136963,349
796.255981,338
796.375061,336
796.49408,341
796.613037,341
796.732117,341
796.851135,336
796.970154,331
797.089233,348
797.208191,336
797.327271,341
797.446228,348
797.565186,352
797.684265,330
797.803223,350
797.922241,343
798.04126,341
798.160278,321
798.279297,349
798.398315,345
798.517273,336
798.636292,343
798.75531,326
798.874268,340
798.993286,339
799.112244,351
799.231323,336
799.350281,320
799.469238,336
799.588257,341
799.707153,343
799.826111,327
799.945129,345
800.064087,326
800.183044,337
800.302063,332
800.421021,333
800.539978,344
800.658936,349
800.777893,325
800.896912,354
801.015747,335
801.134705,327
801.253723,326
801.37262,333
801.491638,345
801.610535,321
801.729492,332
801.84845,335
801.967407,329
802.086243,336
802.205261,326
802.324158,333
802.443115,325
802.562073,328
802.680969,323
802.799927,342
802.918762,330
803.037659,333
803.156677,324
803.275574,325
803.39447,331
803.513428,343
803.632263,334
803.751221,332
803.870117,337
803.989014,334
804.107971,317
804.226746,332
804.345642,340
804.4646,331
804.583496,316
804.702393,336
804.821228,320
804.940125,329
805.059021,320
805.177917,342
805.296814,325
805.415649,327
805.534546,317
805.653442,324
805.772278,348
805.891113,335
806.01001,328
806.128906,324
806.247742,333
806.366577,326
806.485413,334
806.604309,326
806.723145,334
806.84198,330
806.960876,345
807.079712,326
807.198486,332
807.317383,322
807.436218,320
807.554993,317
807.673889,325
807.792725,324
807.91156,331
808.030396,329
808.14917,314
808.268005,319
808.386841,326
808.505676,332
808.624451,318
808.743286,327
808.862122,326
808.980896,316
809.099731,324
809.218506,329
809.337341,329
809.456116,320
809.57489,332
809.693726,329
809.8125,325
809.931274,336
810.050049,338
810.168884,332
810.287659,321
810.406372,330
810.525269,337
810.643982,315
810.762756,323
810.881531,332
811.000305,326
811.11908,322
811.237854,325
811.356567,332
811.475403,331
811.594116,327
811.71283,326
811.831604,329
811.950378,335
812.069153,326
812.187927,314
812.30658,342
812.425415,328
812.544128,331
812.662781,334
812.781616,337
812.900269,319
813.019043,319
813.137756,334
813.256531,327
813.375244,328
813.493896,336
813.612671,328
813.731384,328
813.850037,332
813.96875,329
814.087524,316
814.206238,319
814.324951,326
814.443604,327
814.562256,336
814.68103,323
814.799683,325
814.918335,318
815.037109,317
815.155762,332
815.274475,347
815.393188,321
815.511841,327
815.630554,333
815.749146,325
815.867859,329
815.986572,320
816.105164,323
816.223877,325
816.342529,329
816.461182,317
816.579895,305
816.698486,328
816.817139,324
816.935791,321
817.054504,318
817.173096,325
817.291748,334
817.4104,325
817.529053,325
817.647644,339
817.766235,324
817.884949,316
818.00354,329
818.122192,325
818.240845,327
818.359436,310
818.478088,331
818.59668,318
818.715271,330
818.833923,343
818.952515,307
819.071106,325
819.189758,325
819.30835,315
819.426941,326
819.545532,322
819.664124,326
819.782715,331
819.901306,317
820.019897,329
820.138489,329
820.25708,325
820.375671,319
820.494202,309
820.612732,320
820.731384,332
820.849915,317
820.968506,328
821.087097,325
821.205627,325
821.324158,320
821.442749,328
821.561279,320
821.679871,327
821.798401,324
821.916931,339
822.035461,326
822.154053,330
822.272583,327
822.391174,323
822.509583,315
822.628174,329
822.746704,327
822.865234,334
822.983765,318
823.102295,316
823.220825,322
823.339294,323
823.457825,312
823.576355,313
823.694824,327
823.813354,322
823.931885,323
824.050354,320
824.168884,319
824.287354,324
824.405823,328
824.524353,317
824.642822,327
824.761353,322
824.879822,322
824.998291,314
825.116699,336
825.235291,327
825.353699,335
825.472168,313
825.590637,333
825.709106,318
825.827576,324
825.946045,322
826.064453,328
826.182983,326
826.301392,306
826.4198,320
826.53833,317
826.656738,319
826.775208,328
826.893677,312
827.012024,322
827.130493,320
827.248962,324
827.36731,313
827.485779,330
827.604248,318
827.722595,322
827.841064,318
827.959412,326
828.077942,324
828.196289,319
828.314636,323
828.433105,319
828.551514,319
828.669861,312
828.78833,323
828.906677,314
829.025085,317
829.143433,316
829.261841,319
829.38031,325
829.498657,325
829.617004,315
829.735413,323
829.85376,326
829.972107,317
830.090515,324
830.208862,331
830.327209,333
830.445557,325
830.563904,317
830.682312,319
830.800659,310
830.919006,318
831.037354,318
831.155701,330
831.274048,317
831.392395,312
831.51062,325
831.629028,326
831.747314,310
831.865662,321
831.984009,322
832.102356,319
832.220642,315
832.338928,331
832.457275,323
832.575623,316
832.693909,318
832.812134,318
832.930481,329
833.048828,312
833.167114,324
833.2854,320
833.403687,320
833.521973,320
833.640259,337
833.758545,313
833.876831,320
833.995056,314
834.113281,310
834.231628,327
834.349915,319
834.468201,326
834.586426,321
834.704651,320
834.822998,310
834.941162,313
835.059448,316
835.177673,317
835.295959,322
835.414246,317
835.53241,330
835.650635,316
835.768921,324
835.887146,331
836.005371,313
836.123596,307
836.241821,319
836.360046,338
836.478271,314
836.596497,331
836.714722,331
836.832886,313
836.95105,326
837.069336,313
837.1875,321
837.305725,328
837.423889,317
837.542053,324
837.660339,314
837.778503,318
837.896667,312
838.014832,315
838.132996,322
838.25116,312
838.369385,318
838.487488,311
838.605713,336
838.723877,301
838.84198,310
838.960205,319
839.078308,315
839.196472,310
839.314636,331
839.4328,308
839.550964,323
839.669067,326
839.787231,323
839.905396,333
840.023499,334
840.141602,321
840.259766,318
840.377869,315
840.495972,319
840.614136,329
840.732239,325
840.850342,327
840.968445,327
841.086548,323
841.204651,321
841.322754,336
841.440918,327
841.55896,318
841.677002,333
841.795166,331
841.913208,316
842.031311,317
842.149353,330
842.267456,321
842.385498,326
842.503601,305
842.621643,322
842.739746,317
842.857788,328
842.97583,318
843.093933,332
843.211975,326
843.330017,337
843.44812,327
843.566101,327
843.684204,321
843.802246,329
843.920227,321
844.038269,328
844.156311,311
844.274292,322
844.392395,321
844.510376,323
844.628357,317
844.74646,321
844.864441,324
844.982422,320
845.100403,307
845.218384,326
845.336426,319
845.454468,326
845.572449,317
845.69043,327
845.808411,321
845.926453,319
846.044373,331
846.162354,307
846.280396,323
846.398315,317
846.516296,326
846.634216,333
846.752197,315
846.870178,310
846.988098,327
847.106079,333
847.22406,309
847.34198,327
847.4599,306
847.577881,329
847.695801,318
847.813782,341
847.931641,310
848.049561,326
848.167603,335
848.285461,324
848.403381,334
848.521362,320
848.639221,318
848.75708,311
848.875,321
848.99292,311
849.110901,319
849.22876,315
849.34668,315
849.464539,320
849.582458,313
849.700317,319
849.818176,321
849.936096,321
850.053955,324
850.171875,332
850.289673,331
850.407593,328
850.525452,317
850.643311,320
850.761169,328
850.878967,320
850.996887,327
851.114746,315
851.232544,315
851.350403,323
851.468262,325
851.58606,330
851.703979,318
851.821777,313
851.939636,308
852.057434,328
852.175232,318
852.293091,330
852.410889,319
852.528687,328
852.646545,333
852.764343,329
852.88208,306
852.999939,333
853.117676,327
853.235535,332
853.353271,316
853.471069,316
853.588928,320
853.706604,326
853.824402,316
853.9422,324
854.059998,317
854.177734,324
854.295532,321
854.413269,314
854.531006,317
854.648804,317
854.766541,327
854.884277,314
855.002014,330
855.119751,324
855.237549,329
855.355225,332
855.473022,318
855.590698,315
855.708435,319
855.826172,313
855.943848,322
856.061646,329
856.179321,325
856.296997,322
856.414795,323
856.53241,320
856.650085,320
856.767822,329
856.885559,308
857.003174,320
857.120911,343
857.238586,333
857.356201,320
857.473938,333
857.591614,330
857.709351,309
857.826965,319
857.944641,331
858.062317,331
858.179993,329
858.297668,318
858.415283,318
858.532959,321
858.650574,321
858.768188,308
858.885803,326
859.003479,316
859.121094,320
859.23877,322
859.356384,320
859.473999,324
859.591675,330
859.709229,328
859.826843,331
859.944458,316
860.062012,338
860.179626,331
860.297302,313
860.414856,323
860.532471,343
860.650024,323
860.767639,330
860.885193,324
861.002808,323
861.120361,318
861.237976,315
861.35553,332
861.473022,326
861.590698,321
861.708191,313
861.825745,327
861.943298,312
862.060852,309
862.178406,334
862.295959,324
862.413513,322
862.531006,310
862.64856,314
862.766113,325
862.883667,312
863.00116,323
863.118713,330
863.236206,318
863.353699,319
863.471252,313
863.588745,324
863.706177,336
863.82373,338
863.941162,331
864.058716,324
864.176208,319
864.29364,325
864.411194,313
864.528687,337
864.646118,311
864.763611,324
864.881042,321
864.998535,308
865.116028,325
865.233459,325
865.350891,328
865.468384,327
865.585754,313
865.703308,326
865.820679,315
865.938171,333
866.055542,317
866.173035,318
866.290466,310
866.407837,321
866.52533,316
866.6427,323
866.760071,322
866.877563,318
866.994934,327
867.112305,329
867.229736,322
867.347107,312
867.464539,308
867.58197,319
867.699341,312
867.81665,323
867.934082,314
868.051453,313
868.168823,315
868.286194,326
868.403564,322
868.520935,325
868.638306,330
868.755676,323
868.872986,308
868.990295,327
869.107727,324
869.225037,320
869.342346,321
869.459717,315
869.577026,316
869.694336,332
869.811707,314
869.929016,330
870.046326,318
870.163635,332
870.280945,323
870.398254,319
870.515564,323
870.632812,323
870.750183,313
870.867432,331
870.984741,319
871.102051,317
871.219299,329
871.336609,327
871.453918,324
871.571106,318
871.688416,333
871.805664,317
871.922852,328
872.040222,325
872.157471,334
872.274719,333
872.391968,329
872.509155,322
872.626465,329
872.743652,311
872.860962,311
872.978149,324
873.095337,320
873.212646,322
873.329834,331
873.44696,324
873.564209,314
873.681396,331
873.798645,307
873.915894,325
874.03302,318
874.150208,332
874.267456,327
874.384583,311
874.501831,325
874.618958,326
874.736145,333
874.853333,327
874.970459,329
875.087646,328
875.204834,326
875.32196,335
875.439148,322
875.556274,325
875.673401,315
875.790527,320
875.907715,306
876.024841,333
876.141968,324
876.259094,330
876.376282,319
876.493347,325
876.610474,330
876.7276,327
876.844727,301
876.961853,318
877.078918,317
877.195984,328
877.313171,322
877.430237,332
877.547302,313
877.664368,324
877.781433,314
877.898499,316
878.015625,323
878.13269,329
878.249695,326
878.366821,333
878.483887,317
878.600952,322
878.717957,314
878.834961,324
878.952087,328
879.069092,316
879.186157,322
879.303162,321
879.420227,336
879.537231,326
879.654236,324
879.77124,322
879.888306,327
880.005249,340
880.122314,317
880.239319,329
880.356323,315
880.473328,311
880.590271,332
880.707275,323
880.824341,324
880.941284,340
881.058228,318
881.175232,327
881.292236,321
881.40918,320
881.526123,328
881.643066,337
881.760071,310
881.877014,328
881.993958,315
882.11084,327
882.227783,308
882.344727,307
882.46167,325
882.578613,334
882.695618,315
882.812439,321
882.929382,319
883.046326,318
883.163208,315
883.280151,317
883.397034,317
883.513916,324
883.630798,327
883.747742,327
883.864563,331
883.981506,323
884.098389,324
884.21521,332
884.332153,322
884.448975,328
884.565796,313
884.682678,310
884.7995,330
884.916443,320
885.033264,320
885.150085,333
885.266968,325
885.383789,330
885.500671,334
885.617493,332
885.734314,315
885.851196,331
885.967896,331
886.084717,326
886.201599,328
886.318359,331
886.435181,342
886.552002,334
886.668762,320
886.785645,327
886.902344,323
887.019165,335
887.135925,321
887.252747,326
887.369446,329
887.486267,311
887.603027,332
887.719788,336
887.836548,319
887.953247,320
888.070068,315
888.186829,321
888.303528,319
888.420288,325
888.536987,321
888.653687,316
888.770447,311
888.887146,310
889.003967,325
889.120667,318
889.237305,314
889.354065,308
889.470703,329
889.587463,325
889.704163,315
889.820862,317
889.937561,313
890.054199,331
890.170837,303
890.287598,317
890.404236,303
890.520874,323
890.637634,323
890.754211,321
890.87085,334
890.987549,326
891.104187,319
891.220886,314
891.337463,310
891.454102,323
891.57074,324
891.687378,330
891.804077,325
891.920654,322
892.037231,315
892.15387,329
892.270447,317
892.387085,318
892.503723,319
892.6203,325
892.736877,308
892.853516,323
892.970032,317
893.08667,322
893.203186,320
893.319763,324
893.43634,329
893.552917,329
893.669556,321
893.786011,320
893.902588,313
894.019165,329
894.135681,320
894.252197,325
894.368835,321
894.485291,314
894.601868,305
894.718384,328
894.8349,326
894.951355,331
895.067932,321
895.184448,321
895.300964,312
895.417419,311
895.533936,320
895.650452,321
895.766907,316
895.883423,317
895.999878,315
896.116333,332
896.232849,301
896.349304,318
896.465759,324
896.582214,309
896.698669,316
896.815125,320
896.931641,325
897.048035,320
897.164551,322
897.280884,322
897.397339,312
897.513794,323
897.630249,326
897.746582,322
897.863098,328
897.979431,341
898.095886,312
898.212341,324
898.328674,321
898.445129,335
898.561462,312
898.677795,326
898.794312,320
898.910645,312
899.026978,317
899.143433,317
899.259766,304
899.37616,331
899.492493,321
899.608765,319
899.725159,311
899.841553,334
899.957947,319
900.07428,324
900.190552,321
900.306946,308
900.423157,314
900.53949,316
900.655884,310
900.772156,329
900.888489,314
901.004822,319
901.121033,333
901.237366,314
901.353699,323
901.46991,320
901.586304,328
901.702515,316
901.818787,319
901.93512,334
902.051331,305
902.167603,331
902.283875,323
902.400085,332
902.516418,313
902.632629,335
902.74884,324
902.865112,329
902.981384,317
903.097595,333
903.213867,310
903.330017,317
903.446289,311
903.5625,334
903.67865,317
903.794922,322
903.911072,328
904.027344,315
904.143494,313
904.259705,324
904.375916,315
904.492065,333
904.608215,308
904.724426,323
904.840576,316
904.956726,320
905.072876,321
905.189087,319
905.305176,312
905.421387,321
905.537537,330
905.653687,325
905.769775,315
905.885925,316
906.002014,316
906.118164,323
906.234314,323
906.350403,318
906.466492,318
906.582642,323
906.69873,318
906.814758,330
906.930908,312
907.046936,310
907.163086,317
907.279175,321
907.395264,333
907.511353,327
907.62738,312
907.743408,315
907.859497,320
907.975525,322
908.091553,320
908.207703,309
908.32373,311
908.439758,320
908.555786,315
908.671814,314
908.787842,312
908.90387,328
909.019775,306
909.135864,322
909.251892,310
909.367859,324
909.483826,307
909.599854,319
909.715881,312
909.831848,334
909.947815,337
910.063782,326
910.179749,318
910.295776,335
910.411743,318
910.527649,318
910.643616,319
910.759583,312
910.875488,301
910.991455,313
911.107361,319
911.223267,315
911.339294,315
911.4552,320
911.571106,315
911.687073,321
911.802979,324
911.918823,321
912.034729,315
912.150635,318
912.266602,302
912.382446,308
912.498352,335
912.614197,315
912.730103,300
912.846008,321
792.44574,349
792.56488,402
792.68396,443
792.80304,416
792.92218,374
793.041199,369
793.160339,352
793.279419,397
793.398499,380
793.517578,347
793.636658,343
793.755737,359
793.874817,373
793.993896,365
794.112976,357
794.232056,368
794.351074,342
794.470215,343
794.589233,350
794.708313,359
794.827393,358
794.946411,350
795.065552,360
795.18457,362
795.303589,346
795.422668,342
795.541687,355
795.660767,351
795.779846,343
795.898865,348
796.017883,342
796.136963,343
796.255981,373
796.375061,344
796.49408,342
796.613037,350
796.732117,336
796.851135,336
796.970154,343
797.089233,336
797.208191,346
797.327271,346
797.446228,332
797.565186,325
797.684265,345
797.803223,330
797.922241,342
798.04126,341
798.160278,354
798.279297,332
798.398315,340
798.517273,329
798.636292,341
798.75531,338
798.874268,343
798.993286,340
799.112244,343
799.231323,312
799.350281,336
799.469238,328
799.588257,333
799.707153,324
799.826111,341
799.945129,336
800.064087,333
800.183044,322
800.302063,339
800.421021,322
800.539978,347
800.658936,325
800.777893,325
800.896912,328
801.015747,333
801.134705,329
801.253723,345
801.37262,329
801.491638,335
801.610535,335
801.729492,310
801.84845,340
801.967407,326
802.086243,320
802.205261,330
802.324158,327
802.443115,319
802.562073,324
802.680969,329
802.799927,326
802.918762,334
803.037659,336
803.156677,324
803.275574,342
803.39447,334
803.513428,334
803.632263,320
803.751221,334
803.870117,329
803.989014,334
804.107971,333
804.226746,339
804.345642,330
804.4646,321
804.583496,330
804.702393,329
804.821228,332
804.940125,318
805.059021,313
805.177917,333
805.296814,327
805.415649,324
805.534546,331
805.653442,321
805.772278,336
805.891113,332
806.01001,331
806.128906,328
806.247742,319
806.366577,324
806.485413,324
806.604309,313
806.723145,308
806.84198,336
806.960876,323
807.079712,317
807.198486,322
807.317383,320
807.436218,324
807.554993,326
807.673889,335
807.792725,326
807.91156,321
808.030396,328
808.14917,333
808.268005,318
808.386841,331
808.505676,317
808.624451,329
808.743286,316
808.862122,331
808.980896,338
809.099731,318
809.218506,328
809.337341,328
809.456116,332
809.57489,327
809.693726,329
809.8125,316
809.931274,322
810.050049,333
810.168884,333
810.287659,322
810.406372,319
810.525269,318
810.643982,323
810.762756,333
810.881531,326
811.000305,333
811.11908,317
811.237854,338
811.356567,331
811.475403,324
811.594116,339
811.71283,328
811.831604,333
811.950378,335
812.069153,329
812.187927,327
812.30658,323
812.425415,334
812.544128,321
812.662781,324
812.781616,323
812.900269,317
813.019043,332
813.137756,328
813.256531,323
813.375244,328
813.493896,331
813.612671,333
813.731384,314
813.850037,324
813.96875,336
814.087524,330
814.206238,330
814.324951,323
814.443604,333
814.562256,317
814.68103,327
814.799683,322
814.918335,324
815.037109,317
815.155762,321
815.274475,331
815.393188,330
815.511841,328
815.630554,323
815.749146,321
815.867859,330
815.986572,323
816.105164,325
816.223877,318
816.342529,316
816.461182,325
816.579895,330
816.698486,314
816.817139,329
816.935791,318
817.054504,322
817.173096,323
817.291748,327
817.4104,330
817.529053,333
817.647644,315
817.766235,323
817.884949,326
818.00354,325
818.122192,316
818.240845,339
818.359436,327
818.478088,332
818.59668,323
818.715271,320
818.833923,328
818.952515,314
819.071106,332
819.189758,322
819.30835,334
819.426941,326
819.545532,317
819.664124,331
819.782715,327
819.901306,328
820.019897,317
820.138489,320
820.25708,332
820.375671,332
820.494202,312
820.612732,317
820.731384,337
820.849915,340
820.968506,314
821.087097,326
821.205627,315
821.324158,321
821.442749,323
821.561279,341
821.679871,327
821.798401,329
821.916931,328
822.035461,314
822.154053,323
822.272583,323
822.391174,320
822.509583,319
822.628174,314
822.746704,314
822.865234,315
822.983765,316
823.102295,320
823.220825,319
823.339294,323
823.457825,320
823.576355,324
823.694824,327
823.813354,331
823.931885,318
824.050354,314
824.168884,335
824.287354,324
824.405823,306
824.524353,325
824.642822,332
824.761353,317
824.879822,321
824.998291,326
825.116699,332
825.235291,336
825.353699,311
825.472168,320
825.590637,323
825.709106,315
825.827576,322
825.946045,320
826.064453,328
826.182983,307
826.301392,324
826.4198,330
826.53833,329
826.656738,319
826.775208,318
826.893677,315
827.012024,314
827.130493,334
827.248962,324
827.36731,326
827.485779,303
827.604248,322
827.722595,325
827.841064,332
827.959412,327
828.077942,327
828.196289,322
828.314636,318
828.433105,327
828.551514,334
828.669861,306
828.78833,318
828.906677,311
829.025085,318
829.143433,322
829.261841,323
829.38031,332
829.498657,321
829.617004,316
829.735413,331
829.85376,312
829.972107,317
830.090515,305
830.208862,319
830.327209,315
830.445557,320
830.563904,312
830.682312,314
830.800659,319
830.919006,333
831.037354,317
831.155701,321
831.274048,327
831.392395,315
831.51062,331
831.629028,317
831.747314,328
831.865662,316
831.984009,320
832.102356,317
832.220642,322
832.338928,320
832.457275,329
832.575623,317
832.693909,324
832.812134,319
832.930481,319
833.048828,317
833.167114,322
833.2854,313
833.403687,315
833.521973,331
833.640259,318
833.758545,323
833.876831,320
833.995056,310
834.113281,312
834.231628,316
834.349915,338
834.468201,318
834.586426,325
834.704651,317
834.822998,327
834.941162,340
835.059448,312
835.177673,319
835.295959,308
835.414246,328
835.53241,322
835.650635,320
835.768921,318
835.887146,323
836.005371,313
836.123596,326
836.241821,315
836.360046,326
836.478271,325
836.596497,325
836.714722,331
836.832886,316
836.95105,323
837.069336,313
837.1875,319
837.305725,315
837.423889,332
837.542053,315
837.660339,333
837.778503,305
837.896667,327
838.014832,314
838.132996,318
838.25116,322
838.369385,321
838.487488,307
838.605713,323
838.723877,317
838.84198,319
838.960205,324
839.078308,326
839.196472,309
839.314636,315
839.4328,315
839.550964,323
839.669067,321
839.787231,313
839.905396,315
840.023499,327
840.141602,322
840.259766,328
840.377869,332
840.495972,319
840.614136,320
840.732239,327
840.850342,321
840.968445,314
841.086548,319
841.204651,336
841.322754,327
841.440918,336
841.55896,319
841.677002,332
841.795166,331
841.913208,324
842.031311,318
842.149353,317
842.267456,317
842.385498,336
842.503601,325
842.621643,327
842.739746,320
842.857788,328
842.97583,310
843.093933,322
843.211975,312
843.330017,328
843.44812,315
843.566101,317
843.684204,321
843.802246,338
843.920227,330
844.038269,318
844.156311,319
844.274292,334
844.392395,322
844.510376,306
844.628357,304
844.74646,320
844.864441,325
844.982422,336
845.100403,319
845.218384,327
845.336426,316
845.454468,321
845.572449,316
845.69043,312
845.808411,322
845.926453,325
846.044373,324
846.162354,331
846.280396,315
846.398315,322
846.516296,320
846.634216,333
846.752197,326
846.870178,328
846.988098,319
847.106079,329
847.22406,313
847.34198,324
847.4599,317
847.577881,323
847.695801,321
847.813782,332
847.931641,325
848.049561,316
848.167603,326
848.285461,333
848.403381,319
848.521362,315
848.639221,329
848.75708,319
848.875,317
848.99292,333
849.110901,326
849.22876,335
849.34668,337
849.464539,322
849.582458,324
849.700317,325
849.818176,310
849.936096,314
850.053955,314
850.171875,328
850.289673,333
850.407593,330
850.525452,340
850.643311,328
850.761169,305
850.878967,321
850.996887,326
851.114746,328
851.232544,316
851.350403,332
851.468262,329
851.58606,314
851.703979,317
851.821777,328
851.939636,314
852.057434,325
852.175232,326
852.293091,316
852.410889,328
852.528687,344
852.646545,324
852.764343,332
852.88208,334
852.999939,331
853.117676,335
853.235535,316
853.353271,304
853.471069,319
853.588928,313
853.706604,324
853.824402,321
853.9422,330
854.059998,318
854.177734,323
854.295532,304
854.413269,328
854.531006,333
854.648804,332
854.766541,317
854.884277,329
855.002014,321
855.119751,313
855.237549,318
855.355225,332
855.473022,322
855.590698,329
855.708435,314
855.826172,322
855.943848,327
856.061646,323
856.179321,327
856.296997,317
856.414795,316
856.53241,331
856.650085,327
856.767822,333
856.885559,323
857.003174,334
857.120911,329
857.238586,339
857.356201,337
857.473938,318
857.591614,323
857.709351,330
857.826965,328
857.944641,334
858.062317,321
858.179993,324
858.297668,313
858.415283,332
858.532959,333
858.650574,334
858.768188,320
858.885803,335
859.003479,316
859.121094,320
859.23877,327
859.356384,323
859.473999,324
859.591675,316
859.709229,315
859.826843,320
859.944458,314
860.062012,330
860.179626,316
860.297302,330
860.414856,319
860.532471,312
860.650024,322
860.767639,329
860.885193,324
861.002808,309
861.120361,308
861.237976,331
861.35553,331
861.473022,329
861.590698,330
861.708191,331
861.825745,314
861.943298,322
862.060852,314
862.178406,322
862.295959,318
862.413513,306
862.531006,320
862.64856,333
862.766113,314
862.883667,323
863.00116,321
863.118713,334
863.236206,309
863.353699,323
863.471252,322
863.588745,328
863.706177,331
863.82373,319
863.941162,324
864.058716,322
864.176208,324
864.29364,324
864.411194,320
864.528687,323
864.646118,325
864.763611,328
864.881042,320
864.998535,331
865.116028,335
865.233459,318
865.350891,319
865.468384,317
865.585754,323
865.703308,331
865.820679,331
865.938171,310
866.055542,323
866.173035,330
866.290466,326
866.407837,328
866.52533,319
866.6427,314
866.760071,316
866.877563,320
866.994934,311
867.112305,322
867.229736,320
867.347107,322
867.464539,327
867.58197,313
867.699341,316
867.81665,323
867.934082,320
868.051453,326
868.168823,319
868.286194,322
868.403564,313
868.520935,332
868.638306,309
868.755676,324
868.872986,330
868.990295,326
869.107727,317
869.225037,313
869.342346,327
869.459717,319
869.577026,333
869.694336,324
869.811707,325
869.929016,324
870.046326,324
870.163635,320
870.280945,326
870.398254,328
870.515564,324
870.632812,319
870.750183,313
870.867432,324
870.984741,324
871.102051,330
871.219299,326
871.336609,322
871.453918,317
871.571106,328
871.688416,326
871.805664,333
871.922852,329
872.040222,336
872.157471,317
872.274719,314
872.391968,326
872.509155,326
872.626465,316
872.743652,326
872.860962,330
872.978149,317
873.095337,332
873.212646,333
873.329834,322
873.44696,321
873.564209,323
873.681396,324
873.798645,322
873.915894,323
874.03302,311
874.150208,322
874.267456,323
874.384583,326
874.501831,317
874.618958,316
874.736145,337
874.853333,335
874.970459,334
875.087646,327
875.204834,330
875.32196,342
875.439148,307
875.556274,333
875.673401,331
875.790527,313
875.907715,328
876.024841,325
876.141968,323
876.259094,335
876.376282,306
876.493347,319
876.610474,322
876.7276,319
876.844727,324
876.961853,310
877.078918,313
877.195984,322
877.313171,329
877.430237,328
877.547302,317
877.664368,337
877.781433,332
877.898499,328
878.015625,301
878.13269,314
878.249695,324
878.366821,318
878.483887,327
878.600952,333
878.717957,316
878.834961,325
878.952087,335
879.069092,326
879.186157,309
879.303162,311
879.420227,319
879.537231,317
879.654236,320
879.77124,318
879.888306,323
880.005249,327
880.122314,311
880.239319,333
880.356323,319
880.473328,322
880.590271,310
880.707275,326
880.824341,332
880.941284,319
881.058228,307
881.175232,318
881.292236,318
881.40918,328
881.526123,325
881.643066,320
881.760071,320
881.877014,316
881.993958,322
882.11084,323
882.227783,308
882.344727,333
882.46167,315
882.578613,307
882.695618,314
882.812439,318
882.929382,321
883.046326,321
883.163208,322
883.280151,321
883.397034,326
883.513916,327
883.630798,310
883.747742,331
883.864563,332
883.981506,309
884.098389,328
884.21521,309
884.332153,318
884.448975,326
884.565796,320
884.682678,322
884.7995,316
884.916443,339
885.033264,330
885.150085,333
885.266968,318
885.383789,323
885.500671,329
885.617493,342
885.734314,332
885.851196,344
885.967896,321
886.084717,324
886.201599,331
886.318359,326
886.435181,335
886.552002,324
886.668762,337
886.785645,328
886.902344,331
887.019165,326
887.135925,320
887.252747,338
887.369446,333
887.486267,335
887.603027,334
887.719788,332
887.836548,315
887.953247,324
888.070068,310
888.186829,324
888.303528,319
888.420288,324
888.536987,319
888.653687,314
888.770447,316
888.887146,337
889.003967,316
889.120667,319
889.237305,312
889.354065,315
889.470703,312
889.587463,317
889.704163,323
889.820862,304
889.937561,318
890.054199,325
890.170837,313
890.287598,325
890.404236,313
890.520874,322
890.637634,320
890.754211,319
890.87085,308
890.987549,321
891.104187,311
891.220886,320
891.337463,312
891.454102,326
891.57074,322
891.687378,325
891.804077,323
891.920654,335
892.037231,319
892.15387,324
892.270447,320
892.387085,316
892.503723,323
892.6203,326
892.736877,323
892.853516,321
892.970032,329
893.08667,318
893.203186,313
893.319763,316
893.43634,327
893.552917,325
893.669556,304
893.786011,329
893.902588,320
894.019165,322
894.135681,306
894.252197,327
894.368835,326
894.485291,323
894.601868,321
894.718384,309
894.8349,320
894.951355,322
895.067932,322
895.184448,307
895.300964,322
895.417419,299
895.533936,311
895.650452,320
895.766907,307
895.883423,322
895.999878,322
896.116333,313
896.232849,315
896.349304,312
896.465759,314
896.582214,313
896.698669,316
896.815125,336
896.931641,306
897.048035,329
897.164551,317
897.280884,316
897.397339,311
897.513794,319
897.630249,316
897.746582,310
897.863098,308
897.979431,309
898.095886,323
898.212341,313
898.328674,310
898.445129,314
898.561462,322
898.677795,318
898.794312,319
898.910645,329
899.026978,323
899.143433,311
899.259766,312
899.37616,319
899.492493,314
899.608765,317
899.725159,317
899.841553,311
899.957947,319
900.07428,326
900.190552,319
900.306946,319
900.423157,314
900.53949,331
900.655884,314
900.772156,314
900.888489,314
901.004822,326
901.121033,308
901.237366,327
901.353699,314
901.46991,318
901.586304,303
901.702515,323
901.818787,315
901.93512,319
902.051331,322
902.167603,317
902.283875,328
902.400085,328
902.516418,323
902.632629,337
902.74884,320
902.865112,341
902.981384,322
903.097595,336
903.213867,322
903.330017,318
903.446289,332
903.5625,323
903.67865,323
903.794922,332
903.911072,310
904.027344,323
904.143494,325
904.259705,328
904.375916,318
904.492065,334
904.608215,311
904.724426,311
904.840576,316
904.956726,316
905.072876,308
905.189087,311
905.305176,320
905.421387,330
905.537537,324
905.653687,323
905.769775,317
905.885925,315
906.002014,314
906.118164,319
906.234314,323
906.350403,315
906.466492,309
906.582642,304
906.69873,317
906.814758,316
906.930908,303
907.046936,321
907.163086,321
907.279175,319
907.395264,339
907.511353,304
907.62738,325
907.743408,319
907.859497,306
907.975525,328
908.091553,312
908.207703,326
908.32373,318
908.439758,312
908.555786,320
908.671814,316
908.787842,312
908.90387,329
909.019775,323
909.135864,309
909.251892,312
909.367859,321
909.483826,312
909.599854,332
909.715881,318
909.831848,310
909.947815,314
910.063782,316
910.179749,318
910.295776,324
910.411743,309
910.527649,314
910.643616,321
910.759583,323
910.875488,316
910.991455,322
911.107361,320
911.223267,314
911.339294,307
911.4552,321
911.571106,315
911.687073,334
911.802979,321
911.918823,328
912.034729,308
912.150635,320
912.266602,293
912.382446,320
912.498352,316
912.614197,315
912.730103,321
912.846008,314
