792.44574,364
792.56488,388
792.68396,440
792.80304,425
792.92218,360
793.041199,362
793.160339,350
793.279419,368
793.398499,372
793.517578,345
793.636658,345
793.755737,377
793.874817,374
793.993896,371
794.112976,367
794.232056,358
794.351074,341
794.470215,367
794.589233,352
794.708313,368
794.827393,347
794.946411,347
795.065552,337
795.18457,345
795.303589,333
795.422668,350
795.541687,349
795.660767,346
795.779846,353
795.898865,346
796.017883,353
796.136963,344
796.255981,333
796.375061,352
796.49408,355
796.613037,342
796.732117,344
796.851135,338
796.970154,343
797.089233,336
797.208191,342
797.327271,343
797.446228,338
797.565186,332
797.684265,321
797.803223,334
797.922241,336
798.04126,343
798.160278,317
798.279297,354
798.398315,321
798.517273,335
798.636292,332
798.75531,344
798.874268,327
798.993286,335
799.112244,347
799.231323,333
799.350281,331
799.469238,326
799.588257,320
799.707153,343
799.826111,335
799.945129,337
800.064087,326
800.183044,334
800.302063,340
800.421021,336
800.539978,331
800.658936,325
800.777893,340
800.896912,335
801.015747,327
801.134705,324
801.253723,328
801.37262,324
801.491638,332
801.610535,328
801.729492,337
801.84845,334
801.967407,328
802.086243,330
802.205261,339
802.324158,338
802.443115,340
802.562073,334
802.680969,320
802.799927,316
802.918762,320
803.037659,332
803.156677,334
803.275574,331
803.39447,317
803.513428,338
803.632263,331
803.751221,324
803.870117,343
803.989014,338
804.107971,344
804.226746,319
804.345642,331
804.4646,330
804.583496,329
804.702393,328
804.821228,332
804.940125,321
805.059021,326
805.177917,314
805.296814,325
805.415649,325
805.534546,329
805.653442,327
805.772278,332
805.891113,320
806.01001,335
806.128906,309
806.247742,335
806.366577,329
806.485413,332
806.604309,328
806.723145,310
806.84198,323
806.960876,319
807.079712,326
807.198486,320
807.317383,333
807.436218,326
807.554993,324
807.673889,328
807.792725,317
807.91156,324
808.030396,313
808.14917,317
808.268005,328
808.386841,335
808.505676,318
808.624451,335
808.743286,324
808.862122,334
808.980896,331
809.099731,322
809.218506,325
809.337341,326
809.456116,326
809.57489,326
809.693726,320
809.8125,327
809.931274,337
810.050049,315
810.168884,329
810.287659,306
810.406372,327
810.525269,320
810.643982,324
810.762756,319
810.881531,322
811.000305,322
811.11908,323
811.237854,335
811.356567,332
811.475403,327
811.594116,318
811.71283,319
811.831604,313
811.950378,336
812.069153,326
812.187927,313
812.30658,344
812.425415,342
812.544128,319
812.662781,327
812.781616,318
812.900269,322
813.019043,327
813.137756,325
813.256531,313
813.375244,320
813.493896,325
813.612671,320
813.731384,328
813.850037,331
813.96875,328
814.087524,326
814.206238,322
814.324951,328
814.443604,319
814.562256,328
814.68103,329
814.799683,337
814.918335,322
815.037109,314
815.155762,328
815.274475,324
815.393188,325
815.511841,338
815.630554,308
815.749146,328
815.867859,323
815.986572,309
816.105164,326
816.223877,306
816.342529,329
816.461182,328
816.579895,321
816.698486,326
816.817139,310
816.935791,332
817.054504,307
817.173096,327
817.291748,328
817.4104,325
817.529053,321
817.647644,319
817.766235,335
817.884949,324
818.00354,330
818.122192,317
818.240845,331
818.359436,316
818.478088,320
818.59668,313
818.715271,318
818.833923,320
818.952515,322
819.071106,323
819.189758,324
819.30835,327
819.426941,334
819.545532,323
819.664124,327
819.782715,323
819.901306,315
820.019897,328
820.138489,327
820.25708,316
820.375671,322
820.494202,317
820.612732,323
820.731384,325
820.849915,335
820.968506,322
821.087097,318
821.205627,319
821.324158,332
821.442749,307
821.561279,308
821.679871,325
821.798401,317
821.916931,331
822.035461,344
822.154053,320
822.272583,319
822.391174,319
822.509583,311
822.628174,317
822.746704,319
822.865234,319
822.983765,315
823.102295,321
823.220825,319
823.339294,332
823.457825,314
823.576355,330
823.694824,321
823.813354,326
823.931885,321
824.050354,311
824.168884,327
824.287354,309
824.405823,345
824.524353,321
824.642822,334
824.761353,311
824.879822,316
824.998291,323
825.116699,320
825.235291,307
825.353699,322
825.472168,307
825.590637,335
825.709106,322
825.827576,314
825.946045,323
826.064453,319
826.182983,317
826.301392,315
826.4198,327
826.53833,330
826.656738,332
826.775208,310
826.893677,312
827.012024,304
827.130493,306
827.248962,307
827.36731,317
827.485779,322
827.604248,315
827.722595,314
827.841064,319
827.959412,311
828.077942,306
828.196289,326
828.314636,310
828.433105,330
828.551514,309
828.669861,311
828.78833,317
828.906677,316
829.025085,322
829.143433,317
829.261841,324
829.38031,328
829.498657,319
829.617004,331
829.735413,329
829.85376,319
829.972107,320
830.090515,313
830.208862,311
830.327209,326
830.445557,316
830.563904,320
830.682312,315
830.800659,315
830.919006,330
831.037354,333
831.155701,316
831.274048,318
831.392395,314
831.51062,327
831.629028,326
831.747314,316
831.865662,301
831.984009,327
832.102356,317
832.220642,319
832.338928,304
832.457275,322
832.575623,310
832.693909,308
832.812134,325
832.930481,315
833.048828,324
833.167114,333
833.2854,327
833.403687,308
833.521973,331
833.640259,325
833.758545,324
833.876831,319
833.995056,325
834.113281,323
834.231628,306
834.349915,318
834.468201,313
834.586426,311
834.704651,313
834.822998,321
834.941162,313
835.059448,323
835.177673,327
835.295959,320
835.414246,306
835.53241,324
835.650635,308
835.768921,310
835.887146,320
836.005371,322
836.123596,322
836.241821,324
836.360046,321
836.478271,313
836.596497,314
836.714722,322
836.832886,318
836.95105,306
837.069336,321
837.1875,322
837.305725,328
837.423889,331
837.542053,330
837.660339,313
837.778503,310
837.896667,334
838.014832,305
838.132996,325
838.25116,329
838.369385,333
838.487488,324
838.605713,313
838.723877,321
838.84198,319
838.960205,309
839.078308,324
839.196472,315
839.314636,317
839.4328,317
839.550964,306
839.669067,319
839.787231,317
839.905396,319
840.023499,337
840.141602,322
840.259766,328
840.377869,314
840.495972,297
840.614136,322
840.732239,333
840.850342,324
840.968445,309
841.086548,322
841.204651,320
841.322754,335
841.440918,323
841.55896,316
841.677002,333
841.795166,328
841.913208,333
842.031311,321
842.149353,341
842.267456,322
842.385498,330
842.503601,320
842.621643,320
842.739746,319
842.857788,314
842.97583,326
843.093933,325
843.211975,323
843.330017,337
843.44812,327
843.566101,322
843.684204,326
843.802246,321
843.920227,329
844.038269,324
844.156311,326
844.274292,324
844.392395,317
844.510376,324
844.628357,310
844.74646,320
844.864441,318
844.982422,326
845.100403,334
845.218384,321
845.336426,321
845.454468,319
845.572449,324
845.69043,312
845.808411,313
845.926453,316
846.044373,317
846.162354,318
846.280396,314
846.398315,324
846.516296,316
846.634216,311
846.752197,343
846.870178,318
846.988098,305
847.106079,322
847.22406,316
847.34198,318
847.4599,319
847.577881,317
847.695801,322
847.813782,325
847.931641,322
848.049561,319
848.167603,314
848.285461,325
848.403381,312
848.521362,331
848.639221,310
848.75708,323
848.875,319
848.99292,309
849.110901,323
849.22876,315
849.34668,317
849.464539,337
849.582458,313
849.700317,321
849.818176,313
849.936096,330
850.053955,329
850.171875,326
850.289673,318
850.407593,323
850.525452,323
850.643311,326
850.761169,315
850.878967,326
850.996887,315
851.114746,319
851.232544,310
851.350403,303
851.468262,331
851.58606,332
851.703979,313
851.821777,318
851.939636,327
852.057434,342
852.175232,321
852.293091,317
852.410889,332
852.528687,337
852.646545,322
852.764343,330
852.88208,315
852.999939,334
853.117676,313
853.235535,331
853.353271,304
853.471069,324
853.588928,328
853.706604,317
853.824402,317
853.9422,312
854.059998,328
854.177734,322
854.295532,323
854.413269,326
854.531006,313
854.648804,315
854.766541,315
854.884277,322
855.002014,319
855.119751,318
855.237549,322
855.355225,333
855.473022,314
855.590698,321
855.708435,323
855.826172,316
855.943848,321
856.061646,326
856.179321,316
856.296997,319
856.414795,312
856.53241,334
856.650085,318
856.767822,314
856.885559,321
857.003174,330
857.120911,330
857.238586,326
857.356201,325
857.473938,318
857.591614,328
857.709351,315
857.826965,309
857.944641,330
858.062317,315
858.179993,322
858.297668,321
858.415283,324
858.532959,321
858.650574,335
858.768188,311
858.885803,334
859.003479,311
859.121094,312
859.23877,324
859.356384,317
859.473999,325
859.591675,320
859.709229,306
859.826843,332
859.944458,318
860.062012,318
860.179626,317
860.297302,318
860.414856,312
860.532471,324
860.650024,303
860.767639,322
860.885193,326
861.002808,336
861.120361,328
861.237976,328
861.35553,331
861.473022,322
861.590698,342
861.708191,318
861.825745,311
861.943298,311
862.060852,325
862.178406,332
862.295959,308
862.413513,315
862.531006,309
862.64856,319
862.766113,312
862.883667,326
863.00116,318
863.118713,316
863.236206,321
863.353699,319
863.471252,322
863.588745,321
863.706177,313
863.82373,341
863.941162,316
864.058716,327
864.176208,310
864.29364,318
864.411194,330
864.528687,334
864.646118,318
864.763611,328
864.881042,320
864.998535,315
865.116028,318
865.233459,335
865.350891,317
865.468384,310
865.585754,327
865.703308,325
865.820679,307
865.938171,320
866.055542,310
866.173035,333
866.290466,326
866.407837,319
866.52533,308
866.6427,320
866.760071,317
866.877563,311
866.994934,318
867.112305,314
867.229736,326
867.347107,316
867.464539,317
867.58197,328
867.699341,315
867.81665,321
867.934082,322
868.051453,331
868.168823,328
868.286194,317
868.403564,323
868.520935,318
868.638306,320
868.755676,326
868.872986,325
868.990295,318
869.107727,322
869.225037,322
869.342346,312
869.459717,322
869.577026,315
869.694336,310
869.811707,321
869.929016,322
870.046326,311
870.163635,329
870.280945,340
870.398254,325
870.515564,311
870.632812,328
870.750183,324
870.867432,342
870.984741,336
871.102051,323
871.219299,327
871.336609,310
871.453918,339
871.571106,329
871.688416,318
871.805664,332
871.922852,319
872.040222,324
872.157471,319
872.274719,324
872.391968,320
872.509155,338
872.626465,325
872.743652,330
872.860962,323
872.978149,331
873.095337,324
873.212646,338
873.329834,332
873.44696,326
873.564209,317
873.681396,309
873.798645,337
873.915894,328
874.03302,325
874.150208,334
874.267456,320
874.384583,344
874.501831,308
874.618958,329
874.736145,327
874.853333,328
874.970459,309
875.087646,326
875.204834,329
875.32196,336
875.439148,315
875.556274,327
875.673401,324
875.790527,326
875.907715,313
876.024841,320
876.141968,317
876.259094,325
876.376282,311
876.493347,318
876.610474,315
876.7276,327
876.844727,318
876.961853,328
877.078918,311
877.195984,310
877.313171,315
877.430237,334
877.547302,311
877.664368,327
877.781433,319
877.898499,326
878.015625,333
878.13269,329
878.249695,312
878.366821,329
878.483887,320
878.600952,324
878.717957,302
878.834961,334
878.952087,325
879.069092,327
879.186157,306
879.303162,324
879.420227,315
879.537231,309
879.654236,318
879.77124,327
879.888306,324
880.005249,313
880.122314,300
880.239319,319
880.356323,310
880.473328,318
880.590271,322
880.707275,317
880.824341,325
880.941284,324
881.058228,314
881.175232,339
881.292236,305
881.40918,317
881.526123,317
881.643066,324
881.760071,316
881.877014,326
881.993958,319
882.11084,323
882.227783,308
882.344727,323
882.46167,312
882.578613,316
882.695618,316
882.812439,310
882.929382,320
883.046326,328
883.163208,315
883.280151,320
883.397034,325
883.513916,331
883.630798,320
883.747742,313
883.864563,324
883.981506,319
884.098389,322
884.21521,319
884.332153,319
884.448975,325
884.565796,317
884.682678,320
884.7995,333
884.916443,335
885.033264,320
885.150085,321
885.266968,333
885.383789,340
885.500671,306
885.617493,309
885.734314,323
885.851196,334
885.967896,324
886.084717,344
886.201599,315
886.318359,331
886.435181,327
886.552002,331
886.668762,322
886.785645,327
886.902344,311
887.019165,330
887.135925,323
887.252747,339
887.369446,322
887.486267,320
887.603027,322
887.719788,329
887.836548,327
887.953247,325
888.070068,307
888.186829,316
888.303528,321
888.420288,320
888.536987,325
888.653687,330
888.770447,331
888.887146,294
889.003967,317
889.120667,324
889.237305,325
889.354065,308
889.470703,326
889.587463,330
889.704163,317
889.820862,326
889.937561,318
890.054199,306
890.170837,312
890.287598,324
890.404236,320
890.520874,313
890.637634,327
890.754211,309
890.87085,325
890.987549,309
891.104187,301
891.220886,308
891.337463,326
891.454102,323
891.57074,328
891.687378,321
891.804077,324
891.920654,317
892.037231,325
892.15387,320
892.270447,309
892.387085,313
892.503723,330
892.6203,309
892.736877,301
892.853516,332
892.970032,315
893.08667,323
893.203186,322
893.319763,324
893.43634,326
893.552917,317
893.669556,313
893.786011,308
893.902588,329
894.019165,333
894.135681,303
894.252197,317
894.368835,317
894.485291,324
894.601868,316
894.718384,323
894.8349,308
894.951355,329
895.067932,322
895.184448,322
895.300964,316
895.417419,315
895.533936,326
895.650452,327
895.766907,326
895.883423,317
895.999878,314
896.116333,303
896.232849,302
896.349304,310
896.465759,319
896.582214,333
896.698669,320
896.815125,321
896.931641,321
897.048035,330
897.164551,309
897.280884,318
897.397339,320
897.513794,323
897.630249,320
897.746582,326
897.863098,318
897.979431,320
898.095886,313
898.212341,319
898.328674,313
898.445129,316
898.561462,337
898.677795,317
898.794312,335
898.910645,324
899.026978,313
899.143433,319
899.259766,319
899.37616,316
899.492493,321
899.608765,322
899.725159,314
899.841553,306
899.957947,305
900.07428,323
900.190552,317
900.306946,327
900.423157,296
900.53949,336
900.655884,326
900.772156,320
900.888489,321
901.004822,316
901.121033,315
901.237366,320
901.353699,307
901.46991,322
901.586304,316
901.702515,311
901.818787,322
901.93512,323
902.051331,307
902.167603,310
902.283875,326
902.400085,320
902.516418,331
902.632629,322
902.74884,318
902.865112,316
902.981384,320
903.097595,317
903.213867,316
903.330017,329
903.446289,320
903.5625,321
903.67865,336
903.794922,317
903.911072,327
904.027344,312
904.143494,322
904.259705,325
904.375916,323
904.492065,316
904.608215,322
904.724426,332
904.840576,298
904.956726,311
905.072876,320
905.189087,322
905.305176,310
905.421387,324
905.537537,319
905.653687,321
905.769775,315
905.885925,313
906.002014,331
906.118164,321
906.234314,309
906.350403,313
906.466492,320
906.582642,312
906.69873,320
906.814758,322
906.930908,304
907.046936,316
907.163086,319
907.279175,310
907.395264,314
907.511353,329
907.62738,313
907.743408,318
907.859497,307
907.975525,318
908.091553,303
908.207703,321
908.32373,307
908.439758,328
908.555786,301
908.671814,327
908.787842,324
908.90387,320
909.019775,313
909.135864,304
909.251892,309
909.367859,323
909.483826,310
909.599854,316
909.715881,324
909.831848,315
909.947815,337
910.063782,312
910.179749,322
910.295776,317
910.411743,324
910.527649,318
910.643616,320
910.759583,321
910.875488,321
910.991455,332
911.107361,312
911.223267,304
911.339294,301
911.4552,316
911.571106,307
911.687073,323
911.802979,315
911.918823,321
912.034729,303
912.150635,312
912.266602,311
912.382446,320
912.498352,311
912.614197,322
912.730103,302
912.846008,329
792.44574,367
792.56488,396
792.68396,451
792.80304,421
792.92218,359
793.041199,365
793.160339,349
793.279419,359
793.398499,349
793.517578,353
793.636658,327
793.755737,372
793.874817,368
793.993896,360
794.112976,358
794.232056,346
794.351074,348
794.470215,343
794.589233,365
794.708313,339
794.827393,355
794.946411,351
795.065552,353
795.18457,348
795.303589,361
795.422668,338
795.541687,363
795.660767,348
795.779846,346
795.898865,334
796.017883,344
796.136963,346
796.255981,339
796.375061,351
796.49408,338
796.613037,337
796.732117,328
796.851135,331
796.970154,355
797.089233,318
797.208191,335
797.327271,329
797.446228,341
797.565186,332
797.684265,328
797.803223,350
797.922241,353
798.04126,319
798.160278,346
798.279297,336
798.398315,324
798.517273,335
798.636292,339
798.75531,330
798.874268,331
798.993286,336
799.112244,321
799.231323,342
799.350281,326
799.469238,334
799.588257,327
799.707153,343
799.826111,337
799.945129,345
800.064087,324
800.183044,328
800.302063,335
800.421021,321
800.539978,325
800.658936,332
800.777893,345
800.896912,318
801.015747,325
801.134705,324
801.253723,323
801.37262,323
801.491638,330
801.610535,330
801.729492,347
801.84845,322
801.967407,327
802.086243,322
802.205261,326
802.324158,326
802.443115,327
802.562073,338
802.680969,314
802.799927,316
802.918762,327
803.037659,327
803.156677,333
803.275574,335
803.39447,327
803.513428,334
803.632263,337
803.751221,336
803.870117,335
803.989014,332
804.107971,333
804.226746,322
804.345642,341
804.4646,315
804.583496,325
804.702393,321
804.821228,332
804.940125,331
805.059021,335
805.177917,341
805.296814,336
805.415649,321
805.534546,319
805.653442,337
805.772278,310
805.891113,326
806.01001,322
806.128906,320
806.247742,322
806.366577,322
806.485413,335
806.604309,335
806.723145,341
806.84198,328
806.960876,329
807.079712,317
807.198486,319
807.317383,338
807.436218,315
807.554993,321
807.673889,334
807.792725,327
807.91156,331
808.030396,338
808.14917,327
808.268005,326
808.386841,326
808.505676,318
808.624451,318
808.743286,314
808.862122,319
808.980896,317
809.099731,348
809.218506,320
809.337341,321
809.456116,320
809.57489,331
809.693726,342
809.8125,327
809.931274,326
810.050049,322
810.168884,322
810.287659,326
810.406372,317
810.525269,332
810.643982,332
810.762756,312
810.881531,336
811.000305,320
811.11908,321
811.237854,336
811.356567,322
811.475403,322
811.594116,324
811.71283,315
811.831604,325
811.950378,344
812.069153,330
812.187927,323
812.30658,322
812.425415,323
812.544128,322
812.662781,327
812.781616,317
812.900269,345
813.019043,314
813.137756,330
813.256531,322
813.375244,324
813.493896,317
813.612671,325
813.731384,316
813.850037,316
813.96875,317
814.087524,323
814.206238,336
814.324951,320
814.443604,320
814.562256,336
814.68103,331
814.799683,337
814.918335,334
815.037109,334
815.155762,326
815.274475,328
815.393188,322
815.511841,331
815.630554,316
815.749146,327
815.867859,310
815.986572,326
816.105164,319
816.223877,328
816.342529,327
816.461182,336
816.579895,332
816.698486,325
816.817139,322
816.935791,330
817.054504,315
817.173096,332
817.291748,324
817.4104,320
817.529053,315
817.647644,325
817.766235,331
817.884949,332
818.00354,333
818.122192,331
818.240845,325
818.359436,310
818.478088,332
818.59668,305
818.715271,324
818.833923,325
818.952515,323
819.071106,337
819.189758,330
819.30835,315
819.426941,324
819.545532,312
819.664124,315
819.782715,323
819.901306,323
820.019897,329
820.138489,323
820.25708,331
820.375671,322
820.494202,319
820.612732,324
820.731384,322
820.849915,320
820.968506,320
821.087097,329
821.205627,317
821.324158,312
821.442749,315
821.561279,323
821.679871,313
821.798401,323
821.916931,314
822.035461,320
822.154053,318
822.272583,317
822.391174,316
822.509583,329
822.628174,318
822.746704,312
822.865234,318
822.983765,317
823.102295,311
823.220825,321
823.339294,323
823.457825,316
823.576355,323
823.694824,326
823.813354,306
823.931885,321
824.050354,319
824.168884,328
824.287354,318
824.405823,313
824.524353,338
824.642822,321
824.761353,326
824.879822,325
824.998291,334
825.116699,332
825.235291,318
825.353699,322
825.472168,318
825.590637,318
825.709106,316
825.827576,315
825.946045,315
826.064453,323
826.182983,310
826.301392,320
826.4198,329
826.53833,331
826.656738,321
826.775208,308
826.893677,311
827.012024,334
827.130493,316
827.248962,326
827.36731,326
827.485779,311
827.604248,331
827.722595,304
827.841064,317
827.959412,321
828.077942,325
828.196289,313
828.314636,318
828.433105,321
828.551514,323
828.669861,307
828.78833,318
828.906677,321
829.025085,322
829.143433,318
829.261841,321
829.38031,321
829.498657,320
829.617004,310
829.735413,335
829.85376,330
829.972107,310
830.090515,320
830.208862,318
830.327209,319
830.445557,336
830.563904,320
830.682312,319
830.800659,327
830.919006,320
831.037354,323
831.155701,327
831.274048,312
831.392395,330
831.51062,328
831.629028,324
831.747314,317
831.865662,325
831.984009,333
832.102356,312
832.220642,312
832.338928,322
832.457275,308
832.575623,302
832.693909,318
832.812134,334
832.930481,321
833.048828,338
833.167114,319
833.2854,327
833.403687,321
833.521973,325
833.640259,324
833.758545,330
833.876831,330
833.995056,333
834.113281,331
834.231628,301
834.349915,323
834.468201,338
834.586426,307
834.704651,328
834.822998,321
834.941162,313
835.059448,314
835.177673,325
835.295959,315
835.414246,317
835.53241,315
835.650635,323
835.768921,306
835.887146,325
836.005371,320
836.123596,326
836.241821,312
836.360046,338
836.478271,312
836.596497,316
836.714722,326
836.832886,321
836.95105,310
837.069336,325
837.1875,319
837.305725,300
837.423889,315
837.542053,321
837.660339,326
837.778503,317
837.896667,333
838.014832,329
838.132996,328
838.25116,317
838.369385,319
838.487488,311
838.605713,321
838.723877,326
838.84198,317
838.960205,325
839.078308,302
839.196472,324
839.314636,311
839.4328,322
839.550964,316
839.669067,331
839.787231,317
839.905396,338
840.023499,316
840.141602,323
840.259766,318
840.377869,328
840.495972,316
840.614136,337
840.732239,308
840.850342,335
840.968445,329
841.086548,317
841.204651,326
841.322754,316
841.440918,328
841.55896,319
841.677002,312
841.795166,322
841.913208,313
842.031311,323
842.149353,313
842.267456,329
842.385498,327
842.503601,319
842.621643,315
842.739746,312
842.857788,321
842.97583,319
843.093933,317
843.211975,319
843.330017,321
843.44812,325
843.566101,328
843.684204,331
843.802246,319
843.920227,315
844.038269,335
844.156311,335
844.274292,306
844.392395,324
844.510376,321
844.628357,327
844.74646,322
844.864441,324
844.982422,328
845.100403,322
845.218384,306
845.336426,325
845.454468,325
845.572449,324
845.69043,347
845.808411,333
845.926453,312
846.044373,319
846.162354,317
846.280396,317
846.398315,335
846.516296,318
846.634216,330
846.752197,325
846.870178,319
846.988098,324
847.106079,315
847.22406,316
847.34198,326
847.4599,324
847.577881,314
847.695801,330
847.813782,324
847.931641,314
848.049561,312
848.167603,324
848.285461,328
848.403381,324
848.521362,315
848.639221,331
848.75708,334
848.875,327
848.99292,324
849.110901,327
849.22876,336
849.34668,324
849.464539,321
849.582458,325
849.700317,326
849.818176,322
849.936096,310
850.053955,343
850.171875,330
850.289673,323
850.407593,324
850.525452,302
850.643311,313
850.761169,315
850.878967,335
850.996887,323
851.114746,328
851.232544,319
851.350403,302
851.468262,318
851.58606,309
851.703979,325
851.821777,312
851.939636,332
852.057434,336
852.175232,331
852.293091,323
852.410889,324
852.528687,332
852.646545,326
852.764343,338
852.88208,315
852.999939,331
853.117676,323
853.235535,331
853.353271,323
853.471069,321
853.588928,321
853.706604,325
853.824402,330
853.9422,314
854.059998,323
854.177734,309
854.295532,319
854.413269,314
854.531006,329
854.648804,324
854.766541,314
854.884277,313
855.002014,323
855.119751,315
855.237549,343
855.355225,318
855.473022,320
855.590698,319
855.708435,331
855.826172,326
855.943848,321
856.061646,312
856.179321,324
856.296997,320
856.414795,332
856.53241,308
856.650085,332
856.767822,311
856.885559,325
857.003174,320
857.120911,324
857.238586,335
857.356201,333
857.473938,327
857.591614,319
857.709351,324
857.826965,323
857.944641,328
858.062317,329
858.179993,320
858.297668,314
858.415283,326
858.532959,326
858.650574,324
858.768188,336
858.885803,325
859.003479,333
859.121094,325
859.23877,337
859.356384,329
859.473999,326
859.591675,320
859.709229,332
859.826843,310
859.944458,326
860.062012,319
860.179626,310
860.297302,321
860.414856,320
860.532471,324
860.650024,315
860.767639,304
860.885193,325
861.002808,327
861.120361,345
861.237976,311
861.35553,331
861.473022,314
861.590698,322
861.708191,336
861.825745,323
861.943298,335
862.060852,313
862.178406,317
862.295959,324
862.413513,323
862.531006,315
862.64856,315
862.766113,320
862.883667,315
863.00116,327
863.118713,310
863.236206,332
863.353699,312
863.471252,318
863.588745,320
863.706177,319
863.82373,327
863.941162,317
864.058716,330
864.176208,314
864.29364,324
864.411194,310
864.528687,309
864.646118,335
864.763611,317
864.881042,317
864.998535,322
865.116028,326
865.233459,334
865.350891,318
865.468384,317
865.585754,327
865.703308,318
865.820679,309
865.938171,311
866.055542,320
866.173035,319
866.290466,322
866.407837,320
866.52533,320
866.6427,326
866.760071,334
866.877563,323
866.994934,331
867.112305,316
867.229736,317
867.347107,316
867.464539,316
867.58197,323
867.699341,318
867.81665,314
867.934082,314
868.051453,312
868.168823,328
868.286194,321
868.403564,324
868.520935,326
868.638306,326
868.755676,322
868.872986,316
868.990295,308
869.107727,319
869.225037,328
869.342346,324
869.459717,321
869.577026,313
869.694336,331
869.811707,326
869.929016,315
870.046326,332
870.163635,312
870.280945,323
870.398254,328
870.515564,319
870.632812,310
870.750183,314
870.867432,315
870.984741,330
871.102051,324
871.219299,329
871.336609,320
871.453918,326
871.571106,323
871.688416,341
871.805664,315
871.922852,335
872.040222,327
872.157471,326
872.274719,313
872.391968,317
872.509155,339
872.626465,331
872.743652,311
872.860962,328
872.978149,321
873.095337,323
873.212646,319
873.329834,311
873.44696,324
873.564209,320
873.681396,314
873.798645,330
873.915894,321
874.03302,326
874.150208,316
874.267456,335
874.384583,313
874.501831,329
874.618958,324
874.736145,326
874.853333,314
874.970459,325
875.087646,310
875.204834,318
875.32196,327
875.439148,327
875.556274,332
875.673401,335
875.790527,324
875.907715,315
876.024841,313
876.141968,315
876.259094,303
876.376282,322
876.493347,308
876.610474,334
876.7276,314
876.844727,325
876.961853,320
877.078918,314
877.195984,306
877.313171,333
877.430237,303
877.547302,342
877.664368,327
877.781433,328
877.898499,328
878.015625,330
878.13269,316
878.249695,332
878.366821,315
878.483887,337
878.600952,321
878.717957,337
878.834961,312
878.952087,309
879.069092,314
879.186157,312
879.303162,301
879.420227,317
879.537231,317
879.654236,327
879.77124,314
879.888306,322
880.005249,311
880.122314,322
880.239319,312
880.356323,319
880.473328,318
880.590271,327
880.707275,314
880.824341,323
880.941284,316
881.058228,316
881.175232,314
881.292236,312
881.40918,323
881.526123,324
881.643066,320
881.760071,327
881.877014,312
881.993958,323
882.11084,323
882.227783,319
882.344727,313
882.46167,320
882.578613,304
882.695618,310
882.812439,331
882.929382,320
883.046326,315
883.163208,320
883.280151,308
883.397034,318
883.513916,327
883.630798,325
883.747742,330
883.864563,321
883.981506,324
884.098389,322
884.21521,321
884.332153,326
884.448975,311
884.565796,334
884.682678,314
884.7995,330
884.916443,321
885.033264,326
885.150085,322
885.266968,327
885.383789,331
885.500671,328
885.617493,334
885.734314,323
885.851196,319
885.967896,328
886.084717,327
886.201599,330
886.318359,321
886.435181,320
886.552002,319
886.668762,321
886.785645,339
886.902344,327
887.019165,318
887.135925,324
887.252747,322
887.369446,336
887.486267,330
887.603027,322
887.719788,323
887.836548,343
887.953247,323
888.070068,330
888.186829,320
888.303528,320
888.420288,331
888.536987,334
888.653687,322
888.770447,331
888.887146,306
889.003967,327
889.120667,294
889.237305,329
889.354065,313
889.470703,323
889.587463,324
889.704163,315
889.820862,313
889.937561,320
890.054199,304
890.170837,321
890.287598,313
890.404236,322
890.520874,309
890.637634,332
890.754211,325
890.87085,322
890.987549,310
891.104187,324
891.220886,320
891.337463,330
891.454102,313
891.57074,317
891.687378,310
891.804077,309
891.920654,331
892.037231,309
892.15387,327
892.270447,327
892.387085,312
892.503723,329
892.6203,309
892.736877,336
892.853516,316
892.970032,320
893.08667,314
893.203186,310
893.319763,312
893.43634,326
893.552917,294
893.669556,324
893.786011,315
893.902588,327
894.019165,307
894.135681,309
894.252197,315
894.368835,324
894.485291,326
894.601868,327
894.718384,312
894.8349,328
894.951355,304
895.067932,328
895.184448,326
895.300964,317
895.417419,328
895.533936,323
895.650452,313
895.766907,312
895.883423,314
895.999878,322
896.116333,303
896.232849,315
896.349304,320
896.465759,319
896.582214,310
896.698669,321
896.815125,309
896.931641,323
897.048035,331
897.164551,314
897.280884,319
897.397339,333
897.513794,317
897.630249,318
897.746582,317
897.863098,328
897.979431,320
898.095886,320
898.212341,320
898.328674,316
898.445129,313
898.561462,313
898.677795,308
898.794312,313
898.910645,323
899.026978,326
899.143433,324
899.259766,317
899.37616,309
899.492493,327
899.608765,311
899.725159,323
899.841553,313
899.957947,308
900.07428,313
900.190552,338
900.306946,308
900.423157,320
900.53949,318
900.655884,318
900.772156,320
900.888489,325
901.004822,303
901.121033,322
901.237366,323
901.353699,319
901.46991,339
901.586304,318
901.702515,313
901.818787,337
901.93512,321
902.051331,320
902.167603,321
902.283875,329
902.400085,330
902.516418,330
902.632629,314
902.74884,325
902.865112,321
902.981384,328
903.097595,324
903.213867,345
903.330017,327
903.446289,327
903.5625,324
903.67865,324
903.794922,330
903.911072,322
904.027344,315
904.143494,324
904.259705,321
904.375916,326
904.492065,322
904.608215,317
904.724426,305
904.840576,323
904.956726,311
905.072876,312
905.189087,308
905.305176,342
905.421387,309
905.537537,324
905.653687,312
905.769775,328
905.885925,327
906.002014,316
906.118164,321
906.234314,317
906.350403,313
906.466492,312
906.582642,321
906.69873,324
906.814758,318
906.930908,317
907.046936,327
907.163086,322
907.279175,305
907.395264,335
907.511353,321
907.62738,315
907.743408,314
907.859497,314
907.975525,313
908.091553,336
908.207703,320
908.32373,309
908.439758,315
908.555786,314
908.671814,324
908.787842,319
908.90387,306
909.019775,336
909.135864,308
909.251892,320
909.367859,323
909.483826,309
909.599854,316
909.715881,323
909.831848,317
909.947815,318
910.063782,315
910.179749,319
910.295776,314
910.411743,325
910.527649,329
910.643616,312
910.759583,316
910.875488,314
910.991455,313
911.107361,317
911.223267,310
911.339294,319
911.4552,320
911.571106,307
911.687073,309
911.802979,319
911.918823,317
912.034729,312
912.150635,310
912.266602,319
912.382446,324
912.498352,328
912.614197,312
912.730103,322
912.846008,311
792.44574,364
792.56488,378
792.68396,463
792.80304,412
792.92218,369
793.041199,360
793.160339,333
793.279419,373
793.398499,367
793.517578,339
793.636658,360
793.755737,358
793.874817,362
793.993896,364
794.112976,344
794.232056,346
794.351074,333
794.470215,369
794.589233,340
794.708313,340
794.827393,354
794.946411,344
795.065552,352
795.18457,346
795.303589,348
795.422668,326
795.541687,355
795.660767,348
795.779846,333
795.898865,332
796.017883,342
796.136963,321
796.255981,342
796.375061,345
796.49408,339
796.613037,330
796.732117,340
796.851135,337
796.970154,337
797.089233,329
797.208191,332
797.327271,333
797.446228,348
797.565186,342
797.684265,346
797.803223,324
797.922241,332
798.04126,339
798.160278,333
798.279297,335
798.398315,327
798.517273,331
798.636292,330
798.75531,337
798.874268,331
798.993286,319
799.112244,334
799.231323,343
799.350281,335
799.469238,327
799.588257,330
799.707153,327
799.826111,339
799.945129,326
800.064087,334
800.183044,334
800.302063,337
800.421021,332
800.539978,338
800.658936,325
800.777893,332
800.896912,332
801.015747,327
801.134705,321
801.253723,316
801.37262,328
801.491638,336
801.610535,332
801.729492,332
801.84845,331
801.967407,316
802.086243,324
802.205261,333
802.324158,323
802.443115,325
802.562073,330
802.680969,330
802.799927,314
802.918762,314
803.037659,330
803.156677,320
803.275574,319
803.39447,341
803.513428,322
803.632263,325
803.751221,327
803.870117,337
803.989014,325
804.107971,331
804.226746,325
804.345642,323
804.4646,335
804.583496,337
804.702393,336
804.821228,334
804.940125,321
805.059021,325
805.177917,326
805.296814,342
805.415649,336
805.534546,326
805.653442,321
805.772278,327
805.891113,326
806.01001,320
806.128906,330
806.247742,314
806.366577,333
806.485413,320
806.604309,321
806.723145,320
806.84198,313
806.960876,328
807.079712,331
807.198486,315
807.317383,316
807.436218,326
807.554993,327
807.673889,329
807.792725,319
807.91156,324
808.030396,322
808.14917,322
808.268005,324
808.386841,327
808.505676,315
808.624451,344
808.743286,322
808.862122,321
808.980896,329
809.099731,315
809.218506,322
809.337341,306
809.456116,325
809.57489,328
809.693726,311
809.8125,318
809.931274,321
810.050049,326
810.168884,331
810.287659,328
810.406372,326
810.525269,329
810.643982,316
810.762756,329
810.881531,314
811.000305,319
811.11908,334
811.237854,332
811.356567,332
811.475403,324
811.594116,324
811.71283,320
811.831604,310
811.950378,319
812.069153,335
812.187927,319
812.30658,316
812.425415,322
812.544128,321
812.662781,334
812.781616,323
812.900269,323
813.019043,325
813.137756,327
813.256531,320
813.375244,327
813.493896,323
813.612671,319
813.731384,327
813.850037,323
813.96875,317
814.087524,335
814.206238,313
814.324951,324
814.443604,313
814.562256,318
814.68103,328
814.799683,317
814.918335,314
815.037109,327
815.155762,322
815.274475,327
815.393188,322
815.511841,318
815.630554,327
815.749146,317
815.867859,324
815.986572,305
816.105164,326
816.223877,315
816.342529,317
816.461182,326
816.579895,333
816.698486,334
816.817139,313
816.935791,320
817.054504,305
817.173096,325
817.291748,309
817.4104,323
817.529053,319
817.647644,329
817.766235,318
817.884949,317
818.00354,329
818.122192,318
818.240845,332
818.359436,314
818.478088,314
818.59668,330
818.715271,319
818.833923,335
818.952515,317
819.071106,305
819.189758,313
819.30835,323
819.426941,334
819.545532,335
819.664124,325
819.782715,326
819.901306,328
820.019897,341
820.138489,310
820.25708,315
820.375671,304
820.494202,318
820.612732,333
820.731384,325
820.849915,333
820.968506,314
821.087097,314
821.205627,318
821.324158,313
821.442749,335
821.561279,326
821.679871,314
821.798401,304
821.916931,325
822.035461,315
822.154053,323
822.272583,322
822.391174,328
822.509583,310
822.628174,320
822.746704,306
822.865234,322
822.983765,313
823.102295,320
823.220825,318
823.339294,320
823.457825,324
823.576355,328
823.694824,310
823.813354,317
823.931885,310
824.050354,322
824.168884,318
824.287354,321
824.405823,326
824.524353,332
824.642822,321
824.761353,307
824.879822,321
824.998291,313
825.116699,309
825.235291,318
825.353699,327
825.472168,324
825.590637,323
825.709106,318
825.827576,318
825.946045,332
826.064453,309
826.182983,334
826.301392,321
826.4198,319
826.53833,314
826.656738,311
826.775208,311
826.893677,328
827.012024,324
827.130493,324
827.248962,323
827.36731,319
827.485779,319
827.604248,316
827.722595,332
827.841064,325
827.959412,314
828.077942,323
828.196289,322
828.314636,324
828.433105,316
828.551514,299
828.669861,315
828.78833,328
828.906677,328
829.025085,326
829.143433,309
829.261841,321
829.38031,310
829.498657,330
829.617004,314
829.735413,311
829.85376,316
829.972107,315
830.090515,324
830.208862,311
830.327209,312
830.445557,337
830.563904,292
830.682312,326
830.800659,314
830.919006,331
831.037354,329
831.155701,317
831.274048,318
831.392395,325
831.51062,312
831.629028,318
831.747314,317
831.865662,324
831.984009,323
832.102356,317
832.220642,334
832.338928,317
832.457275,327
832.575623,319
832.693909,316
832.812134,322
832.930481,319
833.048828,317
833.167114,318
833.2854,315
833.403687,309
833.521973,317
833.640259,323
833.758545,321
833.876831,307
833.995056,318
834.113281,316
834.231628,336
834.349915,314
834.468201,323
834.586426,314
834.704651,311
834.822998,310
834.941162,313
835.059448,315
835.177673,323
835.295959,320
835.414246,328
835.53241,325
835.650635,321
835.768921,320
835.887146,316
836.005371,320
836.123596,327
836.241821,322
836.360046,330
836.478271,301
836.596497,318
836.714722,306
836.832886,320
836.95105,314
837.069336,317
837.1875,305
837.305725,323
837.423889,316
837.542053,316
837.660339,305
837.778503,321
837.896667,309
838.014832,316
838.132996,319
838.25116,328
838.369385,318
838.487488,311
838.605713,308
838.723877,323
838.84198,311
838.960205,334
839.078308,328
839.196472,327
839.314636,319
839.4328,328
839.550964,317
839.669067,312
839.787231,308
839.905396,306
840.023499,318
840.141602,323
840.259766,308
840.377869,319
840.495972,320
840.614136,322
840.732239,315
840.850342,321
840.968445,307
841.086548,324
841.204651,326
841.322754,313
841.440918,312
841.55896,327
841.677002,325
841.795166,334
841.913208,312
842.031311,331
842.149353,306
842.267456,332
842.385498,308
842.503601,323
842.621643,323
842.739746,322
842.857788,326
842.97583,318
843.093933,323
843.211975,324
843.330017,317
843.44812,314
843.566101,320
843.684204,325
843.802246,320
843.920227,313
844.038269,323
844.156311,327
844.274292,312
844.392395,322
844.510376,325
844.628357,320
844.74646,317
844.864441,310
844.982422,317
845.100403,310
845.218384,302
845.336426,337
845.454468,324
845.572449,314
845.69043,306
845.808411,307
845.926453,321
846.044373,321
846.162354,330
846.280396,322
846.398315,318
846.516296,306
846.634216,324
846.752197,311
846.870178,325
846.988098,327
847.106079,317
847.22406,330
847.34198,319
847.4599,319
847.577881,306
847.695801,326
847.813782,310
847.931641,338
848.049561,323
848.167603,320
848.285461,316
848.403381,329
848.521362,321
848.639221,332
848.75708,324
848.875,326
848.99292,311
849.110901,327
849.22876,313
849.34668,328
849.464539,321
849.582458,322
849.700317,331
849.818176,329
849.936096,327
850.053955,326
850.171875,317
850.289673,310
850.407593,306
850.525452,329
850.643311,323
850.761169,333
850.878967,330
850.996887,328
851.114746,329
851.232544,323
851.350403,327
851.468262,324
851.58606,312
851.703979,325
851.821777,318
851.939636,325
852.057434,315
852.175232,330
852.293091,332
852.410889,315
852.528687,323
852.646545,325
852.764343,321
852.88208,317
852.999939,326
853.117676,334
853.235535,301
853.353271,329
853.471069,324
853.588928,323
853.706604,317
853.824402,323
853.9422,315
854.059998,316
854.177734,321
854.295532,321
854.413269,326
854.531006,319
854.648804,332
854.766541,322
854.884277,320
855.002014,318
855.119751,311
855.237549,308
855.355225,322
855.473022,325
855.590698,306
855.708435,330
855.826172,309
855.943848,313
856.061646,311
856.179321,329
856.296997,314
856.414795,330
856.53241,314
856.650085,321
856.767822,326
856.885559,322
857.003174,317
857.120911,309
857.238586,326
857.356201,323
857.473938,323
857.591614,319
857.709351,314
857.826965,321
857.944641,322
858.062317,316
858.179993,326
858.297668,339
858.415283,307
858.532959,324
858.650574,306
858.768188,316
858.885803,317
859.003479,315
859.121094,326
859.23877,315
859.356384,317
859.473999,323
859.591675,321
859.709229,329
859.826843,305
859.944458,315
860.062012,295
860.179626,333
860.297302,317
860.414856,325
860.532471,306
860.650024,322
860.767639,319
860.885193,315
861.002808,311
861.120361,321
861.237976,316
861.35553,318
861.473022,314
861.590698,313
861.708191,315
861.825745,330
861.943298,315
862.060852,326
862.178406,321
862.295959,319
862.413513,319
862.531006,319
862.64856,315
862.766113,314
862.883667,307
863.00116,310
863.118713,319
863.236206,333
863.353699,312
863.471252,317
863.588745,312
863.706177,317
863.82373,303
863.941162,318
864.058716,314
864.176208,324
864.29364,314
864.411194,321
864.528687,311
864.646118,319
864.763611,318
864.881042,326
864.998535,318
865.116028,306
865.233459,341
865.350891,321
865.468384,313
865.585754,310
865.703308,314
865.820679,320
865.938171,310
866.055542,319
866.173035,314
866.290466,312
866.407837,322
866.52533,321
866.6427,322
866.760071,321
866.877563,315
866.994934,313
867.112305,299
867.229736,313
867.347107,324
867.464539,331
867.58197,331
867.699341,314
867.81665,321
867.934082,322
868.051453,324
868.168823,324
868.286194,320
868.403564,319
868.520935,324
868.638306,316
868.755676,314
868.872986,311
868.990295,322
869.107727,307
869.225037,315
869.342346,316
869.459717,305
869.577026,330
869.694336,311
869.811707,324
869.929016,311
870.046326,312
870.163635,320
870.280945,328
870.398254,316
870.515564,327
870.632812,325
870.750183,325
870.867432,313
870.984741,319
871.102051,325
871.219299,322
871.336609,330
871.453918,327
871.571106,336
871.688416,320
871.805664,315
871.922852,331
872.040222,321
872.157471,328
872.274719,318
872.391968,322
872.509155,321
872.626465,318
872.743652,326
872.860962,319
872.978149,332
873.095337,332
873.212646,310
873.329834,330
873.44696,311
873.564209,324
873.681396,313
873.798645,333
873.915894,318
874.03302,320
874.150208,312
874.267456,322
874.384583,316
874.501831,316
874.618958,309
874.736145,323
874.853333,331
874.970459,323
875.087646,323
875.204834,332
875.32196,319
875.439148,324
875.556274,328
875.673401,318
875.790527,316
875.907715,327
876.024841,335
876.141968,317
876.259094,311
876.376282,319
876.493347,318
876.610474,323
876.7276,311
876.844727,318
876.961853,313
877.078918,320
877.195984,318
877.313171,319
877.430237,316
877.547302,317
877.664368,305
877.781433,309
877.898499,323
878.015625,316
878.13269,323
878.249695,324
878.366821,319
878.483887,318
878.600952,330
878.717957,324
878.834961,311
878.952087,320
879.069092,313
879.186157,323
879.303162,316
879.420227,320
879.537231,314
879.654236,321
879.77124,315
879.888306,327
880.005249,323
880.122314,336
880.239319,311
880.356323,326
880.473328,312
880.590271,327
880.707275,322
880.824341,330
880.941284,316
881.058228,309
881.175232,320
881.292236,308
881.40918,327
881.526123,317
881.643066,326
881.760071,320
881.877014,325
881.993958,330
882.11084,309
882.227783,321
882.344727,304
882.46167,319
882.578613,309
882.695618,316
882.812439,323
882.929382,319
883.046326,312
883.163208,325
883.280151,314
883.397034,316
883.513916,315
883.630798,316
883.747742,308
883.864563,322
883.981506,321
884.098389,323
884.21521,309
884.332153,316
884.448975,318
884.565796,310
884.682678,325
884.7995,332
884.916443,328
885.033264,320
885.150085,321
885.266968,321
885.383789,331
885.500671,336
885.617493,319
885.734314,330
885.851196,312
885.967896,330
886.084717,323
886.201599,335
886.318359,310
886.435181,342
886.552002,312
886.668762,335
886.785645,329
886.902344,331
887.019165,328
887.135925,322
887.252747,328
887.369446,323
887.486267,326
887.603027,322
887.719788,320
887.836548,321
887.953247,336
888.070068,318
888.186829,315
888.303528,326
888.420288,318
888.536987,317
888.653687,308
888.770447,314
888.887146,311
889.003967,318
889.120667,313
889.237305,331
889.354065,321
889.470703,331
889.587463,311
889.704163,312
889.820862,316
889.937561,318
890.054199,318
890.170837,322
890.287598,312
890.404236,332
890.520874,311
890.637634,323
890.754211,330
890.87085,305
890.987549,307
891.104187,325
891.220886,311
891.337463,311
891.454102,322
891.57074,313
891.687378,312
891.804077,309
891.920654,307
892.037231,313
892.15387,321
892.270447,315
892.387085,303
892.503723,299
892.6203,309
892.736877,320
892.853516,326
892.970032,326
893.08667,312
893.203186,319
893.319763,328
893.43634,317
893.552917,312
893.669556,322
893.786011,315
893.902588,328
894.019165,324
894.135681,336
894.252197,314
894.368835,334
894.485291,320
894.601868,318
894.718384,329
894.8349,322
894.951355,308
895.067932,320
895.184448,301
895.300964,320
895.417419,314
895.533936,316
895.650452,314
895.766907,320
895.883423,322
895.999878,314
896.116333,312
896.232849,326
896.349304,313
896.465759,320
896.582214,314
896.698669,312
896.815125,314
896.931641,303
897.048035,314
897.164551,324
897.280884,318
897.397339,334
897.513794,319
897.630249,321
897.746582,319
897.863098,333
897.979431,301
898.095886,315
898.212341,306
898.328674,321
898.445129,301
898.561462,325
898.677795,316
898.794312,324
898.910645,307
899.026978,317
899.143433,318
899.259766,324
899.37616,325
899.492493,314
899.608765,319
899.725159,318
899.841553,303
899.957947,322
900.07428,322
900.190552,303
900.306946,314
900.423157,313
900.53949,302
900.655884,316
900.772156,315
900.888489,326
901.004822,304
901.121033,307
901.237366,300
901.353699,324
901.46991,323
901.586304,325
901.702515,312
901.818787,315
901.93512,308
902.051331,318
902.167603,314
902.283875,328
902.400085,319
902.516418,337
902.632629,331
902.74884,320
902.865112,330
902.981384,335
903.097595,317
903.213867,319
903.330017,308
903.446289,326
903.5625,323
903.67865,316
903.794922,314
903.911072,323
904.027344,327
904.143494,314
904.259705,327
904.375916,326
904.492065,315
904.608215,316
904.724426,313
904.840576,323
904.956726,317
905.072876,317
905.189087,306
905.305176,321
905.421387,308
905.537537,324
905.653687,303
905.769775,325
905.885925,316
906.002014,316
906.118164,315
906.234314,311
906.350403,319
906.466492,329
906.582642,322
906.69873,320
906.814758,319
906.930908,329
907.046936,307
907.163086,304
907.279175,315
907.395264,318
907.511353,312
907.62738,305
907.743408,314
907.859497,334
907.975525,296
908.091553,325
908.207703,314
908.32373,317
908.439758,307
908.555786,324
908.671814,310
908.787842,324
908.90387,303
909.019775,328
909.135864,315
909.251892,326
909.367859,321
909.483826,318
909.599854,326
909.715881,301
909.831848,317
909.947815,327
910.063782,297
910.179749,325
910.295776,310
910.411743,317
910.527649,322
910.643616,322
910.759583,316
910.875488,310
910.991455,304
911.107361,318
911.223267,314
911.339294,314
911.4552,321
911.571106,310
911.687073,321
911.802979,324
911.918823,322
912.034729,308
912.150635,317
912.266602,313
912.382446,306
912.498352,310
912.614197,306
912.730103,316
912.846008,328
