792.44574,333
792.56488,385
792.68396,411
792.80304,417
792.92218,371
793.041199,342
793.160339,350
793.279419,362
793.398499,340
793.517578,329
793.636658,348
793.755737,380
793.874817,371
793.993896,366
794.112976,345
794.232056,336
794.351074,348
794.470215,356
794.589233,360
794.708313,316
794.827393,336
794.946411,343
795.065552,368
795.18457,362
795.303589,345
795.422668,340
795.541687,335
795.660767,334
795.779846,337
795.898865,349
796.017883,326
796.136963,335
796.255981,345
796.375061,344
796.49408,344
796.613037,339
796.732117,341
796.851135,347
796.970154,337
797.089233,346
797.208191,332
797.327271,339
797.446228,326
797.565186,333
797.684265,338
797.803223,339
797.922241,327
798.04126,338
798.160278,334
798.279297,328
798.398315,348
798.517273,325
798.636292,339
798.75531,342
798.874268,325
798.993286,336
799.112244,325
799.231323,329
799.350281,336
799.469238,326
799.588257,329
799.707153,334
799.826111,338
799.945129,331
800.064087,324
800.183044,338
800.302063,313
800.421021,323
800.539978,354
800.658936,321
800.777893,337
800.896912,335
801.015747,324
801.134705,337
801.253723,330
801.37262,317
801.491638,329
801.610535,323
801.729492,330
801.84845,321
801.967407,333
802.086243,334
802.205261,337
802.324158,326
802.443115,336
802.562073,327
802.680969,321
802.799927,324
802.918762,317
803.037659,321
803.156677,311
803.275574,315
803.39447,327
803.513428,328
803.632263,333
803.751221,320
803.870117,319
803.989014,319
804.107971,343
804.226746,329
804.345642,326
804.4646,334
804.583496,323
804.702393,327
804.821228,319
804.940125,339
805.059021,328
805.177917,337
805.296814,324
805.415649,324
805.534546,321
805.653442,314
805.772278,325
805.891113,319
806.01001,336
806.128906,327
806.247742,329
806.366577,319
806.485413,331
806.604309,321
806.723145,322
806.84198,330
806.960876,320
807.079712,334
807.198486,323
807.317383,328
807.436218,317
807.554993,333
807.673889,325
807.792725,330
807.91156,321
808.030396,326
808.14917,338
808.268005,325
808.386841,335
808.505676,319
808.624451,320
808.743286,329
808.862122,334
808.980896,325
809.099731,311
809.218506,326
809.337341,321
809.456116,323
809.57489,336
809.693726,316
809.8125,310
809.931274,306
810.050049,332
810.168884,336
810.287659,306
810.406372,312
810.525269,318
810.643982,326
810.762756,328
810.881531,323
811.000305,321
811.11908,321
811.237854,334
811.356567,317
811.475403,314
811.594116,323
811.71283,326
811.831604,328
811.950378,324
812.069153,311
812.187927,320
812.30658,324
812.425415,336
812.544128,338
812.662781,310
812.781616,322
812.900269,326
813.019043,326
813.137756,337
813.256531,328
813.375244,329
813.493896,322
813.612671,313
813.731384,324
813.850037,320
813.96875,317
814.087524,319
814.206238,304
814.324951,314
814.443604,318
814.562256,319
814.68103,329
814.799683,332
814.918335,334
815.037109,312
815.155762,320
815.274475,323
815.393188,327
815.511841,327
815.630554,314
815.749146,325
815.867859,328
815.986572,319
816.105164,314
816.223877,331
816.342529,312
816.461182,307
816.579895,320
816.698486,329
816.817139,321
816.935791,313
817.054504,324
817.173096,313
817.291748,334
817.4104,322
817.529053,323
817.647644,330
817.766235,314
817.884949,325
818.00354,329
818.122192,329
818.240845,333
818.359436,321
818.478088,320
818.59668,321
818.715271,336
818.833923,311
818.952515,337
819.071106,315
819.189758,312
819.30835,319
819.426941,313
819.545532,311
819.664124,320
819.782715,315
819.901306,324
820.019897,321
820.138489,326
820.25708,323
820.375671,314
820.494202,319
820.612732,329
820.731384,326
820.849915,320
820.968506,331
821.087097,329
821.205627,318
821.324158,333
821.442749,322
821.561279,314
821.679871,310
821.798401,318
821.916931,329
822.035461,319
822.154053,321
822.272583,327
822.391174,321
822.509583,323
822.628174,289
822.746704,332
822.865234,337
822.983765,312
823.102295,318
823.220825,306
823.339294,333
823.457825,317
823.576355,322
823.694824,323
823.813354,311
823.931885,324
824.050354,330
824.168884,321
824.287354,316
824.405823,323
824.524353,318
824.642822,327
824.761353,326
824.879822,309
824.998291,327
825.116699,306
825.235291,319
825.353699,319
825.472168,327
825.590637,317
825.709106,312
825.827576,320
825.946045,320
826.064453,323
826.182983,319
826.301392,318
826.4198,327
826.53833,323
826.656738,330
826.775208,325
826.893677,311
827.012024,321
827.130493,310
827.248962,333
827.36731,321
827.485779,320
827.604248,306
827.722595,309
827.841064,316
827.959412,327
828.077942,311
828.196289,328
828.314636,319
828.433105,317
828.551514,326
828.669861,321
828.78833,306
828.906677,316
829.025085,320
829.143433,314
829.261841,310
829.38031,323
829.498657,314
829.617004,332
829.735413,315
829.85376,325
829.972107,304
830.090515,331
830.208862,326
830.327209,314
830.445557,313
830.563904,315
830.682312,305
830.800659,307
830.919006,313
831.037354,322
831.155701,325
831.274048,328
831.392395,314
831.51062,319
831.629028,325
831.747314,321
831.865662,311
831.984009,320
832.102356,310
832.220642,327
832.338928,307
832.457275,315
832.575623,329
832.693909,311
832.812134,316
832.930481,324
833.048828,311
833.167114,325
833.2854,321
833.403687,322
833.521973,328
833.640259,322
833.758545,302
833.876831,318
833.995056,313
834.113281,311
834.231628,305
834.349915,319
834.468201,320
834.586426,313
834.704651,310
834.822998,322
834.941162,318
835.059448,323
835.177673,306
835.295959,328
835.414246,321
835.53241,328
835.650635,314
835.768921,320
835.887146,314
836.005371,324
836.123596,331
836.241821,310
836.360046,328
836.478271,324
836.596497,315
836.714722,329
836.832886,304
836.95105,323
837.069336,319
837.1875,325
837.305725,318
837.423889,323
837.542053,313
837.660339,308
837.778503,321
837.896667,326
838.014832,314
838.132996,327
838.25116,319
838.369385,318
838.487488,310
838.605713,328
838.723877,322
838.84198,317
838.960205,329
839.078308,318
839.196472,325
839.314636,326
839.4328,308
839.550964,324
839.669067,322
839.787231,336
839.905396,328
840.023499,322
840.141602,308
840.259766,308
840.377869,322
840.495972,321
840.614136,303
840.732239,320
840.850342,307
840.968445,320
841.086548,318
841.204651,331
841.322754,312
841.440918,333
841.55896,323
841.677002,336
841.795166,311
841.913208,333
842.031311,329
842.149353,332
842.267456,310
842.385498,320
842.503601,323
842.621643,320
842.739746,319
842.857788,321
842.97583,307
843.093933,321
843.211975,308
843.330017,328
843.44812,312
843.566101,328
843.684204,311
843.802246,320
843.920227,316
844.038269,309
844.156311,320
844.274292,334
844.392395,322
844.510376,311
844.628357,318
844.74646,313
844.864441,320
844.982422,330
845.100403,314
845.218384,327
845.336426,317
845.454468,323
845.572449,314
845.69043,327
845.808411,314
845.926453,327
846.044373,318
846.162354,325
846.280396,319
846.398315,319
846.516296,318
846.634216,327
846.752197,330
846.870178,338
846.988098,307
847.106079,325
847.22406,328
847.34198,321
847.4599,322
847.577881,313
847.695801,312
847.813782,332
847.931641,315
848.049561,319
848.167603,321
848.285461,319
848.403381,323
848.521362,307
848.639221,319
848.75708,312
848.875,331
848.99292,330
849.110901,319
849.22876,327
849.34668,320
849.464539,327
849.582458,316
849.700317,315
849.818176,322
849.936096,323
850.053955,329
850.171875,318
850.289673,324
850.407593,305
850.525452,318
850.643311,330
850.761169,313
850.878967,320
850.996887,328
851.114746,329
851.232544,313
851.350403,325
851.468262,322
851.58606,318
851.703979,313
851.821777,333
851.939636,328
852.057434,317
852.175232,327
852.293091,330
852.410889,313
852.528687,334
852.646545,327
852.764343,318
852.88208,309
852.999939,319
853.117676,317
853.235535,320
853.353271,314
853.471069,326
853.588928,316
853.706604,317
853.824402,330
853.9422,321
854.059998,316
854.177734,324
854.295532,319
854.413269,317
854.531006,327
854.648804,316
854.766541,320
854.884277,327
855.002014,325
855.119751,319
855.237549,318
855.355225,319
855.473022,316
855.590698,328
855.708435,326
855.826172,320
855.943848,315
856.061646,317
856.179321,316
856.296997,336
856.414795,325
856.53241,313
856.650085,310
856.767822,332
856.885559,315
857.003174,309
857.120911,315
857.238586,327
857.356201,319
857.473938,333
857.591614,324
857.709351,333
857.826965,323
857.944641,331
858.062317,314
858.179993,326
858.297668,324
858.415283,324
858.532959,325
858.650574,327
858.768188,314
858.885803,317
859.003479,325
859.121094,327
859.23877,330
859.356384,317
859.473999,322
859.591675,327
859.709229,304
859.826843,321
859.944458,316
860.062012,315
860.179626,308
860.297302,319
860.414856,319
860.532471,314
860.650024,311
860.767639,317
860.885193,322
861.002808,320
861.120361,326
861.237976,325
861.35553,309
861.473022,323
861.590698,311
861.708191,303
861.825745,326
861.943298,311
862.060852,325
862.178406,318
862.295959,315
862.413513,323
862.531006,315
862.64856,323
862.766113,320
862.883667,325
863.00116,322
863.118713,327
863.236206,316
863.353699,330
863.471252,326
863.588745,319
863.706177,315
863.82373,310
863.941162,306
864.058716,312
864.176208,309
864.29364,319
864.411194,319
864.528687,316
864.646118,313
864.763611,314
864.881042,319
864.998535,328
865.116028,320
865.233459,314
865.350891,322
865.468384,315
865.585754,327
865.703308,325
865.820679,309
865.938171,318
866.055542,305
866.173035,317
866.290466,326
866.407837,320
866.52533,313
866.6427,313
866.760071,316
866.877563,312
866.994934,323
867.112305,326
867.229736,312
867.347107,328
867.464539,329
867.58197,328
867.699341,321
867.81665,332
867.934082,334
868.051453,321
868.168823,313
868.286194,317
868.403564,313
868.520935,331
868.638306,325
868.755676,328
868.872986,323
868.990295,313
869.107727,310
869.225037,324
869.342346,310
869.459717,326
869.577026,328
869.694336,320
869.811707,318
869.929016,334
870.046326,318
870.163635,320
870.280945,329
870.398254,325
870.515564,321
870.632812,321
870.750183,319
870.867432,323
870.984741,318
871.102051,330
871.219299,331
871.336609,322
871.453918,333
871.571106,334
871.688416,318
871.805664,323
871.922852,323
872.040222,320
872.157471,325
872.274719,319
872.391968,321
872.509155,325
872.626465,316
872.743652,325
872.860962,313
872.978149,326
873.095337,326
873.212646,325
873.329834,317
873.44696,313
873.564209,327
873.681396,334
873.798645,320
873.915894,325
874.03302,325
874.150208,313
874.267456,333
874.384583,321
874.501831,330
874.618958,318
874.736145,316
874.853333,319
874.970459,333
875.087646,326
875.204834,323
875.32196,337
875.439148,321
875.556274,315
875.673401,313
875.790527,322
875.907715,327
876.024841,325
876.141968,321
876.259094,317
876.376282,324
876.493347,325
876.610474,318
876.7276,318
876.844727,321
876.961853,311
877.078918,309
877.195984,320
877.313171,316
877.430237,333
877.547302,335
877.664368,321
877.781433,309
877.898499,320
878.015625,322
878.13269,317
878.249695,323
878.366821,322
878.483887,311
878.600952,325
878.717957,315
878.834961,318
878.952087,322
879.069092,313
879.186157,323
879.303162,319
879.420227,323
879.537231,313
879.654236,325
879.77124,297
879.888306,313
880.005249,329
880.122314,307
880.239319,331
880.356323,319
880.473328,312
880.590271,321
880.707275,317
880.824341,321
880.941284,319
881.058228,320
881.175232,314
881.292236,312
881.40918,306
881.526123,324
881.643066,326
881.760071,310
881.877014,320
881.993958,324
882.11084,322
882.227783,313
882.344727,313
882.46167,323
882.578613,325
882.695618,317
882.812439,323
882.929382,319
883.046326,324
883.163208,321
883.280151,321
883.397034,329
883.513916,323
883.630798,314
883.747742,316
883.864563,323
883.981506,324
884.098389,312
884.21521,320
884.332153,323
884.448975,311
884.565796,315
884.682678,325
884.7995,326
884.916443,306
885.033264,317
885.150085,334
885.266968,333
885.383789,330
885.500671,338
885.617493,338
885.734314,323
885.851196,337
885.967896,326
886.084717,339
886.201599,329
886.318359,336
886.435181,323
886.552002,324
886.668762,335
886.785645,320
886.902344,315
887.019165,334
887.135925,338
887.252747,329
887.369446,317
887.486267,320
887.603027,313
887.719788,331
887.836548,320
887.953247,312
888.070068,314
888.186829,329
888.303528,309
888.420288,328
888.536987,319
888.653687,312
888.770447,316
888.887146,316
889.003967,311
889.120667,325
889.237305,316
889.354065,324
889.470703,294
889.587463,316
889.704163,310
889.820862,313
889.937561,325
890.054199,312
890.170837,311
890.287598,323
890.404236,324
890.520874,316
890.637634,314
890.754211,325
890.87085,317
890.987549,329
891.104187,304
891.220886,327
891.337463,320
891.454102,324
891.57074,322
891.687378,312
891.804077,314
891.920654,326
892.037231,327
892.15387,330
892.270447,311
892.387085,309
892.503723,318
892.6203,323
892.736877,311
892.853516,314
892.970032,329
893.08667,331
893.203186,312
893.319763,331
893.43634,322
893.552917,313
893.669556,312
893.786011,327
893.902588,317
894.019165,318
894.135681,315
894.252197,316
894.368835,319
894.485291,322
894.601868,317
894.718384,336
894.8349,313
894.951355,324
895.067932,324
895.184448,324
895.300964,320
895.417419,312
895.533936,316
895.650452,315
895.766907,311
895.883423,323
895.999878,314
896.116333,317
896.232849,316
896.349304,303
896.465759,311
896.582214,314
896.698669,315
896.815125,326
896.931641,307
897.048035,320
897.164551,315
897.280884,321
897.397339,311
897.513794,346
897.630249,318
897.746582,334
897.863098,312
897.979431,326
898.095886,324
898.212341,309
898.328674,314
898.445129,324
898.561462,311
898.677795,326
898.794312,312
898.910645,320
899.026978,306
899.143433,331
899.259766,309
899.37616,333
899.492493,320
899.608765,310
899.725159,316
899.841553,323
899.957947,314
900.07428,317
900.190552,316
900.306946,324
900.423157,313
900.53949,325
900.655884,313
900.772156,324
900.888489,319
901.004822,313
901.121033,324
901.237366,314
901.353699,320
901.46991,310
901.586304,307
901.702515,313
901.818787,319
901.93512,329
902.051331,325
902.167603,316
902.283875,326
902.400085,332
902.516418,318
902.632629,326
902.74884,327
902.865112,333
902.981384,331
903.097595,330
903.213867,321
903.330017,328
903.446289,313
903.5625,323
903.67865,309
903.794922,329
903.911072,324
904.027344,316
904.143494,319
904.259705,311
904.375916,324
904.492065,327
904.608215,322
904.724426,320
904.840576,317
904.956726,316
905.072876,322
905.189087,308
905.305176,298
905.421387,310
905.537537,317
905.653687,327
905.769775,308
905.885925,329
906.002014,314
906.118164,318
906.234314,319
906.350403,326
906.466492,309
906.582642,317
906.69873,311
906.814758,329
906.930908,315
907.046936,306
907.163086,326
907.279175,330
907.395264,309
907.511353,317
907.62738,315
907.743408,325
907.859497,316
907.975525,319
908.091553,318
908.207703,318
908.32373,326
908.439758,307
908.555786,322
908.671814,320
908.787842,315
908.90387,327
909.019775,307
909.135864,312
909.251892,304
909.367859,332
909.483826,323
909.599854,311
909.715881,328
909.831848,322
909.947815,317
910.063782,322
910.179749,304
910.295776,329
910.411743,314
910.527649,325
910.643616,325
910.759583,322
910.875488,310
910.991455,308
911.107361,313
911.223267,314
911.339294,330
911.4552,322
911.571106,312
911.687073,314
911.802979,331
911.918823,324
912.034729,312
912.150635,316
912.266602,316
912.382446,318
912.498352,317
912.614197,322
912.730103,313
912.846008,319
792.44574,347
792.56488,390
792.68396,440
792.80304,426
792.92218,376
793.041199,344
793.160339,358
793.279419,358
793.398499,355
793.517578,355
793.636658,334
793.755737,349
793.874817,372
793.993896,381
794.112976,354
794.232056,337
794.351074,334
794.470215,346
794.589233,345
794.708313,346
794.827393,340
794.946411,335
795.065552,357
795.18457,338
795.303589,345
795.422668,345
795.541687,361
795.660767,334
795.779846,360
795.898865,334
796.017883,338
796.136963,336
796.255981,346
796.375061,322
796.49408,342
796.613037,340
796.732117,353
796.851135,327
796.970154,327
797.089233,323
797.208191,334
797.327271,337
797.446228,335
797.565186,330
797.684265,328
797.803223,330
797.922241,346
798.04126,335
798.160278,327
798.279297,340
798.398315,324
798.517273,331
798.636292,340
798.75531,335
798.874268,352
798.993286,331
799.112244,359
799.231323,317
799.350281,340
799.469238,334
799.588257,330
799.707153,332
799.826111,332
799.945129,331
800.064087,326
800.183044,313
800.302063,323
800.421021,327
800.539978,341
800.658936,328
800.777893,338
800.896912,327
801.015747,331
801.134705,329
801.253723,333
801.37262,330
801.491638,321
801.610535,330
801.729492,327
801.84845,319
801.967407,331
802.086243,329
802.205261,343
802.324158,317
802.443115,316
802.562073,331
802.680969,321
802.799927,323
802.918762,326
803.037659,327
803.156677,319
803.275574,329
803.39447,309
803.513428,323
803.632263,331
803.751221,332
803.870117,319
803.989014,325
804.107971,326
804.226746,320
804.345642,332
804.4646,312
804.583496,338
804.702393,339
804.821228,330
804.940125,320
805.059021,329
805.177917,330
805.296814,321
805.415649,324
805.534546,338
805.653442,327
805.772278,321
805.891113,324
806.01001,320
806.128906,324
806.247742,332
806.366577,319
806.485413,334
806.604309,329
806.723145,315
806.84198,326
806.960876,337
807.079712,313
807.198486,323
807.317383,318
807.436218,320
807.554993,323
807.673889,323
807.792725,328
807.91156,321
808.030396,317
808.14917,342
808.268005,329
808.386841,324
808.505676,315
808.624451,337
808.743286,322
808.862122,326
808.980896,319
809.099731,325
809.218506,336
809.337341,334
809.456116,317
809.57489,324
809.693726,310
809.8125,317
809.931274,328
810.050049,339
810.168884,304
810.287659,330
810.406372,321
810.525269,332
810.643982,322
810.762756,329
810.881531,324
811.000305,321
811.11908,323
811.237854,314
811.356567,318
811.475403,322
811.594116,333
811.71283,338
811.831604,323
811.950378,311
812.069153,325
812.187927,333
812.30658,314
812.425415,336
812.544128,319
812.662781,308
812.781616,332
812.900269,335
813.019043,329
813.137756,324
813.256531,309
813.375244,325
813.493896,316
813.612671,330
813.731384,326
813.850037,335
813.96875,321
814.087524,315
814.206238,321
814.324951,327
814.443604,326
814.562256,327
814.68103,316
814.799683,338
814.918335,310
815.037109,338
815.155762,313
815.274475,332
815.393188,336
815.511841,325
815.630554,318
815.749146,317
815.867859,335
815.986572,339
816.105164,310
816.223877,312
816.342529,326
816.461182,327
816.579895,324
816.698486,335
816.817139,323
816.935791,342
817.054504,331
817.173096,331
817.291748,322
817.4104,332
817.529053,327
817.647644,325
817.766235,317
817.884949,321
818.00354,316
818.122192,330
818.240845,318
818.359436,327
818.478088,333
818.59668,319
818.715271,320
818.833923,323
818.952515,323
819.071106,316
819.189758,315
819.30835,321
819.426941,315
819.545532,341
819.664124,326
819.782715,316
819.901306,330
820.019897,327
820.138489,327
820.25708,325
820.375671,313
820.494202,326
820.612732,311
820.731384,318
820.849915,312
820.968506,331
821.087097,313
821.205627,321
821.324158,302
821.442749,328
821.561279,320
821.679871,318
821.798401,323
821.916931,313
822.035461,317
822.154053,323
822.272583,313
822.391174,337
822.509583,317
822.628174,321
822.746704,311
822.865234,330
822.983765,301
823.102295,311
823.220825,315
823.339294,312
823.457825,328
823.576355,311
823.694824,315
823.813354,330
823.931885,318
824.050354,327
824.168884,329
824.287354,326
824.405823,318
824.524353,306
824.642822,318
824.761353,327
824.879822,327
824.998291,329
825.116699,326
825.235291,311
825.353699,330
825.472168,328
825.590637,309
825.709106,330
825.827576,316
825.946045,327
826.064453,321
826.182983,324
826.301392,319
826.4198,335
826.53833,313
826.656738,334
826.775208,299
826.893677,324
827.012024,314
827.130493,314
827.248962,314
827.36731,337
827.485779,318
827.604248,318
827.722595,314
827.841064,325
827.959412,315
828.077942,327
828.196289,330
828.314636,311
828.433105,312
828.551514,327
828.669861,314
828.78833,323
828.906677,316
829.025085,334
829.143433,308
829.261841,327
829.38031,302
829.498657,334
829.617004,320
829.735413,315
829.85376,324
829.972107,324
830.090515,318
830.208862,323
830.327209,314
830.445557,322
830.563904,320
830.682312,323
830.800659,315
830.919006,306
831.037354,317
831.155701,327
831.274048,332
831.392395,329
831.51062,325
831.629028,321
831.747314,318
831.865662,326
831.984009,327
832.102356,319
832.220642,321
832.338928,320
832.457275,302
832.575623,323
832.693909,296
832.812134,326
832.930481,311
833.048828,320
833.167114,330
833.2854,324
833.403687,313
833.521973,336
833.640259,321
833.758545,335
833.876831,324
833.995056,321
834.113281,310
834.231628,337
834.349915,317
834.468201,303
834.586426,329
834.704651,317
834.822998,318
834.941162,323
835.059448,318
835.177673,310
835.295959,325
835.414246,329
835.53241,323
835.650635,321
835.768921,326
835.887146,326
836.005371,314
836.123596,333
836.241821,319
836.360046,326
836.478271,319
836.596497,318
836.714722,320
836.832886,313
836.95105,321
837.069336,325
837.1875,308
837.305725,325
837.423889,298
837.542053,307
837.660339,314
837.778503,311
837.896667,308
838.014832,307
838.132996,327
838.25116,330
838.369385,325
838.487488,324
838.605713,317
838.723877,319
838.84198,319
838.960205,329
839.078308,327
839.196472,316
839.314636,309
839.4328,323
839.550964,313
839.669067,311
839.787231,311
839.905396,316
840.023499,317
840.141602,320
840.259766,321
840.377869,331
840.495972,324
840.614136,318
840.732239,317
840.850342,326
840.968445,319
841.086548,322
841.204651,313
841.322754,337
841.440918,309
841.55896,325
841.677002,315
841.795166,338
841.913208,324
842.031311,339
842.149353,327
842.267456,316
842.385498,314
842.503601,316
842.621643,327
842.739746,313
842.857788,318
842.97583,322
843.093933,315
843.211975,324
843.330017,320
843.44812,328
843.566101,322
843.684204,314
843.802246,335
843.920227,319
844.038269,318
844.156311,318
844.274292,333
844.392395,319
844.510376,323
844.628357,317
844.74646,314
844.864441,329
844.982422,317
845.100403,326
845.218384,322
845.336426,320
845.454468,327
845.572449,315
845.69043,300
845.808411,322
845.926453,322
846.044373,326
846.162354,319
846.280396,312
846.398315,323
846.516296,320
846.634216,328
846.752197,320
846.870178,330
846.988098,328
847.106079,310
847.22406,319
847.34198,308
847.4599,322
847.577881,322
847.695801,331
847.813782,315
847.931641,319
848.049561,308
848.167603,319
848.285461,320
848.403381,324
848.521362,328
848.639221,336
848.75708,320
848.875,319
848.99292,311
849.110901,314
849.22876,307
849.34668,334
849.464539,331
849.582458,330
849.700317,304
849.818176,329
849.936096,315
850.053955,334
850.171875,332
850.289673,317
850.407593,309
850.525452,317
850.643311,308
850.761169,315
850.878967,319
850.996887,323
851.114746,320
851.232544,331
851.350403,312
851.468262,327
851.58606,318
851.703979,331
851.821777,314
851.939636,332
852.057434,304
852.175232,335
852.293091,315
852.410889,330
852.528687,318
852.646545,322
852.764343,327
852.88208,326
852.999939,328
853.117676,320
853.235535,331
853.353271,314
853.471069,328
853.588928,311
853.706604,321
853.824402,317
853.9422,318
854.059998,331
854.177734,327
854.295532,323
854.413269,303
854.531006,333
854.648804,322
854.766541,326
854.884277,318
855.002014,322
855.119751,317
855.237549,330
855.355225,324
855.473022,316
855.590698,322
855.708435,308
855.826172,317
855.943848,329
856.061646,317
856.179321,323
856.296997,308
856.414795,337
856.53241,319
856.650085,322
856.767822,327
856.885559,333
857.003174,324
857.120911,342
857.238586,333
857.356201,329
857.473938,321
857.591614,326
857.709351,321
857.826965,339
857.944641,312
858.062317,329
858.179993,321
858.297668,317
858.415283,311
858.532959,317
858.650574,310
858.768188,320
858.885803,308
859.003479,322
859.121094,329
859.23877,317
859.356384,320
859.473999,337
859.591675,320
859.709229,320
859.826843,317
859.944458,312
860.062012,317
860.179626,323
860.297302,322
860.414856,316
860.532471,312
860.650024,319
860.767639,314
860.885193,307
861.002808,329
861.120361,329
861.237976,320
861.35553,317
861.473022,320
861.590698,335
861.708191,322
861.825745,316
861.943298,326
862.060852,317
862.178406,317
862.295959,318
862.413513,328
862.531006,325
862.64856,327
862.766113,325
862.883667,319
863.00116,334
863.118713,322
863.236206,328
863.353699,320
863.471252,318
863.588745,319
863.706177,330
863.82373,316
863.941162,311
864.058716,315
864.176208,324
864.29364,306
864.411194,330
864.528687,324
864.646118,325
864.763611,320
864.881042,324
864.998535,319
865.116028,329
865.233459,306
865.350891,320
865.468384,315
865.585754,329
865.703308,323
865.820679,325
865.938171,317
866.055542,317
866.173035,316
866.290466,324
866.407837,325
866.52533,313
866.6427,322
866.760071,310
866.877563,313
866.994934,318
867.112305,313
867.229736,328
867.347107,316
867.464539,315
867.58197,316
867.699341,311
867.81665,319
867.934082,321
868.051453,320
868.168823,324
868.286194,320
868.403564,330
868.520935,321
868.638306,314
868.755676,317
868.872986,319
868.990295,337
869.107727,310
869.225037,313
869.342346,328
869.459717,309
869.577026,326
869.694336,322
869.811707,318
869.929016,306
870.046326,337
870.163635,323
870.280945,323
870.398254,324
870.515564,327
870.632812,323
870.750183,327
870.867432,325
870.984741,329
871.102051,334
871.219299,325
871.336609,330
871.453918,326
871.571106,332
871.688416,320
871.805664,326
871.922852,329
872.040222,337
872.157471,320
872.274719,323
872.391968,330
872.509155,325
872.626465,316
872.743652,317
872.860962,316
872.978149,324
873.095337,330
873.212646,321
873.329834,338
873.44696,325
873.564209,331
873.681396,314
873.798645,322
873.915894,320
874.03302,325
874.150208,314
874.267456,324
874.384583,320
874.501831,324
874.618958,325
874.736145,316
874.853333,315
874.970459,318
875.087646,309
875.204834,329
875.32196,317
875.439148,322
875.556274,319
875.673401,331
875.790527,313
875.907715,333
876.024841,317
876.141968,332
876.259094,317
876.376282,329
876.493347,318
876.610474,337
876.7276,315
876.844727,330
876.961853,314
877.078918,315
877.195984,322
877.313171,330
877.430237,327
877.547302,316
877.664368,321
877.781433,327
877.898499,324
878.015625,325
878.13269,306
878.249695,328
878.366821,313
878.483887,333
878.600952,314
878.717957,318
878.834961,314
878.952087,311
879.069092,326
879.186157,323
879.303162,327
879.420227,324
879.537231,322
879.654236,316
879.77124,327
879.888306,317
880.005249,324
880.122314,341
880.239319,307
880.356323,318
880.473328,313
880.590271,310
880.707275,322
880.824341,319
880.941284,321
881.058228,314
881.175232,325
881.292236,318
881.40918,311
881.526123,316
881.643066,320
881.760071,322
881.877014,320
881.993958,326
882.11084,318
882.227783,322
882.344727,310
882.46167,322
882.578613,319
882.695618,320
882.812439,315
882.929382,317
883.046326,319
883.163208,325
883.280151,298
883.397034,312
883.513916,327
883.630798,325
883.747742,305
883.864563,315
883.981506,307
884.098389,318
884.21521,328
884.332153,327
884.448975,315
884.565796,327
884.682678,335
884.7995,339
884.916443,309
885.033264,331
885.150085,323
885.266968,326
885.383789,314
885.500671,318
885.617493,334
885.734314,340
885.851196,324
885.967896,329
886.084717,328
886.201599,325
886.318359,338
886.435181,323
886.552002,323
886.668762,336
886.785645,314
886.902344,332
887.019165,318
887.135925,329
887.252747,305
887.369446,328
887.486267,335
887.603027,329
887.719788,320
887.836548,337
887.953247,335
888.070068,332
888.186829,327
888.303528,326
888.420288,319
888.536987,329
888.653687,319
888.770447,317
888.887146,330
889.003967,310
889.120667,316
889.237305,328
889.354065,311
889.470703,329
889.587463,320
889.704163,307
889.820862,318
889.937561,311
890.054199,314
890.170837,325
890.287598,309
890.404236,321
890.520874,320
890.637634,313
890.754211,325
890.87085,318
890.987549,320
891.104187,316
891.220886,321
891.337463,312
891.454102,314
891.57074,321
891.687378,317
891.804077,322
891.920654,314
892.037231,328
892.15387,304
892.270447,316
892.387085,303
892.503723,322
892.6203,310
892.736877,322
892.853516,305
892.970032,339
893.08667,315
893.203186,305
893.319763,309
893.43634,323
893.552917,316
893.669556,317
893.786011,326
893.902588,307
894.019165,313
894.135681,307
894.252197,316
894.368835,307
894.485291,327
894.601868,327
894.718384,311
894.8349,317
894.951355,313
895.067932,324
895.184448,316
895.300964,324
895.417419,318
895.533936,320
895.650452,318
895.766907,319
895.883423,323
895.999878,321
896.116333,308
896.232849,330
896.349304,310
896.465759,310
896.582214,318
896.698669,321
896.815125,311
896.931641,323
897.048035,321
897.164551,340
897.280884,315
897.397339,325
897.513794,318
897.630249,329
897.746582,306
897.863098,319
897.979431,309
898.095886,325
898.212341,309
898.328674,318
898.445129,311
898.561462,311
898.677795,307
898.794312,319
898.910645,318
899.026978,327
899.143433,311
899.259766,313
899.37616,310
899.492493,331
899.608765,314
899.725159,327
899.841553,322
899.957947,335
900.07428,308
900.190552,323
900.306946,312
900.423157,330
900.53949,314
900.655884,329
900.772156,312
900.888489,326
901.004822,301
901.121033,322
901.237366,319
901.353699,324
901.46991,314
901.586304,321
901.702515,314
901.818787,328
901.93512,315
902.051331,331
902.167603,319
902.283875,343
902.400085,304
902.516418,313
902.632629,315
902.74884,335
902.865112,317
902.981384,320
903.097595,310
903.213867,325
903.330017,313
903.446289,330
903.5625,319
903.67865,336
903.794922,327
903.911072,326
904.027344,329
904.143494,324
904.259705,306
904.375916,320
904.492065,300
904.608215,320
904.724426,322
904.840576,326
904.956726,312
905.072876,313
905.189087,313
905.305176,327
905.421387,314
905.537537,335
905.653687,316
905.769775,318
905.885925,315
906.002014,318
906.118164,317
906.234314,326
906.350403,314
906.466492,325
906.582642,320
906.69873,334
906.814758,324
906.930908,315
907.046936,314
907.163086,321
907.279175,332
907.395264,328
907.511353,302
907.62738,314
907.743408,310
907.859497,311
907.975525,326
908.091553,329
908.207703,320
908.32373,325
908.439758,327
908.555786,312
908.671814,313
908.787842,326
908.90387,326
909.019775,323
909.135864,304
909.251892,308
909.367859,305
909.483826,321
909.599854,322
909.715881,315
909.831848,318
909.947815,320
910.063782,311
910.179749,314
910.295776,300
910.411743,324
910.527649,302
910.643616,322
910.759583,315
910.875488,321
910.991455,319
911.107361,311
911.223267,301
911.339294,330
911.4552,304
911.571106,318
911.687073,315
911.802979,311
911.918823,321
912.034729,317
912.150635,309
912.266602,334
912.382446,320
912.498352,318
912.614197,319
912.730103,324
912.846008,311
792.44574,337
792.56488,381
792.68396,428
792.80304,409
792.92218,368
793.041199,329
793.160339,355
793.279419,366
793.398499,363
793.517578,350
793.636658,343
793.755737,356
793.874817,370
793.993896,364
794.112976,352
794.232056,342
794.351074,351
794.470215,337
794.589233,351
794.708313,332
794.827393,334
794.946411,347
795.065552,359
795.18457,339
795.303589,351
795.422668,329
795.541687,351
795.660767,353
795.779846,339
795.898865,330
796.017883,336
796.136963,334
796.255981,335
796.375061,335
796.49408,321
796.613037,341
796.732117,326
796.851135,340
796.970154,334
797.089233,343
797.208191,329
797.327271,331
797.446228,331
797.565186,339
797.684265,326
797.803223,332
797.922241,325
798.04126,336
798.160278,360
798.279297,334
798.398315,323
798.517273,330
798.636292,336
798.75531,333
798.874268,342
798.993286,327
799.112244,328
799.231323,335
799.350281,338
799.469238,330
799.588257,331
799.707153,320
799.826111,342
799.945129,333
800.064087,330
800.183044,327
800.302063,318
800.421021,317
800.539978,345
800.658936,323
800.777893,336
800.896912,335
801.015747,337
801.134705,330
801.253723,326
801.37262,326
801.491638,328
801.610535,323
801.729492,328
801.84845,320
801.967407,340
802.086243,311
802.205261,320
802.324158,321
802.443115,348
802.562073,325
802.680969,330
802.799927,320
802.918762,328
803.037659,322
803.156677,329
803.275574,310
803.39447,332
803.513428,321
803.632263,323
803.751221,310
803.870117,320
803.989014,326
804.107971,337
804.226746,320
804.345642,332
804.4646,317
804.583496,330
804.702393,331
804.821228,328
804.940125,324
805.059021,327
805.177917,312
805.296814,333
805.415649,326
805.534546,343
805.653442,308
805.772278,330
805.891113,338
806.01001,333
806.128906,332
806.247742,340
806.366577,324
806.485413,315
806.604309,318
806.723145,332
806.84198,324
806.960876,322
807.079712,326
807.198486,328
807.317383,312
807.436218,328
807.554993,317
807.673889,332
807.792725,330
807.91156,324
808.030396,320
808.14917,313
808.268005,313
808.386841,322
808.505676,312
808.624451,330
808.743286,319
808.862122,333
808.980896,322
809.099731,333
809.218506,308
809.337341,321
809.456116,321
809.57489,321
809.693726,321
809.8125,322
809.931274,325
810.050049,319
810.168884,326
810.287659,321
810.406372,331
810.525269,325
810.643982,322
810.762756,332
810.881531,320
811.000305,319
811.11908,326
811.237854,322
811.356567,328
811.475403,331
811.594116,319
811.71283,329
811.831604,323
811.950378,320
812.069153,317
812.187927,330
812.30658,316
812.425415,334
812.544128,317
812.662781,312
812.781616,327
812.900269,324
813.019043,335
813.137756,310
813.256531,333
813.375244,331
813.493896,324
813.612671,327
813.731384,332
813.850037,324
813.96875,317
814.087524,315
814.206238,323
814.324951,332
814.443604,319
814.562256,324
814.68103,310
814.799683,323
814.918335,330
815.037109,331
815.155762,319
815.274475,325
815.393188,318
815.511841,323
815.630554,320
815.749146,325
815.867859,325
815.986572,326
816.105164,323
816.223877,322
816.342529,328
816.461182,328
816.579895,336
816.698486,318
816.817139,321
816.935791,323
817.054504,324
817.173096,331
817.291748,318
817.4104,320
817.529053,323
817.647644,327
817.766235,323
817.884949,332
818.00354,320
818.122192,310
818.240845,312
818.359436,338
818.478088,316
818.59668,321
818.715271,327
818.833923,324
818.952515,324
819.071106,310
819.189758,322
819.30835,325
819.426941,322
819.545532,327
819.664124,320
819.782715,304
819.901306,313
820.019897,324
820.138489,313
820.25708,318
820.375671,313
820.494202,302
820.612732,307
820.731384,325
820.849915,320
820.968506,312
821.087097,317
821.205627,320
821.324158,312
821.442749,322
821.561279,315
821.679871,326
821.798401,326
821.916931,324
822.035461,322
822.154053,310
822.272583,312
822.391174,320
822.509583,322
822.628174,310
822.746704,311
822.865234,320
822.983765,334
823.102295,311
823.220825,309
823.339294,325
823.457825,315
823.576355,322
823.694824,310
823.813354,329
823.931885,295
824.050354,331
824.168884,313
824.287354,330
824.405823,320
824.524353,307
824.642822,321
824.761353,339
824.879822,325
824.998291,322
825.116699,321
825.235291,318
825.353699,324
825.472168,326
825.590637,312
825.709106,320
825.827576,323
825.946045,312
826.064453,317
826.182983,323
826.301392,321
826.4198,323
826.53833,321
826.656738,319
826.775208,320
826.893677,310
827.012024,310
827.130493,325
827.248962,318
827.36731,325
827.485779,309
827.604248,307
827.722595,317
827.841064,313
827.959412,331
828.077942,319
828.196289,290
828.314636,326
828.433105,312
828.551514,318
828.669861,312
828.78833,313
828.906677,314
829.025085,330
829.143433,323
829.261841,314
829.38031,327
829.498657,326
829.617004,311
829.735413,317
829.85376,316
829.972107,328
830.090515,313
830.208862,313
830.327209,323
830.445557,322
830.563904,314
830.682312,318
830.800659,332
830.919006,325
831.037354,323
831.155701,322
831.274048,331
831.392395,322
831.51062,323
831.629028,334
831.747314,306
831.865662,334
831.984009,310
832.102356,311
832.220642,321
832.338928,322
832.457275,302
832.575623,317
832.693909,306
832.812134,307
832.930481,305
833.048828,332
833.167114,313
833.2854,321
833.403687,318
833.521973,321
833.640259,312
833.758545,324
833.876831,309
833.995056,333
834.113281,324
834.231628,334
834.349915,314
834.468201,317
834.586426,322
834.704651,321
834.822998,314
834.941162,320
835.059448,326
835.177673,317
835.295959,327
835.414246,328
835.53241,331
835.650635,328
835.768921,311
835.887146,321
836.005371,319
836.123596,307
836.241821,328
836.360046,322
836.478271,309
836.596497,335
836.714722,314
836.832886,315
836.95105,306
837.069336,319
837.1875,320
837.305725,321
837.423889,324
837.542053,317
837.660339,319
837.778503,320
837.896667,321
838.014832,312
838.132996,328
838.25116,320
838.369385,314
838.487488,312
838.605713,324
838.723877,327
838.84198,323
838.960205,323
839.078308,312
839.196472,323
839.314636,314
839.4328,328
839.550964,310
839.669067,320
839.787231,308
839.905396,324
840.023499,317
840.141602,310
840.259766,319
840.377869,334
840.495972,313
840.614136,324
840.732239,320
840.850342,322
840.968445,303
841.086548,317
841.204651,320
841.322754,328
841.440918,321
841.55896,320
841.677002,315
841.795166,327
841.913208,321
842.031311,325
842.149353,319
842.267456,321
842.385498,322
842.503601,321
842.621643,323
842.739746,332
842.857788,313
842.97583,335
843.093933,312
843.211975,318
843.330017,332
843.44812,324
843.566101,317
843.684204,321
843.802246,310
843.920227,314
844.038269,307
844.156311,322
844.274292,305
844.392395,325
844.510376,312
844.628357,330
844.74646,322
844.864441,322
844.982422,331
845.100403,317
845.218384,316
845.336426,323
845.454468,314
845.572449,334
845.69043,319
845.808411,313
845.926453,324
846.044373,323
846.162354,329
846.280396,340
846.398315,315
846.516296,311
846.634216,329
846.752197,329
846.870178,316
846.988098,316
847.106079,319
847.22406,316
847.34198,324
847.4599,329
847.577881,327
847.695801,327
847.813782,321
847.931641,318
848.049561,317
848.167603,321
848.285461,319
848.403381,315
848.521362,323
848.639221,325
848.75708,319
848.875,318
848.99292,319
849.110901,326
849.22876,309
849.34668,318
849.464539,321
849.582458,321
849.700317,319
849.818176,326
849.936096,317
850.053955,325
850.171875,313
850.289673,317
850.407593,320
850.525452,317
850.643311,300
850.761169,314
850.878967,330
850.996887,314
851.114746,324
851.232544,312
851.350403,318
851.468262,341
851.58606,323
851.703979,325
851.821777,318
851.939636,319
852.057434,323
852.175232,312
852.293091,317
852.410889,329
852.528687,321
852.646545,329
852.764343,316
852.88208,316
852.999939,324
853.117676,314
853.235535,330
853.353271,320
853.471069,316
853.588928,314
853.706604,322
853.824402,308
853.9422,311
854.059998,323
854.177734,317
854.295532,325
854.413269,309
854.531006,315
854.648804,311
854.766541,319
854.884277,315
855.002014,326
855.119751,319
855.237549,319
855.355225,317
855.473022,310
855.590698,335
855.708435,328
855.826172,327
855.943848,330
856.061646,309
856.179321,316
856.296997,316
856.414795,303
856.53241,323
856.650085,335
856.767822,331
856.885559,327
857.003174,307
857.120911,329
857.238586,317
857.356201,319
857.473938,317
857.591614,320
857.709351,316
857.826965,323
857.944641,327
858.062317,340
858.179993,311
858.297668,331
858.415283,329
858.532959,318
858.650574,310
858.768188,333
858.885803,323
859.003479,314
859.121094,307
859.23877,323
859.356384,313
859.473999,320
859.591675,325
859.709229,321
859.826843,319
859.944458,323
860.062012,311
860.179626,330
860.297302,307
860.414856,333
860.532471,313
860.650024,327
860.767639,308
860.885193,326
861.002808,323
861.120361,327
861.237976,301
861.35553,323
861.473022,303
861.590698,322
861.708191,308
861.825745,329
861.943298,325
862.060852,318
862.178406,329
862.295959,321
862.413513,328
862.531006,317
862.64856,321
862.766113,319
862.883667,314
863.00116,327
863.118713,316
863.236206,328
863.353699,325
863.471252,322
863.588745,320
863.706177,326
863.82373,325
863.941162,323
864.058716,318
864.176208,323
864.29364,308
864.411194,312
864.528687,323
864.646118,324
864.763611,311
864.881042,321
864.998535,317
865.116028,320
865.233459,315
865.350891,325
865.468384,323
865.585754,312
865.703308,311
865.820679,326
865.938171,309
866.055542,309
866.173035,327
866.290466,333
866.407837,314
866.52533,318
866.6427,318
866.760071,325
866.877563,312
866.994934,332
867.112305,321
867.229736,330
867.347107,298
867.464539,311
867.58197,305
867.699341,316
867.81665,300
867.934082,311
868.051453,313
868.168823,320
868.286194,302
868.403564,329
868.520935,324
868.638306,327
868.755676,322
868.872986,317
868.990295,303
869.107727,332
869.225037,315
869.342346,306
869.459717,327
869.577026,310
869.694336,318
869.811707,322
869.929016,311
870.046326,323
870.163635,323
870.280945,316
870.398254,314
870.515564,326
870.632812,326
870.750183,327
870.867432,329
870.984741,329
871.102051,322
871.219299,339
871.336609,307
871.453918,320
871.571106,329
871.688416,329
871.805664,333
871.922852,319
872.040222,321
872.157471,322
872.274719,336
872.391968,311
872.509155,317
872.626465,330
872.743652,319
872.860962,304
872.978149,320
873.095337,337
873.212646,314
873.329834,306
873.44696,318
873.564209,327
873.681396,312
873.798645,335
873.915894,315
874.03302,334
874.150208,324
874.267456,308
874.384583,325
874.501831,331
874.618958,320
874.736145,338
874.853333,317
874.970459,327
875.087646,326
875.204834,311
875.32196,314
875.439148,326
875.556274,314
875.673401,320
875.790527,315
875.907715,324
876.024841,311
876.141968,320
876.259094,329
876.376282,321
876.493347,326
876.610474,327
876.7276,305
876.844727,313
876.961853,322
877.078918,329
877.195984,320
877.313171,314
877.430237,319
877.547302,318
877.664368,318
877.781433,316
877.898499,300
878.015625,328
878.13269,304
878.249695,326
878.366821,311
878.483887,325
878.600952,330
878.717957,320
878.834961,325
878.952087,330
879.069092,320
879.186157,325
879.303162,315
879.420227,330
879.537231,317
879.654236,328
879.77124,326
879.888306,321
880.005249,315
880.122314,322
880.239319,323
880.356323,320
880.473328,319
880.590271,322
880.707275,317
880.824341,331
880.941284,319
881.058228,311
881.175232,319
881.292236,310
881.40918,325
881.526123,327
881.643066,310
881.760071,312
881.877014,319
881.993958,326
882.11084,309
882.227783,311
882.344727,302
882.46167,324
882.578613,305
882.695618,316
882.812439,318
882.929382,315
883.046326,325
883.163208,318
883.280151,322
883.397034,342
883.513916,321
883.630798,326
883.747742,325
883.864563,332
883.981506,315
884.098389,325
884.21521,331
884.332153,328
884.448975,330
884.565796,327
884.682678,310
884.7995,317
884.916443,319
885.033264,332
885.150085,325
885.266968,317
885.383789,329
885.500671,333
885.617493,329
885.734314,335
885.851196,325
885.967896,332
886.084717,326
886.201599,316
886.318359,319
886.435181,327
886.552002,339
886.668762,330
886.785645,319
886.902344,329
887.019165,327
887.135925,320
887.252747,313
887.369446,332
887.486267,321
887.603027,344
887.719788,319
887.836548,337
887.953247,315
888.070068,318
888.186829,329
888.303528,326
888.420288,325
888.536987,315
888.653687,312
888.770447,334
888.887146,314
889.003967,318
889.120667,304
889.237305,314
889.354065,308
889.470703,322
889.587463,325
889.704163,326
889.820862,315
889.937561,307
890.054199,303
890.170837,325
890.287598,316
890.404236,325
890.520874,311
890.637634,306
890.754211,313
890.87085,319
890.987549,311
891.104187,320
891.220886,320
891.337463,329
891.454102,319
891.57074,324
891.687378,314
891.804077,315
891.920654,304
892.037231,317
892.15387,305
892.270447,327
892.387085,303
892.503723,315
892.6203,310
892.736877,321
892.853516,325
892.970032,328
893.08667,309
893.203186,325
893.319763,319
893.43634,311
893.552917,306
893.669556,325
893.786011,314
893.902588,316
894.019165,312
894.135681,314
894.252197,313
894.368835,312
894.485291,305
894.601868,332
894.718384,323
894.8349,334
894.951355,315
895.067932,315
895.184448,324
895.300964,310
895.417419,321
895.533936,312
895.650452,315
895.766907,332
895.883423,323
895.999878,330
896.116333,311
896.232849,306
896.349304,308
896.465759,326
896.582214,316
896.698669,322
896.815125,320
896.931641,326
897.048035,321
897.164551,320
897.280884,304
897.397339,308
897.513794,315
897.630249,309
897.746582,307
897.863098,308
897.979431,323
898.095886,319
898.212341,311
898.328674,319
898.445129,304
898.561462,307
898.677795,318
898.794312,302
898.910645,324
899.026978,313
899.143433,320
899.259766,323
899.37616,309
899.492493,325
899.608765,311
899.725159,310
899.841553,323
899.957947,321
900.07428,316
900.190552,319
900.306946,320
900.423157,322
900.53949,327
900.655884,311
900.772156,297
900.888489,313
901.004822,327
901.121033,319
901.237366,310
901.353699,329
901.46991,309
901.586304,324
901.702515,320
901.818787,333
901.93512,303
902.051331,325
902.167603,304
902.283875,326
902.400085,318
902.516418,326
902.632629,316
902.74884,315
902.865112,319
902.981384,336
903.097595,309
903.213867,329
903.330017,330
903.446289,326
903.5625,327
903.67865,323
903.794922,324
903.911072,324
904.027344,316
904.143494,328
904.259705,311
904.375916,320
904.492065,311
904.608215,323
904.724426,312
904.840576,319
904.956726,317
905.072876,326
905.189087,316
905.305176,328
905.421387,311
905.537537,328
905.653687,323
905.769775,314
905.885925,301
906.002014,310
906.118164,322
906.234314,315
906.350403,306
906.466492,316
906.582642,300
906.69873,323
906.814758,318
906.930908,317
907.046936,314
907.163086,332
907.279175,319
907.395264,320
907.511353,302
907.62738,316
907.743408,318
907.859497,323
907.975525,311
908.091553,322
908.207703,313
908.32373,331
908.439758,317
908.555786,324
908.671814,319
908.787842,323
908.90387,317
909.019775,324
909.135864,317
909.251892,329
909.367859,320
909.483826,319
909.599854,299
909.715881,302
909.831848,321
909.947815,321
910.063782,322
910.179749,319
910.295776,312
910.411743,317
910.527649,316
910.643616,309
910.759583,322
910.875488,328
910.991455,320
911.107361,319
911.223267,316
911.339294,315
911.4552,318
911.571106,326
911.687073,306
911.802979,317
911.918823,313
912.034729,320
912.150635,322
912.266602,330
912.382446,327
912.498352,315
912.614197,313
912.730103,322
912.846008,317
