792.44574,315
792.56488,349
792.68396,403
792.80304,372
792.92218,335
793.041199,319
793.160339,314
793.279419,330
793.398499,319
793.517578,317
793.636658,339
793.755737,343
793.874817,361
793.993896,355
794.112976,344
794.232056,319
794.351074,335
794.470215,325
794.589233,320
794.708313,326
794.827393,329
794.946411,328
795.065552,351
795.18457,328
795.303589,324
795.422668,334
795.541687,341
795.660767,333
795.779846,335
795.898865,335
796.017883,330
796.136963,330
796.255981,325
796.375061,327
796.49408,339
796.613037,314
796.732117,334
796.851135,327
796.970154,332
797.089233,321
797.208191,330
797.327271,325
797.446228,345
797.565186,322
797.684265,325
797.803223,341
797.922241,340
798.04126,324
798.160278,332
798.279297,316
798.398315,334
798.517273,334
798.636292,324
798.75531,335
798.874268,327
798.993286,339
799.112244,339
799.231323,334
799.350281,322
799.469238,335
799.588257,326
799.707153,325
799.826111,327
799.945129,328
800.064087,345
800.183044,344
800.302063,335
800.421021,323
800.539978,325
800.658936,353
800.777893,321
800.896912,322
801.015747,340
801.134705,330
801.253723,332
801.37262,308
801.491638,338
801.610535,322
801.729492,333
801.84845,339
801.967407,327
802.086243,319
802.205261,330
802.324158,332
802.443115,335
802.562073,329
802.680969,326
802.799927,319
802.918762,340
803.037659,334
803.156677,338
803.275574,334
803.39447,332
803.513428,334
803.632263,339
803.751221,332
803.870117,307
803.989014,343
804.107971,329
804.226746,316
804.345642,322
804.4646,336
804.583496,339
804.702393,342
804.821228,337
804.940125,337
805.059021,335
805.177917,334
805.296814,348
805.415649,329
805.534546,336
805.653442,325
805.772278,344
805.891113,335
806.01001,331
806.128906,334
806.247742,343
806.366577,329
806.485413,347
806.604309,333
806.723145,343
806.84198,324
806.960876,327
807.079712,329
807.198486,339
807.317383,330
807.436218,326
807.554993,333
807.673889,323
807.792725,329
807.91156,338
808.030396,335
808.14917,338
808.268005,330
808.386841,347
808.505676,337
808.624451,358
808.743286,334
808.862122,345
808.980896,340
809.099731,321
809.218506,330
809.337341,334
809.456116,332
809.57489,331
809.693726,331
809.8125,335
809.931274,321
810.050049,335
810.168884,322
810.287659,347
810.406372,332
810.525269,346
810.643982,330
810.762756,340
810.881531,332
811.000305,344
811.11908,354
811.237854,334
811.356567,330
811.475403,326
811.594116,331
811.71283,332
811.831604,318
811.950378,340
812.069153,333
812.187927,342
812.30658,341
812.425415,330
812.544128,328
812.662781,324
812.781616,337
812.900269,344
813.019043,321
813.137756,332
813.256531,327
813.375244,335
813.493896,343
813.612671,329
813.731384,323
813.850037,330
813.96875,314
814.087524,324
814.206238,332
814.324951,336
814.443604,323
814.562256,347
814.68103,337
814.799683,329
814.918335,342
815.037109,328
815.155762,330
815.274475,333
815.393188,338
815.511841,331
815.630554,319
815.749146,319
815.867859,334
815.986572,336
816.105164,329
816.223877,334
816.342529,350
816.461182,319
816.579895,323
816.698486,341
816.817139,329
816.935791,343
817.054504,314
817.173096,338
817.291748,319
817.4104,323
817.529053,323
817.647644,342
817.766235,331
817.884949,339
818.00354,327
818.122192,338
818.240845,326
818.359436,338
818.478088,328
818.59668,331
818.715271,317
818.833923,329
818.952515,317
819.071106,341
819.189758,316
819.30835,323
819.426941,314
819.545532,318
819.664124,306
819.782715,305
819.901306,327
820.019897,320
820.138489,313
820.25708,325
820.375671,316
820.494202,337
820.612732,329
820.731384,320
820.849915,312
820.968506,318
821.087097,313
821.205627,335
821.324158,320
821.442749,324
821.561279,321
821.679871,317
821.798401,312
821.916931,321
822.035461,319
822.154053,327
822.272583,321
822.391174,316
822.509583,311
822.628174,326
822.746704,324
822.865234,328
822.983765,305
823.102295,325
823.220825,317
823.339294,331
823.457825,304
823.576355,323
823.694824,300
823.813354,327
823.931885,319
824.050354,328
824.168884,318
824.287354,323
824.405823,326
824.524353,315
824.642822,308
824.761353,316
824.879822,311
824.998291,320
825.116699,328
825.235291,313
825.353699,314
825.472168,312
825.590637,311
825.709106,316
825.827576,315
825.946045,322
826.064453,301
826.182983,328
826.301392,309
826.4198,324
826.53833,324
826.656738,309
826.775208,322
826.893677,312
827.012024,321
827.130493,301
827.248962,315
827.36731,321
827.485779,312
827.604248,345
827.722595,309
827.841064,326
827.959412,322
828.077942,323
828.196289,330
828.314636,318
828.433105,306
828.551514,323
828.669861,308
828.78833,314
828.906677,314
829.025085,324
829.143433,334
829.261841,329
829.38031,322
829.498657,323
829.617004,311
829.735413,309
829.85376,320
829.972107,320
830.090515,314
830.208862,317
830.327209,319
830.445557,315
830.563904,324
830.682312,313
830.800659,311
830.919006,319
831.037354,322
831.155701,314
831.274048,308
831.392395,316
831.51062,306
831.629028,319
831.747314,306
831.865662,322
831.984009,312
832.102356,323
832.220642,311
832.338928,333
832.457275,319
832.575623,311
832.693909,325
832.812134,304
832.930481,324
833.048828,318
833.167114,312
833.2854,308
833.403687,312
833.521973,323
833.640259,313
833.758545,328
833.876831,313
833.995056,316
834.113281,322
834.231628,327
834.349915,309
834.468201,305
834.586426,320
834.704651,324
834.822998,314
834.941162,321
835.059448,311
835.177673,321
835.295959,332
835.414246,324
835.53241,309
835.650635,322
835.768921,305
835.887146,317
836.005371,321
836.123596,314
836.241821,323
836.360046,320
836.478271,306
836.596497,330
836.714722,307
836.832886,306
836.95105,318
837.069336,302
837.1875,326
837.305725,310
837.423889,327
837.542053,327
837.660339,312
837.778503,321
837.896667,316
838.014832,320
838.132996,309
838.25116,325
838.369385,312
838.487488,319
838.605713,315
838.723877,321
838.84198,311
838.960205,326
839.078308,315
839.196472,309
839.314636,305
839.4328,308
839.550964,319
839.669067,326
839.787231,311
839.905396,328
840.023499,312
840.141602,324
840.259766,323
840.377869,331
840.495972,313
840.614136,335
840.732239,326
840.850342,320
840.968445,321
841.086548,319
841.204651,319
841.322754,327
841.440918,308
841.55896,330
841.677002,310
841.795166,312
841.913208,326
842.031311,321
842.149353,318
842.267456,330
842.385498,323
842.503601,303
842.621643,315
842.739746,310
842.857788,319
842.97583,323
843.093933,313
843.211975,306
843.330017,323
843.44812,318
843.566101,307
843.684204,309
843.802246,315
843.920227,325
844.038269,318
844.156311,321
844.274292,313
844.392395,319
844.510376,319
844.628357,325
844.74646,316
844.864441,330
844.982422,306
845.100403,320
845.218384,303
845.336426,325
845.454468,313
845.572449,320
845.69043,314
845.808411,311
845.926453,322
846.044373,316
846.162354,324
846.280396,305
846.398315,305
846.516296,324
846.634216,311
846.752197,332
846.870178,305
846.988098,305
847.106079,327
847.22406,321
847.34198,300
847.4599,331
847.577881,316
847.695801,313
847.813782,322
847.931641,321
848.049561,320
848.167603,309
848.285461,310
848.403381,328
848.521362,311
848.639221,307
848.75708,312
848.875,310
848.99292,309
849.110901,313
849.22876,311
849.34668,300
849.464539,308
849.582458,320
849.700317,313
849.818176,319
849.936096,313
850.053955,334
850.171875,313
850.289673,318
850.407593,314
850.525452,323
850.643311,314
850.761169,329
850.878967,307
850.996887,329
851.114746,315
851.232544,319
851.350403,311
851.468262,310
851.58606,316
851.703979,305
851.821777,322
851.939636,329
852.057434,316
852.175232,303
852.293091,314
852.410889,320
852.528687,302
852.646545,330
852.764343,319
852.88208,321
852.999939,324
853.117676,332
853.235535,304
853.353271,314
853.471069,310
853.588928,310
853.706604,310
853.824402,310
853.9422,327
854.059998,320
854.177734,320
854.295532,312
854.413269,311
854.531006,322
854.648804,313
854.766541,322
854.884277,311
855.002014,324
855.119751,316
855.237549,309
855.355225,303
855.473022,317
855.590698,312
855.708435,323
855.826172,326
855.943848,326
856.061646,308
856.179321,329
856.296997,306
856.414795,313
856.53241,327
856.650085,309
856.767822,302
856.885559,332
857.003174,305
857.120911,328
857.238586,327
857.356201,318
857.473938,310
857.591614,323
857.709351,305
857.826965,320
857.944641,311
858.062317,307
858.179993,309
858.297668,320
858.415283,331
858.532959,332
858.650574,320
858.768188,326
858.885803,318
859.003479,308
859.121094,298
859.23877,333
859.356384,306
859.473999,335
859.591675,317
859.709229,312
859.826843,317
859.944458,322
860.062012,298
860.179626,319
860.297302,322
860.414856,324
860.532471,303
860.650024,327
860.767639,310
860.885193,325
861.002808,317
861.120361,313
861.237976,317
861.35553,316
861.473022,320
861.590698,304
861.708191,308
861.825745,301
861.943298,304
862.060852,318
862.178406,303
862.295959,330
862.413513,309
862.531006,320
862.64856,313
862.766113,321
862.883667,323
863.00116,330
863.118713,318
863.236206,329
863.353699,325
863.471252,323
863.588745,305
863.706177,322
863.82373,318
863.941162,315
864.058716,309
864.176208,330
864.29364,313
864.411194,322
864.528687,317
864.646118,314
864.763611,318
864.881042,322
864.998535,327
865.116028,310
865.233459,314
865.350891,311
865.468384,325
865.585754,311
865.703308,322
865.820679,311
865.938171,315
866.055542,315
866.173035,315
866.290466,326
866.407837,304
866.52533,322
866.6427,308
866.760071,307
866.877563,313
866.994934,320
867.112305,323
867.229736,329
867.347107,303
867.464539,309
867.58197,311
867.699341,329
867.81665,317
867.934082,309
868.051453,310
868.168823,319
868.286194,320
868.403564,315
868.520935,320
868.638306,317
868.755676,311
868.872986,317
868.990295,312
869.107727,310
869.225037,301
869.342346,320
869.459717,323
869.577026,316
869.694336,309
869.811707,311
869.929016,302
870.046326,320
870.163635,318
870.280945,314
870.398254,309
870.515564,314
870.632812,329
870.750183,317
870.867432,302
870.984741,321
871.102051,318
871.219299,321
871.336609,313
871.453918,324
871.571106,306
871.688416,313
871.805664,319
871.922852,325
872.040222,304
872.157471,322
872.274719,309
872.391968,312
872.509155,315
872.626465,309
872.743652,308
872.860962,316
872.978149,331
873.095337,317
873.212646,302
873.329834,308
873.44696,316
873.564209,317
873.681396,316
873.798645,307
873.915894,306
874.03302,304
874.150208,305
874.267456,322
874.384583,312
874.501831,308
874.618958,327
874.736145,317
874.853333,318
874.970459,320
875.087646,316
875.204834,317
875.32196,321
875.439148,325
875.556274,326
875.673401,328
875.790527,314
875.907715,320
876.024841,312
876.141968,321
876.259094,307
876.376282,325
876.493347,303
876.610474,306
876.7276,307
876.844727,311
876.961853,321
877.078918,324
877.195984,316
877.313171,316
877.430237,313
877.547302,316
877.664368,312
877.781433,316
877.898499,322
878.015625,331
878.13269,316
878.249695,320
878.366821,312
878.483887,321
878.600952,323
878.717957,331
878.834961,315
878.952087,326
879.069092,314
879.186157,325
879.303162,318
879.420227,321
879.537231,310
879.654236,313
879.77124,315
879.888306,323
880.005249,314
880.122314,324
880.239319,307
880.356323,329
880.473328,311
880.590271,312
880.707275,313
880.824341,300
880.941284,312
881.058228,312
881.175232,313
881.292236,310
881.40918,315
881.526123,308
881.643066,305
881.760071,325
881.877014,323
881.993958,317
882.11084,322
882.227783,324
882.344727,320
882.46167,320
882.578613,319
882.695618,314
882.812439,309
882.929382,317
883.046326,320
883.163208,322
883.280151,305
883.397034,310
883.513916,318
883.630798,323
883.747742,306
883.864563,313
883.981506,319
884.098389,314
884.21521,308
884.332153,320
884.448975,314
884.565796,325
884.682678,321
884.7995,307
884.916443,325
885.033264,309
885.150085,305
885.266968,312
885.383789,317
885.500671,333
885.617493,309
885.734314,322
885.851196,324
885.967896,322
886.084717,308
886.201599,322
886.318359,324
886.435181,326
886.552002,310
886.668762,313
886.785645,312
886.902344,310
887.019165,317
887.135925,318
887.252747,312
887.369446,330
887.486267,317
887.603027,328
887.719788,311
887.836548,311
887.953247,314
888.070068,312
888.186829,308
888.303528,329
888.420288,303
888.536987,317
888.653687,319
888.770447,316
888.887146,308
889.003967,297
889.120667,317
889.237305,329
889.354065,312
889.470703,317
889.587463,311
889.704163,329
889.820862,308
889.937561,318
890.054199,315
890.170837,319
890.287598,314
890.404236,324
890.520874,310
890.637634,320
890.754211,317
890.87085,320
890.987549,308
891.104187,324
891.220886,334
891.337463,312
891.454102,311
891.57074,319
891.687378,326
891.804077,318
891.920654,318
892.037231,333
892.15387,319
892.270447,328
892.387085,316
892.503723,315
892.6203,298
892.736877,315
892.853516,313
892.970032,326
893.08667,327
893.203186,318
893.319763,302
893.43634,334
893.552917,313
893.669556,328
893.786011,299
893.902588,303
894.019165,316
894.135681,326
894.252197,316
894.368835,316
894.485291,313
894.601868,311
894.718384,312
894.8349,308
894.951355,322
895.067932,319
895.184448,320
895.300964,309
895.417419,316
895.533936,310
895.650452,312
895.766907,320
895.883423,318
895.999878,314
896.116333,321
896.232849,309
896.349304,321
896.465759,322
896.582214,319
896.698669,313
896.815125,305
896.931641,312
897.048035,312
897.164551,327
897.280884,325
897.397339,338
897.513794,311
897.630249,315
897.746582,317
897.863098,322
897.979431,306
898.095886,327
898.212341,304
898.328674,314
898.445129,307
898.561462,315
898.677795,322
898.794312,320
898.910645,309
899.026978,324
899.143433,309
899.259766,313
899.37616,309
899.492493,327
899.608765,308
899.725159,320
899.841553,315
899.957947,314
900.07428,313
900.190552,318
900.306946,298
900.423157,326
900.53949,317
900.655884,323
900.772156,313
900.888489,320
901.004822,318
901.121033,318
901.237366,317
901.353699,330
901.46991,311
901.586304,326
901.702515,313
901.818787,315
901.93512,318
902.051331,312
902.167603,321
902.283875,331
902.400085,313
902.516418,316
902.632629,311
902.74884,310
902.865112,311
902.981384,315
903.097595,315
903.213867,322
903.330017,317
903.446289,315
903.5625,313
903.67865,320
903.794922,312
903.911072,323
904.027344,297
904.143494,339
904.259705,319
904.375916,321
904.492065,325
904.608215,311
904.724426,309
904.840576,318
904.956726,320
905.072876,312
905.189087,313
905.305176,329
905.421387,315
905.537537,335
905.653687,322
905.769775,328
905.885925,320
906.002014,323
906.118164,335
906.234314,317
906.350403,305
906.466492,315
906.582642,318
906.69873,322
906.814758,317
906.930908,322
907.046936,326
907.163086,325
907.279175,308
907.395264,328
907.511353,337
907.62738,301
907.743408,307
907.859497,322
907.975525,311
908.091553,329
908.207703,316
908.32373,329
908.439758,321
908.555786,320
908.671814,302
908.787842,312
908.90387,298
909.019775,316
909.135864,314
909.251892,306
909.367859,311
909.483826,322
909.599854,320
909.715881,310
909.831848,318
909.947815,315
910.063782,323
910.179749,304
910.295776,314
910.411743,323
910.527649,316
910.643616,321
910.759583,319
910.875488,320
910.991455,303
911.107361,317
911.223267,320
911.339294,307
911.4552,318
911.571106,321
911.687073,310
911.802979,324
911.918823,317
912.034729,317
912.150635,311
912.266602,322
912.382446,311
912.498352,307
912.614197,316
912.730103,327
912.846008,303
792.44574,324
792.56488,334
792.68396,409
792.80304,377
792.92218,341
793.041199,325
793.160339,317
793.279419,332
793.398499,343
793.517578,324
793.636658,307
793.755737,339
793.874817,357
793.993896,342
794.112976,356
794.232056,321
794.351074,338
794.470215,331
794.589233,325
794.708313,329
794.827393,326
794.946411,336
795.065552,333
795.18457,342
795.303589,347
795.422668,329
795.541687,328
795.660767,334
795.779846,328
795.898865,322
796.017883,339
796.136963,336
796.255981,341
796.375061,323
796.49408,342
796.613037,337
796.732117,321
796.851135,325
796.970154,327
797.089233,326
797.208191,317
797.327271,314
797.446228,336
797.565186,331
797.684265,349
797.803223,324
797.922241,332
798.04126,317
798.160278,318
798.279297,328
798.398315,323
798.517273,330
798.636292,337
798.75531,339
798.874268,342
798.993286,339
799.112244,325
799.231323,330
799.350281,330
799.469238,336
799.588257,328
799.707153,341
799.826111,321
799.945129,332
800.064087,329
800.183044,336
800.302063,328
800.421021,327
800.539978,335
800.658936,327
800.777893,332
800.896912,326
801.015747,322
801.134705,323
801.253723,316
801.37262,331
801.491638,318
801.610535,330
801.729492,332
801.84845,344
801.967407,319
802.086243,328
802.205261,337
802.324158,335
802.443115,341
802.562073,326
802.680969,326
802.799927,337
802.918762,336
803.037659,325
803.156677,336
803.275574,326
803.39447,337
803.513428,333
803.632263,311
803.751221,330
803.870117,339
803.989014,337
804.107971,333
804.226746,322
804.345642,329
804.4646,328
804.583496,332
804.702393,337
804.821228,339
804.940125,333
805.059021,329
805.177917,338
805.296814,328
805.415649,322
805.534546,323
805.653442,339
805.772278,323
805.891113,335
806.01001,329
806.128906,328
806.247742,330
806.366577,322
806.485413,330
806.604309,333
806.723145,341
806.84198,339
806.960876,329
807.079712,332
807.198486,328
807.317383,338
807.436218,339
807.554993,329
807.673889,335
807.792725,324
807.91156,336
808.030396,325
808.14917,339
808.268005,335
808.386841,338
808.505676,334
808.624451,336
808.743286,318
808.862122,341
808.980896,328
809.099731,336
809.218506,328
809.337341,340
809.456116,333
809.57489,333
809.693726,325
809.8125,342
809.931274,336
810.050049,351
810.168884,323
810.287659,350
810.406372,326
810.525269,319
810.643982,334
810.762756,330
810.881531,328
811.000305,335
811.11908,336
811.237854,334
811.356567,330
811.475403,323
811.594116,332
811.71283,337
811.831604,334
811.950378,329
812.069153,332
812.187927,344
812.30658,325
812.425415,331
812.544128,339
812.662781,317
812.781616,330
812.900269,339
813.019043,337
813.137756,339
813.256531,327
813.375244,341
813.493896,332
813.612671,337
813.731384,333
813.850037,329
813.96875,322
814.087524,337
814.206238,341
814.324951,340
814.443604,313
814.562256,355
814.68103,321
814.799683,345
814.918335,331
815.037109,334
815.155762,322
815.274475,339
815.393188,338
815.511841,329
815.630554,322
815.749146,344
815.867859,334
815.986572,344
816.105164,317
816.223877,344
816.342529,314
816.461182,329
816.579895,334
816.698486,354
816.817139,337
816.935791,333
817.054504,331
817.173096,338
817.291748,326
817.4104,336
817.529053,327
817.647644,334
817.766235,330
817.884949,342
818.00354,325
818.122192,320
818.240845,331
818.359436,321
818.478088,326
818.59668,323
818.715271,313
818.833923,329
818.952515,319
819.071106,329
819.189758,318
819.30835,326
819.426941,314
819.545532,326
819.664124,350
819.782715,330
819.901306,317
820.019897,316
820.138489,329
820.25708,326
820.375671,315
820.494202,325
820.612732,317
820.731384,314
820.849915,318
820.968506,325
821.087097,330
821.205627,324
821.324158,319
821.442749,322
821.561279,319
821.679871,329
821.798401,325
821.916931,312
822.035461,307
822.154053,322
822.272583,319
822.391174,313
822.509583,328
822.628174,325
822.746704,320
822.865234,321
822.983765,319
823.102295,325
823.220825,313
823.339294,316
823.457825,331
823.576355,333
823.694824,327
823.813354,312
823.931885,321
824.050354,325
824.168884,318
824.287354,329
824.405823,326
824.524353,321
824.642822,306
824.761353,321
824.879822,324
824.998291,320
825.116699,325
825.235291,318
825.353699,327
825.472168,324
825.590637,319
825.709106,327
825.827576,315
825.946045,329
826.064453,310
826.182983,320
826.301392,316
826.4198,320
826.53833,306
826.656738,321
826.775208,302
826.893677,307
827.012024,323
827.130493,321
827.248962,305
827.36731,316
827.485779,306
827.604248,321
827.722595,304
827.841064,325
827.959412,318
828.077942,313
828.196289,312
828.314636,328
828.433105,312
828.551514,322
828.669861,318
828.78833,320
828.906677,304
829.025085,324
829.143433,317
829.261841,319
829.38031,319
829.498657,320
829.617004,310
829.735413,321
829.85376,322
829.972107,318
830.090515,311
830.208862,316
830.327209,326
830.445557,324
830.563904,319
830.682312,336
830.800659,317
830.919006,317
831.037354,314
831.155701,308
831.274048,308
831.392395,329
831.51062,319
831.629028,315
831.747314,331
831.865662,314
831.984009,311
832.102356,314
832.220642,309
832.338928,320
832.457275,313
832.575623,322
832.693909,318
832.812134,320
832.930481,321
833.048828,321
833.167114,303
833.2854,313
833.403687,321
833.521973,318
833.640259,303
833.758545,319
833.876831,310
833.995056,326
834.113281,308
834.231628,327
834.349915,306
834.468201,322
834.586426,309
834.704651,325
834.822998,301
834.941162,316
835.059448,308
835.177673,320
835.295959,314
835.414246,312
835.53241,319
835.650635,322
835.768921,319
835.887146,309
836.005371,325
836.123596,303
836.241821,308
836.360046,320
836.478271,312
836.596497,324
836.714722,318
836.832886,310
836.95105,299
837.069336,331
837.1875,317
837.305725,324
837.423889,315
837.542053,314
837.660339,314
837.778503,319
837.896667,311
838.014832,317
838.132996,302
838.25116,328
838.369385,320
838.487488,315
838.605713,328
838.723877,316
838.84198,334
838.960205,321
839.078308,314
839.196472,332
839.314636,322
839.4328,328
839.550964,318
839.669067,324
839.787231,321
839.905396,315
840.023499,307
840.141602,330
840.259766,313
840.377869,309
840.495972,321
840.614136,319
840.732239,304
840.850342,332
840.968445,324
841.086548,327
841.204651,313
841.322754,323
841.440918,317
841.55896,323
841.677002,315
841.795166,324
841.913208,314
842.031311,331
842.149353,316
842.267456,311
842.385498,314
842.503601,311
842.621643,329
842.739746,318
842.857788,306
842.97583,313
843.093933,306
843.211975,329
843.330017,320
843.44812,317
843.566101,327
843.684204,321
843.802246,300
843.920227,316
844.038269,335
844.156311,331
844.274292,321
844.392395,310
844.510376,309
844.628357,318
844.74646,313
844.864441,329
844.982422,305
845.100403,330
845.218384,309
845.336426,312
845.454468,314
845.572449,316
845.69043,310
845.808411,321
845.926453,313
846.044373,332
846.162354,332
846.280396,317
846.398315,302
846.516296,326
846.634216,307
846.752197,315
846.870178,318
846.988098,327
847.106079,308
847.22406,315
847.34198,316
847.4599,314
847.577881,320
847.695801,311
847.813782,322
847.931641,325
848.049561,325
848.167603,322
848.285461,329
848.403381,317
848.521362,300
848.639221,319
848.75708,308
848.875,311
848.99292,320
849.110901,312
849.22876,316
849.34668,316
849.464539,309
849.582458,323
849.700317,304
849.818176,319
849.936096,301
850.053955,315
850.171875,322
850.289673,318
850.407593,306
850.525452,324
850.643311,315
850.761169,320
850.878967,313
850.996887,318
851.114746,312
851.232544,304
851.350403,301
851.468262,312
851.58606,311
851.703979,324
851.821777,327
851.939636,327
852.057434,327
852.175232,322
852.293091,315
852.410889,321
852.528687,292
852.646545,337
852.764343,310
852.88208,325
852.999939,304
853.117676,320
853.235535,311
853.353271,325
853.471069,311
853.588928,321
853.706604,326
853.824402,331
853.9422,308
854.059998,321
854.177734,308
854.295532,315
854.413269,324
854.531006,326
854.648804,307
854.766541,306
854.884277,308
855.002014,319
855.119751,308
855.237549,311
855.355225,319
855.473022,321
855.590698,315
855.708435,318
855.826172,310
855.943848,313
856.061646,316
856.179321,303
856.296997,329
856.414795,312
856.53241,313
856.650085,309
856.767822,308
856.885559,301
857.003174,321
857.120911,326
857.238586,316
857.356201,324
857.473938,310
857.591614,319
857.709351,319
857.826965,315
857.944641,300
858.062317,309
858.179993,305
858.297668,312
858.415283,313
858.532959,317
858.650574,320
858.768188,318
858.885803,319
859.003479,323
859.121094,315
859.23877,312
859.356384,317
859.473999,329
859.591675,317
859.709229,321
859.826843,322
859.944458,322
860.062012,316
860.179626,321
860.297302,299
860.414856,322
860.532471,303
860.650024,309
860.767639,300
860.885193,309
861.002808,312
861.120361,316
861.237976,301
861.35553,320
861.473022,296
861.590698,327
861.708191,315
861.825745,319
861.943298,307
862.060852,317
862.178406,316
862.295959,324
862.413513,324
862.531006,322
862.64856,311
862.766113,316
862.883667,320
863.00116,313
863.118713,324
863.236206,325
863.353699,303
863.471252,319
863.588745,319
863.706177,316
863.82373,307
863.941162,329
864.058716,313
864.176208,326
864.29364,314
864.411194,318
864.528687,312
864.646118,304
864.763611,322
864.881042,319
864.998535,321
865.116028,323
865.233459,312
865.350891,324
865.468384,328
865.585754,314
865.703308,312
865.820679,313
865.938171,305
866.055542,309
866.173035,321
866.290466,323
866.407837,313
866.52533,324
866.6427,311
866.760071,323
866.877563,317
866.994934,340
867.112305,327
867.229736,318
867.347107,323
867.464539,323
867.58197,303
867.699341,339
867.81665,327
867.934082,318
868.051453,317
868.168823,325
868.286194,315
868.403564,324
868.520935,320
868.638306,318
868.755676,314
868.872986,322
868.990295,309
869.107727,309
869.225037,313
869.342346,313
869.459717,323
869.577026,311
869.694336,305
869.811707,319
869.929016,314
870.046326,328
870.163635,302
870.280945,321
870.398254,313
870.515564,327
870.632812,309
870.750183,316
870.867432,324
870.984741,325
871.102051,315
871.219299,325
871.336609,314
871.453918,320
871.571106,322
871.688416,327
871.805664,312
871.922852,332
872.040222,318
872.157471,315
872.274719,330
872.391968,313
872.509155,324
872.626465,329
872.743652,328
872.860962,316
872.978149,308
873.095337,323
873.212646,310
873.329834,321
873.44696,314
873.564209,329
873.681396,317
873.798645,316
873.915894,313
874.03302,318
874.150208,314
874.267456,322
874.384583,315
874.501831,313
874.618958,312
874.736145,322
874.853333,311
874.970459,316
875.087646,319
875.204834,319
875.32196,305
875.439148,318
875.556274,320
875.673401,320
875.790527,316
875.907715,322
876.024841,322
876.141968,307
876.259094,306
876.376282,321
876.493347,303
876.610474,324
876.7276,315
876.844727,322
876.961853,312
877.078918,332
877.195984,304
877.313171,312
877.430237,306
877.547302,314
877.664368,316
877.781433,319
877.898499,328
878.015625,320
878.13269,310
878.249695,301
878.366821,307
878.483887,318
878.600952,319
878.717957,319
878.834961,315
878.952087,324
879.069092,310
879.186157,326
879.303162,310
879.420227,324
879.537231,316
879.654236,320
879.77124,307
879.888306,326
880.005249,315
880.122314,328
880.239319,331
880.356323,316
880.473328,314
880.590271,330
880.707275,305
880.824341,317
880.941284,314
881.058228,316
881.175232,313
881.292236,312
881.40918,314
881.526123,325
881.643066,308
881.760071,322
881.877014,315
881.993958,328
882.11084,310
882.227783,310
882.344727,312
882.46167,318
882.578613,317
882.695618,314
882.812439,317
882.929382,314
883.046326,307
883.163208,322
883.280151,312
883.397034,319
883.513916,302
883.630798,314
883.747742,319
883.864563,315
883.981506,302
884.098389,322
884.21521,321
884.332153,327
884.448975,314
884.565796,317
884.682678,323
884.7995,314
884.916443,320
885.033264,312
885.150085,314
885.266968,319
885.383789,314
885.500671,325
885.617493,307
885.734314,318
885.851196,317
885.967896,320
886.084717,310
886.201599,324
886.318359,314
886.435181,309
886.552002,291
886.668762,315
886.785645,313
886.902344,320
887.019165,294
887.135925,326
887.252747,326
887.369446,331
887.486267,322
887.603027,314
887.719788,313
887.836548,316
887.953247,307
888.070068,309
888.186829,326
888.303528,314
888.420288,322
888.536987,312
888.653687,324
888.770447,328
888.887146,314
889.003967,320
889.120667,308
889.237305,323
889.354065,318
889.470703,327
889.587463,314
889.704163,322
889.820862,319
889.937561,324
890.054199,317
890.170837,325
890.287598,315
890.404236,308
890.520874,303
890.637634,316
890.754211,317
890.87085,316
890.987549,311
891.104187,311
891.220886,326
891.337463,328
891.454102,316
891.57074,315
891.687378,311
891.804077,318
891.920654,309
892.037231,320
892.15387,324
892.270447,315
892.387085,314
892.503723,324
892.6203,312
892.736877,321
892.853516,318
892.970032,334
893.08667,322
893.203186,310
893.319763,304
893.43634,317
893.552917,311
893.669556,309
893.786011,308
893.902588,326
894.019165,313
894.135681,331
894.252197,333
894.368835,317
894.485291,306
894.601868,317
894.718384,337
894.8349,322
894.951355,307
895.067932,321
895.184448,312
895.300964,319
895.417419,314
895.533936,319
895.650452,302
895.766907,324
895.883423,315
895.999878,319
896.116333,310
896.232849,315
896.349304,315
896.465759,313
896.582214,315
896.698669,314
896.815125,311
896.931641,313
897.048035,311
897.164551,307
897.280884,316
897.397339,310
897.513794,310
897.630249,310
897.746582,317
897.863098,318
897.979431,312
898.095886,320
898.212341,307
898.328674,341
898.445129,327
898.561462,321
898.677795,309
898.794312,313
898.910645,314
899.026978,313
899.143433,295
899.259766,319
899.37616,320
899.492493,305
899.608765,327
899.725159,326
899.841553,321
899.957947,301
900.07428,316
900.190552,331
900.306946,315
900.423157,327
900.53949,312
900.655884,328
900.772156,304
900.888489,319
901.004822,305
901.121033,321
901.237366,305
901.353699,321
901.46991,322
901.586304,316
901.702515,319
901.818787,329
901.93512,322
902.051331,311
902.167603,299
902.283875,310
902.400085,319
902.516418,316
902.632629,310
902.74884,315
902.865112,309
902.981384,323
903.097595,321
903.213867,320
903.330017,325
903.446289,316
903.5625,316
903.67865,333
903.794922,323
903.911072,326
904.027344,312
904.143494,325
904.259705,328
904.375916,318
904.492065,305
904.608215,311
904.724426,318
904.840576,320
904.956726,315
905.072876,324
905.189087,315
905.305176,315
905.421387,310
905.537537,326
905.653687,311
905.769775,322
905.885925,301
906.002014,325
906.118164,310
906.234314,318
906.350403,313
906.466492,333
906.582642,321
906.69873,306
906.814758,317
906.930908,319
907.046936,313
907.163086,319
907.279175,305
907.395264,322
907.511353,317
907.62738,324
907.743408,316
907.859497,322
907.975525,317
908.091553,323
908.207703,307
908.32373,311
908.439758,304
908.555786,322
908.671814,310
908.787842,318
908.90387,315
909.019775,312
909.135864,314
909.251892,314
909.367859,313
909.483826,317
909.599854,311
909.715881,333
909.831848,325
909.947815,320
910.063782,321
910.179749,321
910.295776,299
910.411743,324
910.527649,313
910.643616,318
910.759583,309
910.875488,321
910.991455,322
911.107361,324
911.223267,304
911.339294,310
911.4552,317
911.571106,320
911.687073,329
911.802979,333
911.918823,318
912.034729,321
912.150635,304
912.266602,323
912.382446,327
912.498352,313
912.614197,303
912.730103,300
912.846008,330
792.44574,319
792.56488,358
792.68396,391
792.80304,375
792.92218,332
793.041199,304
793.160339,330
793.279419,334
793.398499,335
793.517578,314
793.636658,316
793.755737,328
793.874817,339
793.993896,350
794.112976,340
794.232056,325
794.351074,328
794.470215,334
794.589233,340
794.708313,322
794.827393,350
794.946411,340
795.065552,339
795.18457,336
795.303589,341
795.422668,322
795.541687,349
795.660767,324
795.779846,338
795.898865,323
796.017883,324
796.136963,338
796.255981,330
796.375061,339
796.49408,348
796.613037,347
796.732117,332
796.851135,315
796.970154,334
797.089233,323
797.208191,336
797.327271,325
797.446228,315
797.565186,335
797.684265,320
797.803223,333
797.922241,344
798.04126,323
798.160278,332
798.279297,325
798.398315,339
798.517273,327
798.636292,329
798.75531,338
798.874268,333
798.993286,325
799.112244,335
799.231323,327
799.350281,321
799.469238,336
799.588257,347
799.707153,333
799.826111,316
799.945129,326
800.064087,316
800.183044,330
800.302063,340
800.421021,323
800.539978,337
800.658936,325
800.777893,337
800.896912,329
801.015747,332
801.134705,332
801.253723,322
801.37262,331
801.491638,330
801.610535,319
801.729492,332
801.84845,340
801.967407,336
802.086243,332
802.205261,329
802.324158,323
802.443115,333
802.562073,329
802.680969,329
802.799927,334
802.918762,331
803.037659,319
803.156677,335
803.275574,333
803.39447,331
803.513428,336
803.632263,336
803.751221,336
803.870117,321
803.989014,334
804.107971,337
804.226746,323
804.345642,325
804.4646,336
804.583496,323
804.702393,335
804.821228,337
804.940125,333
805.059021,329
805.177917,337
805.296814,348
805.415649,308
805.534546,323
805.653442,339
805.772278,317
805.891113,342
806.01001,330
806.128906,329
806.247742,335
806.366577,336
806.485413,338
806.604309,329
806.723145,333
806.84198,333
806.960876,327
807.079712,347
807.198486,327
807.317383,328
807.436218,339
807.554993,323
807.673889,324
807.792725,329
807.91156,321
808.030396,332
808.14917,328
808.268005,334
808.386841,346
808.505676,336
808.624451,339
808.743286,326
808.862122,330
808.980896,326
809.099731,334
809.218506,327
809.337341,342
809.456116,344
809.57489,342
809.693726,325
809.8125,322
809.931274,338
810.050049,329
810.168884,328
810.287659,345
810.406372,335
810.525269,331
810.643982,331
810.762756,341
810.881531,337
811.000305,343
811.11908,327
811.237854,348
811.356567,323
811.475403,333
811.594116,336
811.71283,320
811.831604,337
811.950378,336
812.069153,330
812.187927,354
812.30658,328
812.425415,330
812.544128,326
812.662781,331
812.781616,310
812.900269,338
813.019043,325
813.137756,340
813.256531,339
813.375244,336
813.493896,322
813.612671,346
813.731384,320
813.850037,328
813.96875,334
814.087524,348
814.206238,337
814.324951,328
814.443604,327
814.562256,333
814.68103,348
814.799683,334
814.918335,317
815.037109,325
815.155762,330
815.274475,347
815.393188,327
815.511841,334
815.630554,331
815.749146,337
815.867859,327
815.986572,325
816.105164,337
816.223877,335
816.342529,333
816.461182,319
816.579895,339
816.698486,322
816.817139,334
816.935791,324
817.054504,339
817.173096,328
817.291748,339
817.4104,344
817.529053,317
817.647644,337
817.766235,318
817.884949,322
818.00354,343
818.122192,339
818.240845,322
818.359436,329
818.478088,317
818.59668,323
818.715271,318
818.833923,314
818.952515,332
819.071106,322
819.189758,327
819.30835,319
819.426941,312
819.545532,327
819.664124,319
819.782715,331
819.901306,328
820.019897,322
820.138489,312
820.25708,322
820.375671,310
820.494202,328
820.612732,319
820.731384,328
820.849915,320
820.968506,329
821.087097,319
821.205627,317
821.324158,326
821.442749,331
821.561279,329
821.679871,321
821.798401,315
821.916931,337
822.035461,306
822.154053,323
822.272583,320
822.391174,317
822.509583,320
822.628174,316
822.746704,323
822.865234,312
822.983765,318
823.102295,314
823.220825,310
823.339294,328
823.457825,328
823.576355,308
823.694824,318
823.813354,314
823.931885,311
824.050354,320
824.168884,316
824.287354,323
824.405823,320
824.524353,324
824.642822,300
824.761353,315
824.879822,316
824.998291,316
825.116699,326
825.235291,336
825.353699,301
825.472168,320
825.590637,302
825.709106,337
825.827576,309
825.946045,312
826.064453,326
826.182983,329
826.301392,323
826.4198,304
826.53833,311
826.656738,311
826.775208,325
826.893677,316
827.012024,309
827.130493,319
827.248962,328
827.36731,319
827.485779,321
827.604248,318
827.722595,318
827.841064,314
827.959412,312
828.077942,324
828.196289,327
828.314636,306
828.433105,322
828.551514,310
828.669861,323
828.78833,320
828.906677,313
829.025085,323
829.143433,319
829.261841,322
829.38031,314
829.498657,311
829.617004,326
829.735413,297
829.85376,314
829.972107,313
830.090515,325
830.208862,314
830.327209,318
830.445557,319
830.563904,308
830.682312,321
830.800659,310
830.919006,321
831.037354,327
831.155701,320
831.274048,308
831.392395,307
831.51062,324
831.629028,313
831.747314,323
831.865662,313
831.984009,314
832.102356,315
832.220642,320
832.338928,327
832.457275,312
832.575623,320
832.693909,308
832.812134,317
832.930481,323
833.048828,320
833.167114,323
833.2854,323
833.403687,312
833.521973,316
833.640259,327
833.758545,330
833.876831,318
833.995056,319
834.113281,320
834.231628,323
834.349915,311
834.468201,324
834.586426,310
834.704651,327
834.822998,317
834.941162,307
835.059448,309
835.177673,332
835.295959,310
835.414246,302
835.53241,308
835.650635,314
835.768921,317
835.887146,309
836.005371,302
836.123596,313
836.241821,313
836.360046,325
836.478271,316
836.596497,322
836.714722,325
836.832886,330
836.95105,319
837.069336,322
837.1875,318
837.305725,320
837.423889,320
837.542053,319
837.660339,312
837.778503,321
837.896667,320
838.014832,322
838.132996,310
838.25116,331
838.369385,331
838.487488,320
838.605713,303
838.723877,316
838.84198,320
838.960205,323
839.078308,301
839.196472,324
839.314636,326
839.4328,311
839.550964,322
839.669067,340
839.787231,317
839.905396,332
840.023499,314
840.141602,323
840.259766,323
840.377869,316
840.495972,317
840.614136,327
840.732239,318
840.850342,321
840.968445,318
841.086548,324
841.204651,322
841.322754,316
841.440918,307
841.55896,325
841.677002,314
841.795166,320
841.913208,304
842.031311,332
842.149353,313
842.267456,332
842.385498,306
842.503601,320
842.621643,312
842.739746,300
842.857788,313
842.97583,323
843.093933,302
843.211975,307
843.330017,311
843.44812,310
843.566101,325
843.684204,321
843.802246,319
843.920227,319
844.038269,319
844.156311,311
844.274292,324
844.392395,332
844.510376,312
844.628357,331
844.74646,322
844.864441,319
844.982422,301
845.100403,324
845.218384,304
845.336426,321
845.454468,300
845.572449,324
845.69043,306
845.808411,330
845.926453,320
846.044373,322
846.162354,314
846.280396,310
846.398315,311
846.516296,321
846.634216,310
846.752197,314
846.870178,307
846.988098,318
847.106079,318
847.22406,312
847.34198,317
847.4599,318
847.577881,320
847.695801,315
847.813782,300
847.931641,324
848.049561,315
848.167603,323
848.285461,304
848.403381,326
848.521362,313
848.639221,320
848.75708,312
848.875,316
848.99292,315
849.110901,329
849.22876,313
849.34668,322
849.464539,324
849.582458,316
849.700317,314
849.818176,324
849.936096,317
850.053955,316
850.171875,313
850.289673,321
850.407593,309
850.525452,323
850.643311,307
850.761169,309
850.878967,305
850.996887,330
851.114746,312
851.232544,312
851.350403,304
851.468262,327
851.58606,309
851.703979,339
851.821777,306
851.939636,318
852.057434,322
852.175232,320
852.293091,309
852.410889,329
852.528687,317
852.646545,328
852.764343,318
852.88208,318
852.999939,303
853.117676,319
853.235535,313
853.353271,308
853.471069,326
853.588928,305
853.706604,306
853.824402,318
853.9422,313
854.059998,314
854.177734,310
854.295532,322
854.413269,313
854.531006,313
854.648804,325
854.766541,307
854.884277,300
855.002014,318
855.119751,328
855.237549,329
855.355225,319
855.473022,321
855.590698,318
855.708435,316
855.826172,319
855.943848,328
856.061646,317
856.179321,316
856.296997,307
856.414795,318
856.53241,312
856.650085,312
856.767822,308
856.885559,314
857.003174,311
857.120911,312
857.238586,311
857.356201,325
857.473938,315
857.591614,319
857.709351,314
857.826965,327
857.944641,297
858.062317,327
858.179993,312
858.297668,309
858.415283,314
858.532959,322
858.650574,306
858.768188,307
858.885803,311
859.003479,313
859.121094,310
859.23877,324
859.356384,311
859.473999,322
859.591675,314
859.709229,317
859.826843,314
859.944458,332
860.062012,312
860.179626,314
860.297302,301
860.414856,317
860.532471,305
860.650024,317
860.767639,308
860.885193,307
861.002808,315
861.120361,334
861.237976,304
861.35553,313
861.473022,304
861.590698,324
861.708191,311
861.825745,319
861.943298,306
862.060852,312
862.178406,312
862.295959,331
862.413513,297
862.531006,321
862.64856,307
862.766113,308
862.883667,309
863.00116,314
863.118713,303
863.236206,324
863.353699,317
863.471252,309
863.588745,314
863.706177,299
863.82373,316
863.941162,311
864.058716,316
864.176208,330
864.29364,307
864.411194,314
864.528687,322
864.646118,336
864.763611,315
864.881042,319
864.998535,309
865.116028,307
865.233459,310
865.350891,318
865.468384,311
865.585754,329
865.703308,311
865.820679,321
865.938171,321
866.055542,313
866.173035,315
866.290466,316
866.407837,317
866.52533,311
866.6427,310
866.760071,321
866.877563,324
866.994934,321
867.112305,308
867.229736,315
867.347107,312
867.464539,311
867.58197,312
867.699341,322
867.81665,311
867.934082,331
868.051453,302
868.168823,313
868.286194,314
868.403564,305
868.520935,313
868.638306,320
868.755676,332
868.872986,318
868.990295,300
869.107727,331
869.225037,310
869.342346,320
869.459717,316
869.577026,315
869.694336,323
869.811707,305
869.929016,319
870.046326,310
870.163635,300
870.280945,328
870.398254,319
870.515564,320
870.632812,312
870.750183,315
870.867432,312
870.984741,305
871.102051,312
871.219299,324
871.336609,313
871.453918,329
871.571106,309
871.688416,318
871.805664,319
871.922852,317
872.040222,320
872.157471,319
872.274719,316
872.391968,335
872.509155,309
872.626465,326
872.743652,313
872.860962,317
872.978149,311
873.095337,315
873.212646,315
873.329834,321
873.44696,325
873.564209,331
873.681396,308
873.798645,326
873.915894,309
874.03302,325
874.150208,307
874.267456,317
874.384583,307
874.501831,316
874.618958,307
874.736145,322
874.853333,328
874.970459,315
875.087646,302
875.204834,317
875.32196,311
875.439148,310
875.556274,320
875.673401,318
875.790527,305
875.907715,312
876.024841,315
876.141968,324
876.259094,297
876.376282,311
876.493347,326
876.610474,318
876.7276,314
876.844727,333
876.961853,326
877.078918,317
877.195984,317
877.313171,318
877.430237,321
877.547302,325
877.664368,322
877.781433,316
877.898499,318
878.015625,318
878.13269,300
878.249695,319
878.366821,312
878.483887,315
878.600952,311
878.717957,320
878.834961,312
878.952087,322
879.069092,317
879.186157,313
879.303162,315
879.420227,319
879.537231,307
879.654236,317
879.77124,322
879.888306,326
880.005249,319
880.122314,305
880.239319,326
880.356323,308
880.473328,318
880.590271,322
880.707275,309
880.824341,326
880.941284,303
881.058228,332
881.175232,330
881.292236,321
881.40918,313
881.526123,320
881.643066,315
881.760071,309
881.877014,317
881.993958,320
882.11084,300
882.227783,316
882.344727,326
882.46167,316
882.578613,308
882.695618,308
882.812439,323
882.929382,317
883.046326,325
883.163208,319
883.280151,319
883.397034,309
883.513916,310
883.630798,312
883.747742,311
883.864563,321
883.981506,309
884.098389,307
884.21521,307
884.332153,312
884.448975,313
884.565796,327
884.682678,304
884.7995,316
884.916443,307
885.033264,320
885.150085,307
885.266968,323
885.383789,314
885.500671,318
885.617493,319
885.734314,327
885.851196,317
885.967896,321
886.084717,323
886.201599,317
886.318359,307
886.435181,311
886.552002,323
886.668762,322
886.785645,307
886.902344,319
887.019165,320
887.135925,321
887.252747,319
887.369446,323
887.486267,330
887.603027,328
887.719788,313
887.836548,324
887.953247,317
888.070068,305
888.186829,313
888.303528,325
888.420288,320
888.536987,319
888.653687,321
888.770447,309
888.887146,323
889.003967,325
889.120667,316
889.237305,325
889.354065,317
889.470703,316
889.587463,317
889.704163,330
889.820862,320
889.937561,334
890.054199,313
890.170837,318
890.287598,308
890.404236,322
890.520874,325
890.637634,314
890.754211,309
890.87085,319
890.987549,326
891.104187,318
891.220886,314
891.337463,330
891.454102,308
891.57074,328
891.687378,316
891.804077,322
891.920654,320
892.037231,325
892.15387,314
892.270447,325
892.387085,315
892.503723,314
892.6203,307
892.736877,324
892.853516,320
892.970032,324
893.08667,307
893.203186,323
893.319763,308
893.43634,314
893.552917,310
893.669556,325
893.786011,306
893.902588,324
894.019165,316
894.135681,304
894.252197,320
894.368835,339
894.485291,321
894.601868,317
894.718384,319
894.8349,312
894.951355,311
895.067932,314
895.184448,318
895.300964,320
895.417419,319
895.533936,317
895.650452,311
895.766907,314
895.883423,320
895.999878,315
896.116333,312
896.232849,320
896.349304,317
896.465759,325
896.582214,307
896.698669,319
896.815125,319
896.931641,313
897.048035,303
897.164551,323
897.280884,322
897.397339,315
897.513794,318
897.630249,315
897.746582,320
897.863098,331
897.979431,322
898.095886,323
898.212341,310
898.328674,329
898.445129,314
898.561462,330
898.677795,308
898.794312,310
898.910645,319
899.026978,320
899.143433,312
899.259766,320
899.37616,311
899.492493,316
899.608765,315
899.725159,317
899.841553,311
899.957947,312
900.07428,320
900.190552,309
900.306946,316
900.423157,324
900.53949,313
900.655884,324
900.772156,318
900.888489,329
901.004822,310
901.121033,315
901.237366,315
901.353699,312
901.46991,321
901.586304,326
901.702515,310
901.818787,315
901.93512,315
902.051331,323
902.167603,307
902.283875,303
902.400085,318
902.516418,322
902.632629,317
902.74884,322
902.865112,315
902.981384,322
903.097595,313
903.213867,329
903.330017,322
903.446289,323
903.5625,319
903.67865,315
903.794922,318
903.911072,312
904.027344,309
904.143494,316
904.259705,324
904.375916,317
904.492065,318
904.608215,320
904.724426,324
904.840576,320
904.956726,323
905.072876,320
905.189087,297
905.305176,323
905.421387,316
905.537537,315
905.653687,308
905.769775,311
905.885925,320
906.002014,323
906.118164,308
906.234314,322
906.350403,316
906.466492,326
906.582642,315
906.69873,316
906.814758,307
906.930908,318
907.046936,315
907.163086,320
907.279175,314
907.395264,324
907.511353,322
907.62738,309
907.743408,301
907.859497,317
907.975525,328
908.091553,303
908.207703,307
908.32373,316
908.439758,323
908.555786,325
908.671814,304
908.787842,323
908.90387,309
909.019775,314
909.135864,298
909.251892,330
909.367859,310
909.483826,332
909.599854,309
909.715881,321
909.831848,297
909.947815,328
910.063782,315
910.179749,325
910.295776,317
910.411743,314
910.527649,305
910.643616,326
910.759583,326
910.875488,305
910.991455,308
911.107361,309
911.223267,320
911.339294,318
911.4552,314
911.571106,317
911.687073,292
911.802979,325
911.918823,320
912.034729,328
912.150635,317
912.266602,322
912.382446,314
912.498352,335
912.614197,311
912.730103,312
912.846008,309
