792.44574,331
792.56488,352
792.68396,408
792.80304,383
792.92218,332
793.041199,315
793.160339,310
793.279419,323
793.398499,319
793.517578,326
793.636658,312
793.755737,341
793.874817,356
793.993896,340
794.112976,345
794.232056,330
794.351074,328
794.470215,339
794.589233,327
794.708313,318
794.827393,330
794.946411,328
795.065552,333
795.18457,333
795.303589,353
795.422668,323
795.541687,334
795.660767,330
795.779846,339
795.898865,319
796.017883,330
796.136963,328
796.255981,338
796.375061,338
796.49408,336
796.613037,323
796.732117,335
796.851135,322
796.970154,337
797.089233,328
797.208191,331
797.327271,320
797.446228,338
797.565186,327
797.684265,340
797.803223,332
797.922241,328
798.04126,317
798.160278,337
798.279297,326
798.398315,321
798.517273,338
798.636292,315
798.75531,326
798.874268,319
798.993286,338
799.112244,310
799.231323,336
799.350281,328
799.469238,327
799.588257,332
799.707153,311
799.826111,331
799.945129,313
800.064087,338
800.183044,313
800.302063,333
800.421021,324
800.539978,332
800.658936,337
800.777893,337
800.896912,329
801.015747,320
801.134705,327
801.253723,322
801.37262,322
801.491638,318
801.610535,335
801.729492,322
801.84845,321
801.967407,326
802.086243,311
802.205261,331
802.324158,334
802.443115,325
802.562073,325
802.680969,330
802.799927,334
802.918762,325
803.037659,334
803.156677,328
803.275574,314
803.39447,331
803.513428,337
803.632263,327
803.751221,331
803.870117,323
803.989014,319
804.107971,328
804.226746,324
804.345642,338
804.4646,321
804.583496,327
804.702393,318
804.821228,337
804.940125,314
805.059021,329
805.177917,337
805.296814,332
805.415649,323
805.534546,335
805.653442,319
805.772278,333
805.891113,326
806.01001,338
806.128906,326
806.247742,331
806.366577,318
806.485413,326
806.604309,319
806.723145,320
806.84198,322
806.960876,332
807.079712,345
807.198486,319
807.317383,326
807.436218,335
807.554993,340
807.673889,343
807.792725,324
807.91156,309
808.030396,328
808.14917,320
808.268005,311
808.386841,331
808.505676,330
808.624451,328
808.743286,329
808.862122,333
808.980896,325
809.099731,331
809.218506,319
809.337341,331
809.456116,317
809.57489,319
809.693726,309
809.8125,332
809.931274,332
810.050049,344
810.168884,326
810.287659,335
810.406372,317
810.525269,328
810.643982,329
810.762756,326
810.881531,339
811.000305,326
811.11908,316
811.237854,348
811.356567,324
811.475403,342
811.594116,324
811.71283,329
811.831604,340
811.950378,336
812.069153,315
812.187927,317
812.30658,341
812.425415,322
812.544128,337
812.662781,316
812.781616,326
812.900269,324
813.019043,329
813.137756,328
813.256531,336
813.375244,315
813.493896,320
813.612671,338
813.731384,323
813.850037,323
813.96875,333
814.087524,340
814.206238,332
814.324951,320
814.443604,326
814.562256,325
814.68103,336
814.799683,330
814.918335,341
815.037109,343
815.155762,323
815.274475,318
815.393188,331
815.511841,332
815.630554,330
815.749146,336
815.867859,331
815.986572,332
816.105164,323
816.223877,321
816.342529,326
816.461182,326
816.579895,326
816.698486,318
816.817139,315
816.935791,302
817.054504,325
817.173096,329
817.291748,324
817.4104,337
817.529053,333
817.647644,321
817.766235,324
817.884949,322
818.00354,337
818.122192,340
818.240845,323
818.359436,334
818.478088,326
818.59668,322
818.715271,322
818.833923,319
818.952515,327
819.071106,331
819.189758,325
819.30835,305
819.426941,321
819.545532,324
819.664124,334
819.782715,325
819.901306,320
820.019897,328
820.138489,305
820.25708,317
820.375671,317
820.494202,311
820.612732,309
820.731384,309
820.849915,320
820.968506,326
821.087097,313
821.205627,326
821.324158,323
821.442749,327
821.561279,317
821.679871,304
821.798401,333
821.916931,327
822.035461,306
822.154053,309
822.272583,316
822.391174,327
822.509583,312
822.628174,320
822.746704,315
822.865234,308
822.983765,323
823.102295,320
823.220825,320
823.339294,313
823.457825,308
823.576355,313
823.694824,322
823.813354,329
823.931885,330
824.050354,317
824.168884,309
824.287354,319
824.405823,317
824.524353,321
824.642822,309
824.761353,326
824.879822,319
824.998291,331
825.116699,319
825.235291,322
825.353699,321
825.472168,314
825.590637,312
825.709106,320
825.827576,317
825.946045,312
826.064453,322
826.182983,326
826.301392,312
826.4198,323
826.53833,321
826.656738,311
826.775208,318
826.893677,320
827.012024,308
827.130493,318
827.248962,325
827.36731,329
827.485779,317
827.604248,327
827.722595,322
827.841064,314
827.959412,321
828.077942,329
828.196289,311
828.314636,318
828.433105,318
828.551514,323
828.669861,335
828.78833,311
828.906677,318
829.025085,322
829.143433,312
829.261841,322
829.38031,324
829.498657,319
829.617004,307
829.735413,313
829.85376,323
829.972107,314
830.090515,319
830.208862,324
830.327209,311
830.445557,316
830.563904,313
830.682312,326
830.800659,310
830.919006,329
831.037354,311
831.155701,316
831.274048,318
831.392395,318
831.51062,328
831.629028,319
831.747314,310
831.865662,321
831.984009,309
832.102356,320
832.220642,316
832.338928,338
832.457275,322
832.575623,326
832.693909,330
832.812134,330
832.930481,315
833.048828,319
833.167114,320
833.2854,329
833.403687,307
833.521973,333
833.640259,314
833.758545,319
833.876831,321
833.995056,314
834.113281,320
834.231628,316
834.349915,318
834.468201,328
834.586426,309
834.704651,313
834.822998,325
834.941162,323
835.059448,320
835.177673,332
835.295959,304
835.414246,305
835.53241,315
835.650635,334
835.768921,319
835.887146,330
836.005371,316
836.123596,327
836.241821,299
836.360046,326
836.478271,319
836.596497,321
836.714722,315
836.832886,321
836.95105,311
837.069336,312
837.1875,319
837.305725,318
837.423889,313
837.542053,314
837.660339,308
837.778503,312
837.896667,309
838.014832,324
838.132996,314
838.25116,320
838.369385,310
838.487488,317
838.605713,313
838.723877,324
838.84198,311
838.960205,312
839.078308,317
839.196472,326
839.314636,310
839.4328,320
839.550964,321
839.669067,313
839.787231,317
839.905396,314
840.023499,331
840.141602,330
840.259766,320
840.377869,320
840.495972,315
840.614136,317
840.732239,317
840.850342,326
840.968445,315
841.086548,316
841.204651,307
841.322754,318
841.440918,319
841.55896,326
841.677002,321
841.795166,314
841.913208,312
842.031311,322
842.149353,336
842.267456,314
842.385498,310
842.503601,315
842.621643,319
842.739746,316
842.857788,319
842.97583,327
843.093933,309
843.211975,311
843.330017,308
843.44812,323
843.566101,313
843.684204,317
843.802246,321
843.920227,321
844.038269,317
844.156311,334
844.274292,321
844.392395,315
844.510376,321
844.628357,323
844.74646,308
844.864441,308
844.982422,320
845.100403,326
845.218384,322
845.336426,314
845.454468,300
845.572449,338
845.69043,326
845.808411,327
845.926453,326
846.044373,317
846.162354,317
846.280396,324
846.398315,307
846.516296,319
846.634216,319
846.752197,321
846.870178,317
846.988098,315
847.106079,309
847.22406,298
847.34198,325
847.4599,322
847.577881,313
847.695801,316
847.813782,323
847.931641,310
848.049561,332
848.167603,308
848.285461,317
848.403381,313
848.521362,313
848.639221,322
848.75708,306
848.875,311
848.99292,319
849.110901,331
849.22876,315
849.34668,312
849.464539,317
849.582458,321
849.700317,310
849.818176,322
849.936096,314
850.053955,319
850.171875,312
850.289673,329
850.407593,309
850.525452,307
850.643311,324
850.761169,317
850.878967,314
850.996887,330
851.114746,326
851.232544,307
851.350403,323
851.468262,314
851.58606,316
851.703979,321
851.821777,315
851.939636,316
852.057434,299
852.175232,314
852.293091,314
852.410889,301
852.528687,319
852.646545,321
852.764343,320
852.88208,316
852.999939,318
853.117676,328
853.235535,321
853.353271,324
853.471069,325
853.588928,314
853.706604,316
853.824402,320
853.9422,321
854.059998,328
854.177734,320
854.295532,309
854.413269,313
854.531006,314
854.648804,320
854.766541,324
854.884277,327
855.002014,318
855.119751,324
855.237549,315
855.355225,316
855.473022,330
855.590698,311
855.708435,318
855.826172,315
855.943848,305
856.061646,326
856.179321,308
856.296997,315
856.414795,323
856.53241,323
856.650085,317
856.767822,317
856.885559,325
857.003174,305
857.120911,305
857.238586,322
857.356201,312
857.473938,321
857.591614,329
857.709351,313
857.826965,324
857.944641,308
858.062317,334
858.179993,314
858.297668,314
858.415283,326
858.532959,302
858.650574,318
858.768188,315
858.885803,318
859.003479,324
859.121094,311
859.23877,314
859.356384,327
859.473999,316
859.591675,313
859.709229,313
859.826843,314
859.944458,321
860.062012,322
860.179626,320
860.297302,312
860.414856,333
860.532471,319
860.650024,323
860.767639,311
860.885193,320
861.002808,329
861.120361,317
861.237976,311
861.35553,307
861.473022,313
861.590698,327
861.708191,317
861.825745,315
861.943298,324
862.060852,314
862.178406,320
862.295959,323
862.413513,313
862.531006,314
862.64856,320
862.766113,320
862.883667,316
863.00116,309
863.118713,292
863.236206,331
863.353699,322
863.471252,310
863.588745,315
863.706177,312
863.82373,302
863.941162,332
864.058716,322
864.176208,306
864.29364,324
864.411194,311
864.528687,321
864.646118,313
864.763611,331
864.881042,326
864.998535,314
865.116028,319
865.233459,312
865.350891,312
865.468384,320
865.585754,313
865.703308,328
865.820679,323
865.938171,321
866.055542,324
866.173035,307
866.290466,323
866.407837,319
866.52533,315
866.6427,319
866.760071,321
866.877563,325
866.994934,311
867.112305,312
867.229736,314
867.347107,317
867.464539,317
867.58197,335
867.699341,323
867.81665,305
867.934082,318
868.051453,316
868.168823,319
868.286194,311
868.403564,328
868.520935,307
868.638306,321
868.755676,312
868.872986,318
868.990295,309
869.107727,309
869.225037,325
869.342346,330
869.459717,316
869.577026,324
869.694336,295
869.811707,326
869.929016,305
870.046326,320
870.163635,326
870.280945,313
870.398254,325
870.515564,331
870.632812,309
870.750183,317
870.867432,309
870.984741,316
871.102051,327
871.219299,312
871.336609,331
871.453918,306
871.571106,320
871.688416,309
871.805664,299
871.922852,322
872.040222,317
872.157471,332
872.274719,317
872.391968,311
872.509155,322
872.626465,331
872.743652,312
872.860962,305
872.978149,333
873.095337,324
873.212646,296
873.329834,330
873.44696,309
873.564209,329
873.681396,297
873.798645,317
873.915894,329
874.03302,319
874.150208,320
874.267456,314
874.384583,316
874.501831,316
874.618958,315
874.736145,340
874.853333,319
874.970459,326
875.087646,320
875.204834,321
875.32196,305
875.439148,326
875.556274,311
875.673401,323
875.790527,319
875.907715,318
876.024841,320
876.141968,318
876.259094,326
876.376282,327
876.493347,306
876.610474,329
876.7276,309
876.844727,316
876.961853,306
877.078918,322
877.195984,322
877.313171,321
877.430237,324
877.547302,322
877.664368,326
877.781433,321
877.898499,313
878.015625,318
878.13269,326
878.249695,304
878.366821,322
878.483887,322
878.600952,317
878.717957,310
878.834961,327
878.952087,307
879.069092,321
879.186157,315
879.303162,316
879.420227,319
879.537231,324
879.654236,329
879.77124,319
879.888306,317
880.005249,304
880.122314,314
880.239319,319
880.356323,310
880.473328,322
880.590271,324
880.707275,312
880.824341,316
880.941284,312
881.058228,332
881.175232,301
881.292236,319
881.40918,314
881.526123,319
881.643066,315
881.760071,310
881.877014,322
881.993958,323
882.11084,319
882.227783,330
882.344727,314
882.46167,319
882.578613,314
882.695618,321
882.812439,324
882.929382,317
883.046326,318
883.163208,323
883.280151,308
883.397034,311
883.513916,316
883.630798,310
883.747742,318
883.864563,328
883.981506,320
884.098389,321
884.21521,327
884.332153,324
884.448975,319
884.565796,308
884.682678,327
884.7995,328
884.916443,315
885.033264,327
885.150085,312
885.266968,324
885.383789,312
885.500671,308
885.617493,320
885.734314,322
885.851196,318
885.967896,313
886.084717,324
886.201599,322
886.318359,322
886.435181,319
886.552002,322
886.668762,316
886.785645,314
886.902344,322
887.019165,312
887.135925,332
887.252747,314
887.369446,315
887.486267,320
887.603027,329
887.719788,319
887.836548,319
887.953247,305
888.070068,319
888.186829,313
888.303528,318
888.420288,310
888.536987,325
888.653687,313
888.770447,327
888.887146,319
889.003967,307
889.120667,316
889.237305,313
889.354065,310
889.470703,328
889.587463,312
889.704163,320
889.820862,316
889.937561,329
890.054199,314
890.170837,334
890.287598,309
890.404236,330
890.520874,317
890.637634,315
890.754211,304
890.87085,318
890.987549,321
891.104187,321
891.220886,320
891.337463,311
891.454102,326
891.57074,318
891.687378,317
891.804077,320
891.920654,315
892.037231,323
892.15387,321
892.270447,317
892.387085,321
892.503723,330
892.6203,330
892.736877,316
892.853516,302
892.970032,338
893.08667,307
893.203186,319
893.319763,316
893.43634,322
893.552917,316
893.669556,323
893.786011,327
893.902588,319
894.019165,313
894.135681,325
894.252197,304
894.368835,319
894.485291,315
894.601868,304
894.718384,315
894.8349,317
894.951355,317
895.067932,316
895.184448,330
895.300964,322
895.417419,305
895.533936,323
895.650452,314
895.766907,325
895.883423,334
895.999878,317
896.116333,316
896.232849,318
896.349304,312
896.465759,319
896.582214,308
896.698669,313
896.815125,319
896.931641,315
897.048035,310
897.164551,332
897.280884,315
897.397339,325
897.513794,317
897.630249,313
897.746582,308
897.863098,321
897.979431,313
898.095886,335
898.212341,318
898.328674,322
898.445129,319
898.561462,316
898.677795,329
898.794312,329
898.910645,308
899.026978,329
899.143433,311
899.259766,318
899.37616,302
899.492493,321
899.608765,310
899.725159,332
899.841553,314
899.957947,322
900.07428,321
900.190552,329
900.306946,319
900.423157,308
900.53949,323
900.655884,319
900.772156,325
900.888489,327
901.004822,305
901.121033,330
901.237366,312
901.353699,322
901.46991,313
901.586304,321
901.702515,311
901.818787,322
901.93512,340
902.051331,324
902.167603,312
902.283875,319
902.400085,316
902.516418,321
902.632629,324
902.74884,327
902.865112,315
902.981384,323
903.097595,319
903.213867,335
903.330017,322
903.446289,327
903.5625,321
903.67865,331
903.794922,316
903.911072,332
904.027344,310
904.143494,309
904.259705,323
904.375916,324
904.492065,309
904.608215,320
904.724426,306
904.840576,331
904.956726,314
905.072876,320
905.189087,327
905.305176,320
905.421387,320
905.537537,309
905.653687,312
905.769775,335
905.885925,321
906.002014,320
906.118164,322
906.234314,315
906.350403,313
906.466492,320
906.582642,318
906.69873,330
906.814758,314
906.930908,315
907.046936,308
907.163086,316
907.279175,313
907.395264,316
907.511353,315
907.62738,307
907.743408,322
907.859497,311
907.975525,308
908.091553,322
908.207703,319
908.32373,322
908.439758,314
908.555786,338
908.671814,316
908.787842,328
908.90387,321
909.019775,326
909.135864,327
909.251892,323
909.367859,309
909.483826,332
909.599854,311
909.715881,322
909.831848,322
909.947815,322
910.063782,315
910.179749,310
910.295776,316
910.411743,324
910.527649,331
910.643616,335
910.759583,310
910.875488,323
910.991455,317
911.107361,334
911.223267,312
911.339294,329
911.4552,319
911.571106,334
911.687073,310
911.802979,344
911.918823,321
912.034729,315
912.150635,314
912.266602,322
912.382446,310
912.498352,326
912.614197,301
912.730103,326
912.846008,321
792.44574,312
792.56488,357
792.68396,393
792.80304,378
792.92218,331
793.041199,308
793.160339,328
793.279419,334
793.398499,321
793.517578,318
793.636658,318
793.755737,335
793.874817,355
793.993896,359
794.112976,333
794.232056,329
794.351074,324
794.470215,338
794.589233,316
794.708313,327
794.827393,322
794.946411,326
795.065552,343
795.18457,346
795.303589,331
795.422668,327
795.541687,338
795.660767,345
795.779846,315
795.898865,334
796.017883,309
796.136963,335
796.255981,333
796.375061,329
796.49408,338
796.613037,332
796.732117,337
796.851135,306
796.970154,327
797.089233,329
797.208191,318
797.327271,313
797.446228,328
797.565186,320
797.684265,336
797.803223,326
797.922241,323
798.04126,320
798.160278,323
798.279297,322
798.398315,324
798.517273,330
798.636292,320
798.75531,332
798.874268,325
798.993286,318
799.112244,315
799.231323,319
799.350281,328
799.469238,331
799.588257,329
799.707153,323
799.826111,330
799.945129,316
800.064087,340
800.183044,328
800.302063,339
800.421021,328
800.539978,326
800.658936,332
800.777893,332
800.896912,324
801.015747,319
801.134705,318
801.253723,324
801.37262,332
801.491638,311
801.610535,322
801.729492,316
801.84845,327
801.967407,314
802.086243,324
802.205261,340
802.324158,317
802.443115,310
802.562073,335
802.680969,320
802.799927,323
802.918762,317
803.037659,321
803.156677,322
803.275574,325
803.39447,327
803.513428,324
803.632263,318
803.751221,325
803.870117,327
803.989014,323
804.107971,336
804.226746,322
804.345642,322
804.4646,307
804.583496,331
804.702393,334
804.821228,319
804.940125,332
805.059021,328
805.177917,334
805.296814,324
805.415649,332
805.534546,320
805.653442,344
805.772278,325
805.891113,327
806.01001,321
806.128906,334
806.247742,330
806.366577,333
806.485413,327
806.604309,321
806.723145,329
806.84198,339
806.960876,325
807.079712,339
807.198486,337
807.317383,325
807.436218,324
807.554993,330
807.673889,329
807.792725,311
807.91156,327
808.030396,332
808.14917,320
808.268005,320
808.386841,329
808.505676,331
808.624451,322
808.743286,318
808.862122,315
808.980896,330
809.099731,324
809.218506,328
809.337341,326
809.456116,307
809.57489,330
809.693726,313
809.8125,334
809.931274,326
810.050049,338
810.168884,323
810.287659,326
810.406372,332
810.525269,332
810.643982,339
810.762756,341
810.881531,326
811.000305,333
811.11908,317
811.237854,326
811.356567,322
811.475403,329
811.594116,337
811.71283,321
811.831604,333
811.950378,338
812.069153,345
812.187927,345
812.30658,339
812.425415,331
812.544128,324
812.662781,332
812.781616,344
812.900269,328
813.019043,317
813.137756,321
813.256531,335
813.375244,323
813.493896,303
813.612671,325
813.731384,329
813.850037,326
813.96875,316
814.087524,332
814.206238,315
814.324951,324
814.443604,322
814.562256,328
814.68103,337
814.799683,316
814.918335,325
815.037109,328
815.155762,335
815.274475,319
815.393188,323
815.511841,323
815.630554,332
815.749146,334
815.867859,335
815.986572,312
816.105164,310
816.223877,333
816.342529,313
816.461182,336
816.579895,335
816.698486,316
816.817139,323
816.935791,329
817.054504,322
817.173096,328
817.291748,315
817.4104,326
817.529053,318
817.647644,313
817.766235,324
817.884949,330
818.00354,323
818.122192,318
818.240845,314
818.359436,324
818.478088,313
818.59668,316
818.715271,319
818.833923,316
818.952515,318
819.071106,333
819.189758,320
819.30835,320
819.426941,318
819.545532,317
819.664124,319
819.782715,314
819.901306,333
820.019897,322
820.138489,315
820.25708,324
820.375671,298
820.494202,312
820.612732,319
820.731384,318
820.849915,337
820.968506,318
821.087097,338
821.205627,317
821.324158,304
821.442749,313
821.561279,311
821.679871,319
821.798401,317
821.916931,311
822.035461,329
822.154053,316
822.272583,319
822.391174,318
822.509583,326
822.628174,314
822.746704,334
822.865234,318
822.983765,321
823.102295,316
823.220825,303
823.339294,329
823.457825,320
823.576355,316
823.694824,317
823.813354,322
823.931885,320
824.050354,325
824.168884,319
824.287354,316
824.405823,328
824.524353,323
824.642822,323
824.761353,315
824.879822,313
824.998291,316
825.116699,311
825.235291,315
825.353699,318
825.472168,309
825.590637,314
825.709106,319
825.827576,311
825.946045,314
826.064453,313
826.182983,307
826.301392,320
826.4198,331
826.53833,313
826.656738,314
826.775208,312
826.893677,312
827.012024,319
827.130493,328
827.248962,323
827.36731,319
827.485779,313
827.604248,319
827.722595,314
827.841064,314
827.959412,325
828.077942,317
828.196289,315
828.314636,307
828.433105,327
828.551514,323
828.669861,318
828.78833,315
828.906677,308
829.025085,314
829.143433,313
829.261841,319
829.38031,311
829.498657,312
829.617004,327
829.735413,315
829.85376,317
829.972107,320
830.090515,309
830.208862,317
830.327209,314
830.445557,305
830.563904,301
830.682312,306
830.800659,311
830.919006,311
831.037354,306
831.155701,322
831.274048,313
831.392395,322
831.51062,313
831.629028,319
831.747314,319
831.865662,318
831.984009,321
832.102356,330
832.220642,313
832.338928,320
832.457275,324
832.575623,308
832.693909,321
832.812134,319
832.930481,328
833.048828,297
833.167114,322
833.2854,325
833.403687,327
833.521973,320
833.640259,322
833.758545,324
833.876831,321
833.995056,309
834.113281,325
834.231628,322
834.349915,314
834.468201,305
834.586426,318
834.704651,326
834.822998,309
834.941162,307
835.059448,311
835.177673,310
835.295959,320
835.414246,318
835.53241,317
835.650635,311
835.768921,313
835.887146,325
836.005371,316
836.123596,302
836.241821,314
836.360046,315
836.478271,307
836.596497,319
836.714722,323
836.832886,304
836.95105,312
837.069336,313
837.1875,318
837.305725,318
837.423889,311
837.542053,315
837.660339,312
837.778503,321
837.896667,303
838.014832,319
838.132996,312
838.25116,320
838.369385,313
838.487488,315
838.605713,330
838.723877,313
838.84198,321
838.960205,312
839.078308,325
839.196472,308
839.314636,319
839.4328,307
839.550964,319
839.669067,308
839.787231,306
839.905396,319
840.023499,315
840.141602,309
840.259766,316
840.377869,322
840.495972,316
840.614136,301
840.732239,306
840.850342,319
840.968445,312
841.086548,311
841.204651,332
841.322754,304
841.440918,325
841.55896,319
841.677002,314
841.795166,314
841.913208,321
842.031311,319
842.149353,324
842.267456,323
842.385498,319
842.503601,318
842.621643,323
842.739746,303
842.857788,315
842.97583,313
843.093933,313
843.211975,310
843.330017,317
843.44812,311
843.566101,316
843.684204,305
843.802246,304
843.920227,316
844.038269,314
844.156311,314
844.274292,323
844.392395,316
844.510376,324
844.628357,315
844.74646,316
844.864441,304
844.982422,333
845.100403,296
845.218384,325
845.336426,317
845.454468,323
845.572449,309
845.69043,309
845.808411,307
845.926453,314
846.044373,315
846.162354,312
846.280396,311
846.398315,307
846.516296,321
846.634216,307
846.752197,310
846.870178,315
846.988098,307
847.106079,313
847.22406,321
847.34198,313
847.4599,310
847.577881,319
847.695801,322
847.813782,321
847.931641,301
848.049561,316
848.167603,313
848.285461,323
848.403381,313
848.521362,325
848.639221,305
848.75708,302
848.875,324
848.99292,318
849.110901,317
849.22876,322
849.34668,309
849.464539,320
849.582458,304
849.700317,320
849.818176,308
849.936096,320
850.053955,318
850.171875,313
850.289673,310
850.407593,307
850.525452,321
850.643311,318
850.761169,306
850.878967,314
850.996887,329
851.114746,329
851.232544,320
851.350403,316
851.468262,303
851.58606,312
851.703979,315
851.821777,321
851.939636,324
852.057434,310
852.175232,304
852.293091,317
852.410889,322
852.528687,322
852.646545,309
852.764343,323
852.88208,304
852.999939,322
853.117676,303
853.235535,313
853.353271,317
853.471069,300
853.588928,295
853.706604,319
853.824402,297
853.9422,318
854.059998,327
854.177734,323
854.295532,308
854.413269,313
854.531006,324
854.648804,309
854.766541,317
854.884277,315
855.002014,304
855.119751,317
855.237549,325
855.355225,319
855.473022,324
855.590698,328
855.708435,329
855.826172,324
855.943848,328
856.061646,321
856.179321,304
856.296997,301
856.414795,324
856.53241,321
856.650085,314
856.767822,317
856.885559,329
857.003174,309
857.120911,316
857.238586,314
857.356201,310
857.473938,329
857.591614,316
857.709351,325
857.826965,309
857.944641,313
858.062317,311
858.179993,319
858.297668,319
858.415283,309
858.532959,309
858.650574,318
858.768188,326
858.885803,314
859.003479,301
859.121094,311
859.23877,319
859.356384,324
859.473999,315
859.591675,314
859.709229,307
859.826843,322
859.944458,316
860.062012,323
860.179626,308
860.297302,305
860.414856,323
860.532471,318
860.650024,303
860.767639,314
860.885193,306
861.002808,310
861.120361,310
861.237976,321
861.35553,317
861.473022,309
861.590698,308
861.708191,306
861.825745,308
861.943298,320
862.060852,323
862.178406,310
862.295959,305
862.413513,315
862.531006,311
862.64856,324
862.766113,326
862.883667,307
863.00116,326
863.118713,321
863.236206,310
863.353699,316
863.471252,318
863.588745,320
863.706177,314
863.82373,315
863.941162,317
864.058716,316
864.176208,316
864.29364,315
864.411194,321
864.528687,316
864.646118,320
864.763611,310
864.881042,315
864.998535,318
865.116028,314
865.233459,306
865.350891,324
865.468384,309
865.585754,314
865.703308,317
865.820679,301
865.938171,311
866.055542,312
866.173035,315
866.290466,326
866.407837,310
866.52533,311
866.6427,322
866.760071,321
866.877563,326
866.994934,320
867.112305,330
867.229736,312
867.347107,314
867.464539,325
867.58197,326
867.699341,316
867.81665,303
867.934082,310
868.051453,316
868.168823,312
868.286194,321
868.403564,309
868.520935,322
868.638306,305
868.755676,318
868.872986,322
868.990295,321
869.107727,312
869.225037,323
869.342346,322
869.459717,328
869.577026,313
869.694336,326
869.811707,306
869.929016,312
870.046326,315
870.163635,326
870.280945,310
870.398254,320
870.515564,305
870.632812,328
870.750183,311
870.867432,311
870.984741,333
871.102051,315
871.219299,331
871.336609,319
871.453918,304
871.571106,319
871.688416,300
871.805664,322
871.922852,322
872.040222,321
872.157471,313
872.274719,334
872.391968,308
872.509155,316
872.626465,310
872.743652,314
872.860962,314
872.978149,324
873.095337,311
873.212646,333
873.329834,306
873.44696,320
873.564209,307
873.681396,320
873.798645,316
873.915894,307
874.03302,314
874.150208,320
874.267456,303
874.384583,323
874.501831,310
874.618958,323
874.736145,322
874.853333,305
874.970459,312
875.087646,313
875.204834,303
875.32196,322
875.439148,308
875.556274,312
875.673401,312
875.790527,319
875.907715,326
876.024841,318
876.141968,325
876.259094,307
876.376282,310
876.493347,317
876.610474,317
876.7276,312
876.844727,314
876.961853,316
877.078918,316
877.195984,321
877.313171,306
877.430237,334
877.547302,315
877.664368,330
877.781433,324
877.898499,302
878.015625,321
878.13269,319
878.249695,310
878.366821,316
878.483887,309
878.600952,324
878.717957,312
878.834961,309
878.952087,325
879.069092,315
879.186157,322
879.303162,317
879.420227,310
879.537231,316
879.654236,317
879.77124,311
879.888306,310
880.005249,321
880.122314,322
880.239319,304
880.356323,318
880.473328,326
880.590271,324
880.707275,308
880.824341,311
880.941284,321
881.058228,316
881.175232,320
881.292236,314
881.40918,316
881.526123,309
881.643066,312
881.760071,310
881.877014,315
881.993958,310
882.11084,313
882.227783,322
882.344727,317
882.46167,315
882.578613,312
882.695618,316
882.812439,316
882.929382,316
883.046326,311
883.163208,309
883.280151,322
883.397034,306
883.513916,323
883.630798,323
883.747742,320
883.864563,318
883.981506,313
884.098389,318
884.21521,319
884.332153,317
884.448975,321
884.565796,315
884.682678,326
884.7995,312
884.916443,327
885.033264,324
885.150085,318
885.266968,328
885.383789,314
885.500671,315
885.617493,317
885.734314,318
885.851196,327
885.967896,329
886.084717,302
886.201599,314
886.318359,313
886.435181,327
886.552002,325
886.668762,316
886.785645,338
886.902344,320
887.019165,324
887.135925,314
887.252747,310
887.369446,323
887.486267,304
887.603027,331
887.719788,304
887.836548,312
887.953247,311
888.070068,305
888.186829,313
888.303528,317
888.420288,322
888.536987,322
888.653687,317
888.770447,313
888.887146,313
889.003967,311
889.120667,323
889.237305,304
889.354065,328
889.470703,313
889.587463,324
889.704163,313
889.820862,326
889.937561,316
890.054199,303
890.170837,317
890.287598,334
890.404236,310
890.520874,322
890.637634,318
890.754211,323
890.87085,308
890.987549,318
891.104187,319
891.220886,301
891.337463,302
891.454102,306
891.57074,309
891.687378,314
891.804077,320
891.920654,316
892.037231,333
892.15387,314
892.270447,318
892.387085,316
892.503723,314
892.6203,314
892.736877,314
892.853516,313
892.970032,316
893.08667,325
893.203186,306
893.319763,314
893.43634,329
893.552917,312
893.669556,298
893.786011,311
893.902588,312
894.019165,325
894.135681,310
894.252197,312
894.368835,315
894.485291,302
894.601868,318
894.718384,317
894.8349,320
894.951355,319
895.067932,313
895.184448,306
895.300964,315
895.417419,310
895.533936,317
895.650452,319
895.766907,310
895.883423,326
895.999878,321
896.116333,306
896.232849,305
896.349304,327
896.465759,307
896.582214,314
896.698669,313
896.815125,317
896.931641,322
897.048035,318
897.164551,323
897.280884,311
897.397339,312
897.513794,313
897.630249,316
897.746582,314
897.863098,321
897.979431,320
898.095886,319
898.212341,315
898.328674,304
898.445129,319
898.561462,319
898.677795,319
898.794312,297
898.910645,321
899.026978,305
899.143433,327
899.259766,307
899.37616,318
899.492493,307
899.608765,308
899.725159,327
899.841553,305
899.957947,312
900.07428,305
900.190552,321
900.306946,312
900.423157,315
900.53949,329
900.655884,308
900.772156,321
900.888489,299
901.004822,320
901.121033,321
901.237366,319
901.353699,320
901.46991,319
901.586304,313
901.702515,312
901.818787,306
901.93512,315
902.051331,317
902.167603,323
902.283875,316
902.400085,328
902.516418,327
902.632629,317
902.74884,337
902.865112,321
902.981384,315
903.097595,314
903.213867,315
903.330017,326
903.446289,322
903.5625,326
903.67865,306
903.794922,325
903.911072,324
904.027344,324
904.143494,310
904.259705,325
904.375916,306
904.492065,341
904.608215,315
904.724426,321
904.840576,314
904.956726,327
905.072876,319
905.189087,323
905.305176,302
905.421387,323
905.537537,305
905.653687,331
905.769775,315
905.885925,324
906.002014,334
906.118164,322
906.234314,298
906.350403,329
906.466492,323
906.582642,320
906.69873,301
906.814758,322
906.930908,319
907.046936,321
907.163086,327
907.279175,311
907.395264,313
907.511353,303
907.62738,302
907.743408,331
907.859497,309
907.975525,330
908.091553,309
908.207703,321
908.32373,322
908.439758,319
908.555786,322
908.671814,321
908.787842,312
908.90387,317
909.019775,311
909.135864,325
909.251892,316
909.367859,318
909.483826,310
909.599854,309
909.715881,336
909.831848,310
909.947815,320
910.063782,332
910.179749,311
910.295776,314
910.411743,305
910.527649,318
910.643616,304
910.759583,327
910.875488,308
910.991455,310
911.107361,316
911.223267,310
911.339294,310
911.4552,335
911.571106,324
911.687073,312
911.802979,314
911.918823,317
912.034729,323
912.150635,312
912.266602,312
912.382446,310
912.498352,320
912.614197,316
912.730103,319
912.846008,325
792.44574,307
792.56488,352
792.68396,397
792.80304,387
792.92218,340
793.041199,329
793.160339,333
793.279419,348
793.398499,326
793.517578,321
793.636658,335
793.755737,338
793.874817,345
793.993896,339
794.112976,317
794.232056,319
794.351074,332
794.470215,338
794.589233,326
794.708313,338
794.827393,333
794.946411,337
795.065552,336
795.18457,339
795.303589,330
795.422668,320
795.541687,340
795.660767,325
795.779846,333
795.898865,336
796.017883,339
796.136963,343
796.255981,339
796.375061,325
796.49408,337
796.613037,337
796.732117,332
796.851135,340
796.970154,341
797.089233,329
797.208191,324
797.327271,334
797.446228,336
797.565186,327
797.684265,328
797.803223,330
797.922241,324
798.04126,332
798.160278,338
798.279297,323
798.398315,324
798.517273,335
798.636292,332
798.75531,325
798.874268,328
798.993286,335
799.112244,338
799.231323,338
799.350281,334
799.469238,327
799.588257,347
799.707153,341
799.826111,329
799.945129,342
800.064087,318
800.183044,326
800.302063,323
800.421021,321
800.539978,330
800.658936,324
800.777893,322
800.896912,341
801.015747,326
801.134705,342
801.253723,327
801.37262,316
801.491638,332
801.610535,319
801.729492,327
801.84845,319
801.967407,337
802.086243,343
802.205261,331
802.324158,328
802.443115,324
802.562073,324
802.680969,341
802.799927,324
802.918762,336
803.037659,328
803.156677,335
803.275574,344
803.39447,325
803.513428,314
803.632263,334
803.751221,313
803.870117,340
803.989014,323
804.107971,319
804.226746,319
804.345642,338
804.4646,324
804.583496,322
804.702393,327
804.821228,332
804.940125,327
805.059021,323
805.177917,333
805.296814,321
805.415649,323
805.534546,332
805.653442,331
805.772278,334
805.891113,322
806.01001,332
806.128906,315
806.247742,333
806.366577,331
806.485413,328
806.604309,324
806.723145,315
806.84198,328
806.960876,326
807.079712,330
807.198486,332
807.317383,339
807.436218,341
807.554993,332
807.673889,323
807.792725,320
807.91156,334
808.030396,337
808.14917,335
808.268005,323
808.386841,337
808.505676,328
808.624451,338
808.743286,346
808.862122,325
808.980896,333
809.099731,332
809.218506,333
809.337341,321
809.456116,321
809.57489,321
809.693726,351
809.8125,332
809.931274,322
810.050049,322
810.168884,329
810.287659,330
810.406372,326
810.525269,330
810.643982,327
810.762756,329
810.881531,325
811.000305,331
811.11908,341
811.237854,313
811.356567,335
811.475403,333
811.594116,324
811.71283,326
811.831604,327
811.950378,339
812.069153,323
812.187927,326
812.30658,338
812.425415,327
812.544128,328
812.662781,325
812.781616,337
812.900269,334
813.019043,332
813.137756,340
813.256531,317
813.375244,321
813.493896,333
813.612671,340
813.731384,335
813.850037,328
813.96875,339
814.087524,315
814.206238,330
814.324951,332
814.443604,337
814.562256,332
814.68103,331
814.799683,338
814.918335,331
815.037109,320
815.155762,317
815.274475,315
815.393188,341
815.511841,324
815.630554,330
815.749146,332
815.867859,328
815.986572,327
816.105164,328
816.223877,327
816.342529,330
816.461182,328
816.579895,315
816.698486,342
816.817139,339
816.935791,331
817.054504,342
817.173096,334
817.291748,323
817.4104,322
817.529053,331
817.647644,319
817.766235,321
817.884949,319
818.00354,328
818.122192,336
818.240845,325
818.359436,317
818.478088,319
818.59668,322
818.715271,324
818.833923,327
818.952515,324
819.071106,327
819.189758,323
819.30835,326
819.426941,320
819.545532,316
819.664124,323
819.782715,323
819.901306,310
820.019897,327
820.138489,312
820.25708,308
820.375671,328
820.494202,336
820.612732,321
820.731384,311
820.849915,323
820.968506,323
821.087097,320
821.205627,313
821.324158,328
821.442749,317
821.561279,327
821.679871,331
821.798401,327
821.916931,308
822.035461,322
822.154053,318
822.272583,321
822.391174,325
822.509583,316
822.628174,339
822.746704,321
822.865234,315
822.983765,313
823.102295,329
823.220825,327
823.339294,321
823.457825,328
823.576355,323
823.694824,321
823.813354,325
823.931885,310
824.050354,321
824.168884,323
824.287354,307
824.405823,333
824.524353,319
824.642822,323
824.761353,326
824.879822,310
824.998291,311
825.116699,311
825.235291,323
825.353699,310
825.472168,319
825.590637,323
825.709106,309
825.827576,323
825.946045,330
826.064453,302
826.182983,334
826.301392,318
826.4198,326
826.53833,327
826.656738,304
826.775208,312
826.893677,324
827.012024,320
827.130493,328
827.248962,313
827.36731,315
827.485779,320
827.604248,317
827.722595,325
827.841064,323
827.959412,309
828.077942,316
828.196289,305
828.314636,326
828.433105,312
828.551514,312
828.669861,319
828.78833,315
828.906677,311
829.025085,319
829.143433,326
829.261841,312
829.38031,324
829.498657,321
829.617004,320
829.735413,319
829.85376,318
829.972107,325
830.090515,321
830.208862,315
830.327209,318
830.445557,327
830.563904,316
830.682312,309
830.800659,324
830.919006,328
831.037354,320
831.155701,314
831.274048,323
831.392395,304
831.51062,310
831.629028,313
831.747314,327
831.865662,316
831.984009,323
832.102356,319
832.220642,327
832.338928,306
832.457275,326
832.575623,314
832.693909,306
832.812134,325
832.930481,309
833.048828,317
833.167114,329
833.2854,324
833.403687,324
833.521973,315
833.640259,324
833.758545,308
833.876831,311
833.995056,314
834.113281,314
834.231628,327
834.349915,311
834.468201,307
834.586426,333
834.704651,318
834.822998,316
834.941162,305
835.059448,305
835.177673,318
835.295959,313
835.414246,331
835.53241,318
835.650635,318
835.768921,332
835.887146,325
836.005371,317
836.123596,321
836.241821,329
836.360046,319
836.478271,319
836.596497,306
836.714722,321
836.832886,316
836.95105,304
837.069336,335
837.1875,320
837.305725,331
837.423889,317
837.542053,330
837.660339,332
837.778503,308
837.896667,315
838.014832,323
838.132996,326
838.25116,319
838.369385,331
838.487488,331
838.605713,323
838.723877,312
838.84198,323
838.960205,327
839.078308,321
839.196472,309
839.314636,308
839.4328,315
839.550964,326
839.669067,316
839.787231,316
839.905396,316
840.023499,330
840.141602,315
840.259766,320
840.377869,321
840.495972,312
840.614136,310
840.732239,320
840.850342,315
840.968445,320
841.086548,313
841.204651,330
841.322754,325
841.440918,324
841.55896,299
841.677002,323
841.795166,326
841.913208,299
842.031311,309
842.149353,327
842.267456,313
842.385498,310
842.503601,332
842.621643,312
842.739746,308
842.857788,326
842.97583,318
843.093933,302
843.211975,316
843.330017,322
843.44812,307
843.566101,334
843.684204,324
843.802246,307
843.920227,312
844.038269,324
844.156311,316
844.274292,320
844.392395,315
844.510376,322
844.628357,316
844.74646,321
844.864441,311
844.982422,323
845.100403,318
845.218384,325
845.336426,316
845.454468,316
845.572449,324
845.69043,327
845.808411,319
845.926453,320
846.044373,317
846.162354,329
846.280396,322
846.398315,310
846.516296,321
846.634216,321
846.752197,328
846.870178,332
846.988098,305
847.106079,319
847.22406,323
847.34198,316
847.4599,321
847.577881,329
847.695801,315
847.813782,316
847.931641,309
848.049561,337
848.167603,329
848.285461,331
848.403381,324
848.521362,323
848.639221,322
848.75708,325
848.875,324
848.99292,314
849.110901,321
849.22876,320
849.34668,316
849.464539,317
849.582458,327
849.700317,317
849.818176,323
849.936096,323
850.053955,319
850.171875,324
850.289673,317
850.407593,320
850.525452,315
850.643311,309
850.761169,332
850.878967,321
850.996887,321
851.114746,313
851.232544,331
851.350403,316
851.468262,303
851.58606,305
851.703979,315
851.821777,328
851.939636,318
852.057434,323
852.175232,313
852.293091,313
852.410889,323
852.528687,315
852.646545,305
852.764343,310
852.88208,310
852.999939,328
853.117676,309
853.235535,326
853.353271,308
853.471069,330
853.588928,306
853.706604,311
853.824402,319
853.9422,318
854.059998,323
854.177734,327
854.295532,304
854.413269,313
854.531006,313
854.648804,319
854.766541,316
854.884277,323
855.002014,318
855.119751,326
855.237549,323
855.355225,324
855.473022,320
855.590698,313
855.708435,312
855.826172,321
855.943848,326
856.061646,318
856.179321,338
856.296997,326
856.414795,318
856.53241,316
856.650085,318
856.767822,328
856.885559,320
857.003174,325
857.120911,330
857.238586,331
857.356201,321
857.473938,321
857.591614,315
857.709351,316
857.826965,315
857.944641,330
858.062317,314
858.179993,321
858.297668,292
858.415283,328
858.532959,312
858.650574,326
858.768188,324
858.885803,319
859.003479,317
859.121094,337
859.23877,314
859.356384,322
859.473999,323
859.591675,315
859.709229,318
859.826843,321
859.944458,314
860.062012,329
860.179626,319
860.297302,314
860.414856,321
860.532471,325
860.650024,322
860.767639,325
860.885193,312
861.002808,333
861.120361,308
861.237976,319
861.35553,322
861.473022,316
861.590698,332
861.708191,314
861.825745,321
861.943298,342
862.060852,312
862.178406,323
862.295959,312
862.413513,322
862.531006,314
862.64856,322
862.766113,314
862.883667,319
863.00116,327
863.118713,304
863.236206,329
863.353699,325
863.471252,307
863.588745,323
863.706177,334
863.82373,308
863.941162,321
864.058716,323
864.176208,335
864.29364,335
864.411194,327
864.528687,323
864.646118,313
864.763611,328
864.881042,318
864.998535,322
865.116028,311
865.233459,320
865.350891,321
865.468384,315
865.585754,319
865.703308,314
865.820679,334
865.938171,321
866.055542,315
866.173035,314
866.290466,324
866.407837,320
866.52533,310
866.6427,321
866.760071,322
866.877563,317
866.994934,326
867.112305,319
867.229736,311
867.347107,320
867.464539,308
867.58197,330
867.699341,308
867.81665,324
867.934082,308
868.051453,327
868.168823,329
868.286194,321
868.403564,318
868.520935,317
868.638306,322
868.755676,312
868.872986,306
868.990295,323
869.107727,316
869.225037,321
869.342346,316
869.459717,327
869.577026,332
869.694336,309
869.811707,314
869.929016,321
870.046326,307
870.163635,327
870.280945,320
870.398254,334
870.515564,324
870.632812,332
870.750183,319
870.867432,319
870.984741,329
871.102051,326
871.219299,314
871.336609,318
871.453918,315
871.571106,319
871.688416,327
871.805664,329
871.922852,330
872.040222,318
872.157471,326
872.274719,321
872.391968,307
872.509155,335
872.626465,316
872.743652,329
872.860962,314
872.978149,331
873.095337,309
873.212646,322
873.329834,311
873.44696,324
873.564209,328
873.681396,323
873.798645,314
873.915894,321
874.03302,321
874.150208,332
874.267456,312
874.384583,329
874.501831,323
874.618958,322
874.736145,330
874.853333,315
874.970459,315
875.087646,318
875.204834,315
875.32196,325
875.439148,323
875.556274,331
875.673401,314
875.790527,317
875.907715,320
876.024841,317
876.141968,312
876.259094,332
876.376282,317
876.493347,314
876.610474,312
876.7276,324
876.844727,328
876.961853,318
877.078918,318
877.195984,333
877.313171,321
877.430237,329
877.547302,316
877.664368,326
877.781433,312
877.898499,329
878.015625,311
878.13269,322
878.249695,321
878.366821,318
878.483887,317
878.600952,314
878.717957,314
878.834961,334
878.952087,325
879.069092,304
879.186157,317
879.303162,330
879.420227,305
879.537231,322
879.654236,331
879.77124,311
879.888306,311
880.005249,317
880.122314,313
880.239319,317
880.356323,319
880.473328,328
880.590271,311
880.707275,324
880.824341,327
880.941284,308
881.058228,312
881.175232,317
881.292236,325
881.40918,314
881.526123,329
881.643066,309
881.760071,304
881.877014,326
881.993958,309
882.11084,326
882.227783,332
882.344727,321
882.46167,322
882.578613,326
882.695618,297
882.812439,312
882.929382,309
883.046326,315
883.163208,313
883.280151,324
883.397034,307
883.513916,330
883.630798,320
883.747742,333
883.864563,311
883.981506,323
884.098389,325
884.21521,317
884.332153,310
884.448975,326
884.565796,320
884.682678,318
884.7995,329
884.916443,325
885.033264,310
885.150085,310
885.266968,317
885.383789,327
885.500671,313
885.617493,312
885.734314,316
885.851196,324
885.967896,309
886.084717,321
886.201599,332
886.318359,330
886.435181,318
886.552002,331
886.668762,315
886.785645,324
886.902344,321
887.019165,321
887.135925,313
887.252747,315
887.369446,325
887.486267,328
887.603027,323
887.719788,326
887.836548,323
887.953247,324
888.070068,313
888.186829,325
888.303528,308
888.420288,305
888.536987,313
888.653687,319
888.770447,328
888.887146,324
889.003967,319
889.120667,341
889.237305,317
889.354065,334
889.470703,322
889.587463,322
889.704163,315
889.820862,322
889.937561,311
890.054199,320
890.170837,312
890.287598,326
890.404236,313
890.520874,328
890.637634,322
890.754211,309
890.87085,315
890.987549,317
891.104187,320
891.220886,334
891.337463,320
891.454102,315
891.57074,322
891.687378,328
891.804077,323
891.920654,321
892.037231,322
892.15387,322
892.270447,318
892.387085,321
892.503723,314
892.6203,319
892.736877,327
892.853516,316
892.970032,316
893.08667,321
893.203186,322
893.319763,323
893.43634,316
893.552917,315
893.669556,316
893.786011,340
893.902588,316
894.019165,318
894.135681,324
894.252197,311
894.368835,324
894.485291,316
894.601868,328
894.718384,320
894.8349,317
894.951355,320
895.067932,310
895.184448,312
895.300964,314
895.417419,326
895.533936,316
895.650452,316
895.766907,316
895.883423,325
895.999878,316
896.116333,324
896.232849,316
896.349304,338
896.465759,329
896.582214,323
896.698669,305
896.815125,321
896.931641,314
897.048035,325
897.164551,330
897.280884,310
897.397339,323
897.513794,318
897.630249,317
897.746582,315
897.863098,327
897.979431,312
898.095886,325
898.212341,327
898.328674,318
898.445129,325
898.561462,301
898.677795,332
898.794312,335
898.910645,313
899.026978,323
899.143433,324
899.259766,326
899.37616,321
899.492493,305
899.608765,334
899.725159,308
899.841553,322
899.957947,328
900.07428,323
900.190552,314
900.306946,319
900.423157,305
900.53949,326
900.655884,327
900.772156,312
900.888489,323
901.004822,319
901.121033,309
901.237366,312
901.353699,327
901.46991,326
901.586304,318
901.702515,331
901.818787,311
901.93512,325
902.051331,322
902.167603,323
902.283875,312
902.400085,328
902.516418,318
902.632629,329
902.74884,313
902.865112,314
902.981384,316
903.097595,323
903.213867,325
903.330017,321
903.446289,316
903.5625,327
903.67865,324
903.794922,322
903.911072,301
904.027344,334
904.143494,319
904.259705,323
904.375916,305
904.492065,320
904.608215,319
904.724426,311
904.840576,313
904.956726,328
905.072876,315
905.189087,320
905.305176,319
905.421387,329
905.537537,311
905.653687,324
905.769775,306
905.885925,331
906.002014,320
906.118164,308
906.234314,316
906.350403,326
906.466492,323
906.582642,327
906.69873,312
906.814758,325
906.930908,331
907.046936,320
907.163086,316
907.279175,315
907.395264,319
907.511353,339
907.62738,317
907.743408,318
907.859497,318
907.975525,321
908.091553,330
908.207703,316
908.32373,308
908.439758,317
908.555786,322
908.671814,320
908.787842,315
908.90387,335
909.019775,315
909.135864,321
909.251892,311
909.367859,334
909.483826,311
909.599854,320
909.715881,316
909.831848,331
909.947815,316
910.063782,327
910.179749,318
910.295776,333
910.411743,307
910.527649,326
910.643616,316
910.759583,310
910.875488,338
910.991455,321
911.107361,322
911.223267,330
911.339294,308
911.4552,324
911.571106,324
911.687073,330
911.802979,331
911.918823,321
912.034729,319
912.150635,320
912.266602,320
912.382446,320
912.498352,310
912.614197,316
912.730103,325
912.846008,315
