792.44574,306
792.56488,356
792.68396,393
792.80304,387
792.92218,340
793.041199,326
793.160339,318
793.279419,346
793.398499,326
793.517578,317
793.636658,321
793.755737,334
793.874817,341
793.993896,330
794.112976,328
794.232056,308
794.351074,318
794.470215,324
794.589233,341
794.708313,325
794.827393,317
794.946411,332
795.065552,328
795.18457,320
795.303589,341
795.422668,313
795.541687,335
795.660767,328
795.779846,326
795.898865,325
796.017883,331
796.136963,330
796.255981,341
796.375061,337
796.49408,325
796.613037,333
796.732117,331
796.851135,333
796.970154,326
797.089233,319
797.208191,317
797.327271,327
797.446228,334
797.565186,320
797.684265,319
797.803223,329
797.922241,329
798.04126,315
798.160278,331
798.279297,313
798.398315,329
798.517273,305
798.636292,322
798.75531,314
798.874268,318
798.993286,318
799.112244,333
799.231323,328
799.350281,320
799.469238,324
799.588257,317
799.707153,314
799.826111,335
799.945129,326
800.064087,338
800.183044,324
800.302063,321
800.421021,327
800.539978,327
800.658936,318
800.777893,341
800.896912,329
801.015747,314
801.134705,324
801.253723,310
801.37262,318
801.491638,331
801.610535,329
801.729492,315
801.84845,320
801.967407,318
802.086243,314
802.205261,329
802.324158,328
802.443115,318
802.562073,317
802.680969,324
802.799927,311
802.918762,326
803.037659,315
803.156677,324
803.275574,332
803.39447,309
803.513428,331
803.632263,320
803.751221,344
803.870117,328
803.989014,332
804.107971,331
804.226746,305
804.345642,304
804.4646,320
804.583496,336
804.702393,317
804.821228,323
804.940125,309
805.059021,322
805.177917,319
805.296814,312
805.415649,313
805.534546,319
805.653442,322
805.772278,318
805.891113,318
806.01001,312
806.128906,320
806.247742,323
806.366577,308
806.485413,330
806.604309,323
806.723145,320
806.84198,329
806.960876,320
807.079712,318
807.198486,324
807.317383,318
807.436218,322
807.554993,311
807.673889,327
807.792725,325
807.91156,323
808.030396,313
808.14917,320
808.268005,313
808.386841,322
808.505676,318
808.624451,317
808.743286,320
808.862122,317
808.980896,317
809.099731,325
809.218506,313
809.337341,326
809.456116,317
809.57489,318
809.693726,310
809.8125,322
809.931274,312
810.050049,325
810.168884,323
810.287659,318
810.406372,344
810.525269,333
810.643982,309
810.762756,315
810.881531,327
811.000305,321
811.11908,334
811.237854,322
811.356567,311
811.475403,331
811.594116,328
811.71283,325
811.831604,322
811.950378,314
812.069153,323
812.187927,329
812.30658,328
812.425415,316
812.544128,321
812.662781,341
812.781616,321
812.900269,310
813.019043,314
813.137756,313
813.256531,318
813.375244,318
813.493896,321
813.612671,311
813.731384,314
813.850037,336
813.96875,332
814.087524,328
814.206238,325
814.324951,320
814.443604,313
814.562256,320
814.68103,327
814.799683,325
814.918335,312
815.037109,331
815.155762,322
815.274475,337
815.393188,321
815.511841,317
815.630554,307
815.749146,315
815.867859,319
815.986572,309
816.105164,326
816.223877,327
816.342529,323
816.461182,312
816.579895,317
816.698486,310
816.817139,309
816.935791,317
817.054504,319
817.173096,329
817.291748,313
817.4104,324
817.529053,315
817.647644,316
817.766235,321
817.884949,311
818.00354,318
818.122192,319
818.240845,321
818.359436,315
818.478088,317
818.59668,321
818.715271,329
818.833923,314
818.952515,311
819.071106,310
819.189758,314
819.30835,317
819.426941,319
819.545532,319
819.664124,325
819.782715,314
819.901306,331
820.019897,312
820.138489,317
820.25708,314
820.375671,323
820.494202,321
820.612732,303
820.731384,311
820.849915,320
820.968506,312
821.087097,320
821.205627,320
821.324158,323
821.442749,324
821.561279,314
821.679871,322
821.798401,331
821.916931,330
822.035461,326
822.154053,320
822.272583,312
822.391174,313
822.509583,320
822.628174,309
822.746704,315
822.865234,319
822.983765,320
823.102295,314
823.220825,321
823.339294,305
823.457825,329
823.576355,319
823.694824,316
823.813354,324
823.931885,307
824.050354,325
824.168884,336
824.287354,317
824.405823,318
824.524353,312
824.642822,332
824.761353,327
824.879822,316
824.998291,317
825.116699,325
825.235291,311
825.353699,322
825.472168,325
825.590637,323
825.709106,310
825.827576,322
825.946045,313
826.064453,320
826.182983,309
826.301392,325
826.4198,315
826.53833,318
826.656738,316
826.775208,310
826.893677,309
827.012024,317
827.130493,311
827.248962,333
827.36731,314
827.485779,327
827.604248,325
827.722595,304
827.841064,315
827.959412,336
828.077942,325
828.196289,317
828.314636,319
828.433105,311
828.551514,319
828.669861,319
828.78833,323
828.906677,326
829.025085,313
829.143433,322
829.261841,317
829.38031,324
829.498657,325
829.617004,307
829.735413,313
829.85376,323
829.972107,312
830.090515,316
830.208862,319
830.327209,328
830.445557,321
830.563904,311
830.682312,311
830.800659,320
830.919006,320
831.037354,321
831.155701,324
831.274048,313
831.392395,319
831.51062,336
831.629028,324
831.747314,317
831.865662,309
831.984009,333
832.102356,318
832.220642,305
832.338928,321
832.457275,308
832.575623,326
832.693909,317
832.812134,319
832.930481,323
833.048828,318
833.167114,319
833.2854,309
833.403687,322
833.521973,312
833.640259,308
833.758545,306
833.876831,322
833.995056,330
834.113281,312
834.231628,319
834.349915,311
834.468201,329
834.586426,329
834.704651,322
834.822998,302
834.941162,320
835.059448,320
835.177673,315
835.295959,312
835.414246,315
835.53241,319
835.650635,303
835.768921,323
835.887146,324
836.005371,324
836.123596,308
836.241821,321
836.360046,313
836.478271,310
836.596497,320
836.714722,305
836.832886,311
836.95105,324
837.069336,315
837.1875,316
837.305725,326
837.423889,311
837.542053,303
837.660339,315
837.778503,317
837.896667,318
838.014832,308
838.132996,315
838.25116,309
838.369385,315
838.487488,312
838.605713,315
838.723877,305
838.84198,325
838.960205,326
839.078308,318
839.196472,324
839.314636,325
839.4328,322
839.550964,320
839.669067,308
839.787231,306
839.905396,299
840.023499,314
840.141602,319
840.259766,333
840.377869,316
840.495972,304
840.614136,304
840.732239,313
840.850342,327
840.968445,304
841.086548,322
841.204651,311
841.322754,313
841.440918,310
841.55896,312
841.677002,317
841.795166,321
841.913208,320
842.031311,304
842.149353,322
842.267456,303
842.385498,315
842.503601,316
842.621643,309
842.739746,337
842.857788,318
842.97583,314
843.093933,321
843.211975,316
843.330017,317
843.44812,316
843.566101,327
843.684204,322
843.802246,315
843.920227,311
844.038269,309
844.156311,307
844.274292,322
844.392395,310
844.510376,324
844.628357,319
844.74646,310
844.864441,314
844.982422,314
845.100403,323
845.218384,310
845.336426,320
845.454468,317
845.572449,314
845.69043,322
845.808411,301
845.926453,331
846.044373,325
846.162354,304
846.280396,321
846.398315,307
846.516296,331
846.634216,317
846.752197,329
846.870178,306
846.988098,319
847.106079,318
847.22406,312
847.34198,327
847.4599,317
847.577881,318
847.695801,322
847.813782,316
847.931641,310
848.049561,312
848.167603,323
848.285461,309
848.403381,312
848.521362,331
848.639221,317
848.75708,314
848.875,324
848.99292,314
849.110901,325
849.22876,315
849.34668,318
849.464539,320
849.582458,317
849.700317,322
849.818176,312
849.936096,317
850.053955,327
850.171875,317
850.289673,311
850.407593,317
850.525452,308
850.643311,314
850.761169,302
850.878967,323
850.996887,314
851.114746,323
851.232544,324
851.350403,316
851.468262,322
851.58606,324
851.703979,314
851.821777,305
851.939636,318
852.057434,319
852.175232,327
852.293091,326
852.410889,330
852.528687,317
852.646545,315
852.764343,321
852.88208,321
852.999939,323
853.117676,298
853.235535,316
853.353271,324
853.471069,321
853.588928,329
853.706604,320
853.824402,317
853.9422,312
854.059998,316
854.177734,312
854.295532,318
854.413269,317
854.531006,320
854.648804,305
854.766541,315
854.884277,319
855.002014,316
855.119751,312
855.237549,306
855.355225,316
855.473022,323
855.590698,315
855.708435,336
855.826172,314
855.943848,321
856.061646,325
856.179321,315
856.296997,319
856.414795,307
856.53241,331
856.650085,316
856.767822,328
856.885559,318
857.003174,305
857.120911,311
857.238586,324
857.356201,315
857.473938,316
857.591614,306
857.709351,322
857.826965,316
857.944641,315
858.062317,311
858.179993,310
858.297668,319
858.415283,322
858.532959,309
858.650574,312
858.768188,313
858.885803,312
859.003479,322
859.121094,323
859.23877,302
859.356384,317
859.473999,326
859.591675,309
859.709229,316
859.826843,321
859.944458,312
860.062012,333
860.179626,319
860.297302,317
860.414856,319
860.532471,317
860.650024,310
860.767639,322
860.885193,306
861.002808,307
861.120361,311
861.237976,330
861.35553,312
861.473022,310
861.590698,312
861.708191,319
861.825745,309
861.943298,324
862.060852,309
862.178406,342
862.295959,317
862.413513,313
862.531006,315
862.64856,305
862.766113,321
862.883667,329
863.00116,317
863.118713,319
863.236206,311
863.353699,335
863.471252,302
863.588745,319
863.706177,314
863.82373,310
863.941162,313
864.058716,323
864.176208,320
864.29364,320
864.411194,320
864.528687,312
864.646118,310
864.763611,315
864.881042,323
864.998535,310
865.116028,325
865.233459,320
865.350891,322
865.468384,321
865.585754,311
865.703308,315
865.820679,326
865.938171,313
866.055542,327
866.173035,319
866.290466,317
866.407837,318
866.52533,311
866.6427,313
866.760071,321
866.877563,322
866.994934,316
867.112305,308
867.229736,327
867.347107,315
867.464539,325
867.58197,314
867.699341,319
867.81665,315
867.934082,310
868.051453,328
868.168823,315
868.286194,314
868.403564,305
868.520935,305
868.638306,322
868.755676,315
868.872986,312
868.990295,314
869.107727,320
869.225037,323
869.342346,321
869.459717,304
869.577026,322
869.694336,324
869.811707,316
869.929016,303
870.046326,315
870.163635,311
870.280945,306
870.398254,322
870.515564,305
870.632812,320
870.750183,315
870.867432,308
870.984741,323
871.102051,323
871.219299,307
871.336609,306
871.453918,283
871.571106,326
871.688416,311
871.805664,322
871.922852,313
872.040222,305
872.157471,317
872.274719,326
872.391968,321
872.509155,305
872.626465,322
872.743652,318
872.860962,317
872.978149,323
873.095337,326
873.212646,325
873.329834,317
873.44696,331
873.564209,316
873.681396,331
873.798645,323
873.915894,317
874.03302,322
874.150208,322
874.267456,318
874.384583,319
874.501831,324
874.618958,324
874.736145,321
874.853333,314
874.970459,343
875.087646,320
875.204834,316
875.32196,335
875.439148,328
875.556274,326
875.673401,306
875.790527,313
875.907715,322
876.024841,326
876.141968,324
876.259094,326
876.376282,328
876.493347,322
876.610474,326
876.7276,317
876.844727,323
876.961853,320
877.078918,312
877.195984,324
877.313171,312
877.430237,323
877.547302,315
877.664368,319
877.781433,312
877.898499,306
878.015625,321
878.13269,320
878.249695,310
878.366821,312
878.483887,312
878.600952,313
878.717957,325
878.834961,314
878.952087,313
879.069092,314
879.186157,305
879.303162,323
879.420227,315
879.537231,324
879.654236,316
879.77124,325
879.888306,314
880.005249,316
880.122314,322
880.239319,313
880.356323,320
880.473328,310
880.590271,325
880.707275,324
880.824341,324
880.941284,328
881.058228,312
881.175232,317
881.292236,314
881.40918,316
881.526123,315
881.643066,330
881.760071,331
881.877014,320
881.993958,311
882.11084,323
882.227783,306
882.344727,320
882.46167,304
882.578613,318
882.695618,315
882.812439,319
882.929382,307
883.046326,334
883.163208,314
883.280151,314
883.397034,324
883.513916,324
883.630798,318
883.747742,323
883.864563,312
883.981506,314
884.098389,312
884.21521,320
884.332153,316
884.448975,324
884.565796,304
884.682678,325
884.7995,318
884.916443,321
885.033264,311
885.150085,314
885.266968,318
885.383789,327
885.500671,320
885.617493,312
885.734314,303
885.851196,310
885.967896,322
886.084717,311
886.201599,320
886.318359,311
886.435181,310
886.552002,315
886.668762,309
886.785645,321
886.902344,323
887.019165,313
887.135925,316
887.252747,318
887.369446,319
887.486267,333
887.603027,338
887.719788,322
887.836548,322
887.953247,328
888.070068,324
888.186829,323
888.303528,318
888.420288,321
888.536987,303
888.653687,308
888.770447,317
888.887146,314
889.003967,309
889.120667,320
889.237305,320
889.354065,308
889.470703,311
889.587463,315
889.704163,322
889.820862,332
889.937561,315
890.054199,319
890.170837,317
890.287598,313
890.404236,304
890.520874,325
890.637634,311
890.754211,318
890.87085,325
890.987549,315
891.104187,319
891.220886,319
891.337463,301
891.454102,322
891.57074,311
891.687378,314
891.804077,322
891.920654,322
892.037231,313
892.15387,322
892.270447,319
892.387085,325
892.503723,314
892.6203,326
892.736877,301
892.853516,323
892.970032,316
893.08667,324
893.203186,311
893.319763,325
893.43634,327
893.552917,322
893.669556,311
893.786011,326
893.902588,314
894.019165,309
894.135681,326
894.252197,320
894.368835,323
894.485291,305
894.601868,327
894.718384,319
894.8349,312
894.951355,316
895.067932,323
895.184448,317
895.300964,319
895.417419,316
895.533936,307
895.650452,315
895.766907,311
895.883423,313
895.999878,316
896.116333,319
896.232849,317
896.349304,317
896.465759,318
896.582214,301
896.698669,318
896.815125,316
896.931641,319
897.048035,319
897.164551,307
897.280884,309
897.397339,315
897.513794,326
897.630249,314
897.746582,316
897.863098,330
897.979431,307
898.095886,325
898.212341,319
898.328674,306
898.445129,321
898.561462,308
898.677795,324
898.794312,321
898.910645,308
899.026978,323
899.143433,306
899.259766,303
899.37616,312
899.492493,323
899.608765,318
899.725159,313
899.841553,321
899.957947,315
900.07428,305
900.190552,316
900.306946,314
900.423157,318
900.53949,337
900.655884,307
900.772156,327
900.888489,310
901.004822,314
901.121033,310
901.237366,317
901.353699,332
901.46991,325
901.586304,316
901.702515,316
901.818787,326
901.93512,312
902.051331,311
902.167603,335
902.283875,318
902.400085,320
902.516418,310
902.632629,321
902.74884,320
902.865112,325
902.981384,311
903.097595,325
903.213867,311
903.330017,330
903.446289,318
903.5625,305
903.67865,319
903.794922,321
903.911072,320
904.027344,318
904.143494,311
904.259705,325
904.375916,308
904.492065,320
904.608215,310
904.724426,328
904.840576,324
904.956726,315
905.072876,330
905.189087,313
905.305176,315
905.421387,325
905.537537,318
905.653687,317
905.769775,315
905.885925,318
906.002014,318
906.118164,320
906.234314,322
906.350403,313
906.466492,296
906.582642,305
906.69873,319
906.814758,332
906.930908,319
907.046936,320
907.163086,314
907.279175,323
907.395264,324
907.511353,325
907.62738,313
907.743408,323
907.859497,320
907.975525,338
908.091553,320
908.207703,318
908.32373,329
908.439758,318
908.555786,325
908.671814,312
908.787842,314
908.90387,317
909.019775,325
909.135864,311
909.251892,312
909.367859,328
909.483826,308
909.599854,320
909.715881,327
909.831848,312
909.947815,316
910.063782,324
910.179749,323
910.295776,328
910.411743,325
910.527649,315
910.643616,315
910.759583,320
910.875488,331
910.991455,311
911.107361,320
911.223267,318
911.339294,318
911.4552,326
911.571106,321
911.687073,326
911.802979,321
911.918823,317
912.034729,307
912.150635,317
912.266602,308
912.382446,313
912.498352,302
912.614197,315
912.730103,308
912.846008,315
792.44574,321
792.56488,348
792.68396,387
792.80304,383
792.92218,324
793.041199,318
793.160339,324
793.279419,331
793.398499,326
793.517578,305
793.636658,318
793.755737,328
793.874817,338
793.993896,331
794.112976,332
794.232056,316
794.351074,325
794.470215,335
794.589233,317
794.708313,325
794.827393,336
794.946411,325
795.065552,338
795.18457,323
795.303589,324
795.422668,320
795.541687,326
795.660767,328
795.779846,325
795.898865,314
796.017883,316
796.136963,331
796.255981,326
796.375061,319
796.49408,327
796.613037,320
796.732117,326
796.851135,325
796.970154,313
797.089233,331
797.208191,323
797.327271,328
797.446228,329
797.565186,312
797.684265,318
797.803223,334
797.922241,322
798.04126,332
798.160278,324
798.279297,333
798.398315,322
798.517273,328
798.636292,325
798.75531,322
798.874268,316
798.993286,322
799.112244,326
799.231323,323
799.350281,314
799.469238,326
799.588257,317
799.707153,353
799.826111,311
799.945129,327
800.064087,309
800.183044,330
800.302063,319
800.421021,312
800.539978,320
800.658936,308
800.777893,315
800.896912,338
801.015747,324
801.134705,323
801.253723,322
801.37262,334
801.491638,319
801.610535,308
801.729492,336
801.84845,316
801.967407,313
802.086243,342
802.205261,314
802.324158,327
802.443115,314
802.562073,314
802.680969,321
802.799927,312
802.918762,317
803.037659,325
803.156677,317
803.275574,315
803.39447,305
803.513428,302
803.632263,322
803.751221,322
803.870117,323
803.989014,321
804.107971,309
804.226746,334
804.345642,314
804.4646,309
804.583496,315
804.702393,317
804.821228,332
804.940125,306
805.059021,331
805.177917,323
805.296814,318
805.415649,317
805.534546,330
805.653442,321
805.772278,313
805.891113,322
806.01001,324
806.128906,331
806.247742,327
806.366577,317
806.485413,332
806.604309,322
806.723145,325
806.84198,310
806.960876,315
807.079712,310
807.198486,325
807.317383,327
807.436218,323
807.554993,321
807.673889,308
807.792725,324
807.91156,324
808.030396,326
808.14917,322
808.268005,319
808.386841,316
808.505676,334
808.624451,305
808.743286,323
808.862122,332
808.980896,305
809.099731,332
809.218506,318
809.337341,318
809.456116,318
809.57489,322
809.693726,311
809.8125,335
809.931274,315
810.050049,333
810.168884,326
810.287659,325
810.406372,329
810.525269,320
810.643982,316
810.762756,319
810.881531,314
811.000305,323
811.11908,327
811.237854,312
811.356567,329
811.475403,317
811.594116,320
811.71283,323
811.831604,311
811.950378,323
812.069153,323
812.187927,318
812.30658,323
812.425415,327
812.544128,321
812.662781,323
812.781616,311
812.900269,310
813.019043,331
813.137756,323
813.256531,320
813.375244,319
813.493896,313
813.612671,329
813.731384,325
813.850037,325
813.96875,333
814.087524,312
814.206238,322
814.324951,318
814.443604,314
814.562256,327
814.68103,306
814.799683,317
814.918335,317
815.037109,322
815.155762,325
815.274475,316
815.393188,314
815.511841,332
815.630554,325
815.749146,319
815.867859,334
815.986572,306
816.105164,305
816.223877,335
816.342529,314
816.461182,312
816.579895,315
816.698486,323
816.817139,329
816.935791,321
817.054504,321
817.173096,317
817.291748,325
817.4104,313
817.529053,312
817.647644,320
817.766235,330
817.884949,309
818.00354,327
818.122192,321
818.240845,308
818.359436,326
818.478088,310
818.59668,314
818.715271,320
818.833923,314
818.952515,327
819.071106,320
819.189758,310
819.30835,328
819.426941,321
819.545532,313
819.664124,322
819.782715,319
819.901306,332
820.019897,306
820.138489,324
820.25708,306
820.375671,334
820.494202,319
820.612732,309
820.731384,325
820.849915,309
820.968506,316
821.087097,322
821.205627,319
821.324158,311
821.442749,318
821.561279,325
821.679871,313
821.798401,314
821.916931,312
822.035461,308
822.154053,318
822.272583,312
822.391174,317
822.509583,324
822.628174,321
822.746704,320
822.865234,312
822.983765,315
823.102295,326
823.220825,317
823.339294,309
823.457825,312
823.576355,318
823.694824,320
823.813354,304
823.931885,324
824.050354,312
824.168884,313
824.287354,326
824.405823,318
824.524353,318
824.642822,324
824.761353,303
824.879822,317
824.998291,310
825.116699,326
825.235291,304
825.353699,325
825.472168,317
825.590637,323
825.709106,308
825.827576,318
825.946045,317
826.064453,321
826.182983,298
826.301392,324
826.4198,304
826.53833,330
826.656738,310
826.775208,306
826.893677,319
827.012024,324
827.130493,323
827.248962,318
827.36731,308
827.485779,312
827.604248,310
827.722595,306
827.841064,319
827.959412,309
828.077942,321
828.196289,322
828.314636,313
828.433105,316
828.551514,320
828.669861,305
828.78833,314
828.906677,304
829.025085,320
829.143433,323
829.261841,323
829.38031,320
829.498657,314
829.617004,320
829.735413,313
829.85376,328
829.972107,307
830.090515,314
830.208862,328
830.327209,315
830.445557,318
830.563904,306
830.682312,328
830.800659,316
830.919006,311
831.037354,309
831.155701,310
831.274048,326
831.392395,315
831.51062,305
831.629028,310
831.747314,320
831.865662,311
831.984009,323
832.102356,316
832.220642,316
832.338928,325
832.457275,310
832.575623,316
832.693909,315
832.812134,318
832.930481,327
833.048828,317
833.167114,321
833.2854,303
833.403687,310
833.521973,313
833.640259,316
833.758545,315
833.876831,315
833.995056,313
834.113281,314
834.231628,318
834.349915,316
834.468201,313
834.586426,326
834.704651,312
834.822998,312
834.941162,323
835.059448,323
835.177673,321
835.295959,325
835.414246,312
835.53241,323
835.650635,307
835.768921,323
835.887146,302
836.005371,311
836.123596,314
836.241821,323
836.360046,315
836.478271,313
836.596497,322
836.714722,323
836.832886,315
836.95105,315
837.069336,327
837.1875,306
837.305725,301
837.423889,316
837.542053,320
837.660339,320
837.778503,327
837.896667,327
838.014832,306
838.132996,322
838.25116,307
838.369385,314
838.487488,303
838.605713,316
838.723877,302
838.84198,329
838.960205,317
839.078308,304
839.196472,315
839.314636,313
839.4328,318
839.550964,311
839.669067,306
839.787231,321
839.905396,326
840.023499,315
840.141602,310
840.259766,324
840.377869,311
840.495972,309
840.614136,312
840.732239,329
840.850342,315
840.968445,306
841.086548,318
841.204651,329
841.322754,315
841.440918,307
841.55896,312
841.677002,315
841.795166,319
841.913208,309
842.031311,314
842.149353,317
842.267456,328
842.385498,312
842.503601,316
842.621643,320
842.739746,309
842.857788,329
842.97583,317
843.093933,314
843.211975,303
843.330017,330
843.44812,323
843.566101,313
843.684204,325
843.802246,316
843.920227,313
844.038269,327
844.156311,306
844.274292,306
844.392395,314
844.510376,322
844.628357,313
844.74646,313
844.864441,306
844.982422,311
845.100403,314
845.218384,309
845.336426,305
845.454468,324
845.572449,303
845.69043,310
845.808411,308
845.926453,317
846.044373,310
846.162354,316
846.280396,314
846.398315,318
846.516296,309
846.634216,314
846.752197,318
846.870178,308
846.988098,304
847.106079,331
847.22406,300
847.34198,304
847.4599,307
847.577881,313
847.695801,326
847.813782,308
847.931641,312
848.049561,304
848.167603,321
848.285461,311
848.403381,317
848.521362,320
848.639221,316
848.75708,316
848.875,327
848.99292,307
849.110901,318
849.22876,327
849.34668,326
849.464539,310
849.582458,314
849.700317,317
849.818176,312
849.936096,317
850.053955,309
850.171875,318
850.289673,302
850.407593,313
850.525452,308
850.643311,318
850.761169,312
850.878967,320
850.996887,299
851.114746,325
851.232544,320
851.350403,326
851.468262,325
851.58606,314
851.703979,312
851.821777,318
851.939636,319
852.057434,320
852.175232,318
852.293091,332
852.410889,318
852.528687,314
852.646545,315
852.764343,324
852.88208,326
852.999939,317
853.117676,313
853.235535,314
853.353271,320
853.471069,314
853.588928,302
853.706604,314
853.824402,314
853.9422,308
854.059998,313
854.177734,312
854.295532,316
854.413269,318
854.531006,322
854.648804,312
854.766541,314
854.884277,308
855.002014,308
855.119751,312
855.237549,324
855.355225,327
855.473022,309
855.590698,319
855.708435,316
855.826172,313
855.943848,316
856.061646,323
856.179321,321
856.296997,314
856.414795,319
856.53241,305
856.650085,320
856.767822,307
856.885559,329
857.003174,324
857.120911,314
857.238586,319
857.356201,329
857.473938,310
857.591614,322
857.709351,313
857.826965,315
857.944641,324
858.062317,318
858.179993,309
858.297668,331
858.415283,312
858.532959,314
858.650574,306
858.768188,314
858.885803,315
859.003479,305
859.121094,314
859.23877,319
859.356384,315
859.473999,325
859.591675,321
859.709229,333
859.826843,323
859.944458,314
860.062012,318
860.179626,318
860.297302,310
860.414856,300
860.532471,316
860.650024,309
860.767639,313
860.885193,318
861.002808,322
861.120361,318
861.237976,314
861.35553,317
861.473022,325
861.590698,322
861.708191,314
861.825745,307
861.943298,313
862.060852,322
862.178406,310
862.295959,317
862.413513,308
862.531006,327
862.64856,314
862.766113,327
862.883667,306
863.00116,309
863.118713,311
863.236206,316
863.353699,315
863.471252,322
863.588745,311
863.706177,305
863.82373,318
863.941162,312
864.058716,316
864.176208,310
864.29364,298
864.411194,311
864.528687,320
864.646118,324
864.763611,308
864.881042,323
864.998535,313
865.116028,315
865.233459,330
865.350891,321
865.468384,312
865.585754,312
865.703308,318
865.820679,311
865.938171,330
866.055542,304
866.173035,308
866.290466,312
866.407837,318
866.52533,314
866.6427,320
866.760071,325
866.877563,305
866.994934,322
867.112305,328
867.229736,330
867.347107,312
867.464539,317
867.58197,321
867.699341,319
867.81665,320
867.934082,324
868.051453,319
868.168823,315
868.286194,310
868.403564,311
868.520935,314
868.638306,312
868.755676,319
868.872986,323
868.990295,307
869.107727,317
869.225037,310
869.342346,312
869.459717,319
869.577026,315
869.694336,316
869.811707,315
869.929016,320
870.046326,316
870.163635,316
870.280945,320
870.398254,310
870.515564,319
870.632812,314
870.750183,310
870.867432,332
870.984741,309
871.102051,310
871.219299,312
871.336609,313
871.453918,301
871.571106,314
871.688416,300
871.805664,314
871.922852,309
872.040222,319
872.157471,316
872.274719,312
872.391968,325
872.509155,316
872.626465,312
872.743652,316
872.860962,312
872.978149,323
873.095337,308
873.212646,305
873.329834,305
873.44696,316
873.564209,313
873.681396,318
873.798645,304
873.915894,306
874.03302,322
874.150208,322
874.267456,312
874.384583,311
874.501831,317
874.618958,319
874.736145,298
874.853333,310
874.970459,318
875.087646,328
875.204834,317
875.32196,312
875.439148,309
875.556274,319
875.673401,303
875.790527,302
875.907715,306
876.024841,315
876.141968,313
876.259094,322
876.376282,320
876.493347,320
876.610474,322
876.7276,316
876.844727,325
876.961853,315
877.078918,316
877.195984,325
877.313171,313
877.430237,317
877.547302,316
877.664368,319
877.781433,321
877.898499,322
878.015625,310
878.13269,320
878.249695,314
878.366821,323
878.483887,314
878.600952,311
878.717957,318
878.834961,326
878.952087,325
879.069092,323
879.186157,313
879.303162,306
879.420227,303
879.537231,318
879.654236,309
879.77124,331
879.888306,321
880.005249,322
880.122314,304
880.239319,318
880.356323,318
880.473328,316
880.590271,319
880.707275,317
880.824341,312
880.941284,320
881.058228,323
881.175232,314
881.292236,312
881.40918,330
881.526123,320
881.643066,318
881.760071,314
881.877014,309
881.993958,321
882.11084,316
882.227783,316
882.344727,311
882.46167,329
882.578613,323
882.695618,307
882.812439,321
882.929382,311
883.046326,314
883.163208,303
883.280151,311
883.397034,322
883.513916,308
883.630798,321
883.747742,312
883.864563,309
883.981506,329
884.098389,309
884.21521,309
884.332153,326
884.448975,304
884.565796,313
884.682678,320
884.7995,303
884.916443,326
885.033264,315
885.150085,315
885.266968,321
885.383789,328
885.500671,314
885.617493,322
885.734314,331
885.851196,317
885.967896,312
886.084717,321
886.201599,316
886.318359,315
886.435181,313
886.552002,322
886.668762,315
886.785645,309
886.902344,322
887.019165,316
887.135925,310
887.252747,326
887.369446,308
887.486267,321
887.603027,318
887.719788,306
887.836548,321
887.953247,320
888.070068,306
888.186829,313
888.303528,307
888.420288,321
888.536987,325
888.653687,315
888.770447,310
888.887146,315
889.003967,331
889.120667,315
889.237305,312
889.354065,322
889.470703,307
889.587463,312
889.704163,312
889.820862,318
889.937561,312
890.054199,314
890.170837,314
890.287598,326
890.404236,319
890.520874,317
890.637634,299
890.754211,313
890.87085,310
890.987549,322
891.104187,296
891.220886,319
891.337463,327
891.454102,314
891.57074,319
891.687378,311
891.804077,308
891.920654,323
892.037231,325
892.15387,336
892.270447,318
892.387085,314
892.503723,303
892.6203,314
892.736877,325
892.853516,320
892.970032,319
893.08667,313
893.203186,322
893.319763,318
893.43634,313
893.552917,291
893.669556,310
893.786011,317
893.902588,300
894.019165,321
894.135681,322
894.252197,322
894.368835,306
894.485291,317
894.601868,321
894.718384,305
894.8349,316
894.951355,325
895.067932,314
895.184448,301
895.300964,322
895.417419,319
895.533936,314
895.650452,324
895.766907,320
895.883423,313
895.999878,321
896.116333,312
896.232849,325
896.349304,318
896.465759,302
896.582214,305
896.698669,312
896.815125,320
896.931641,313
897.048035,320
897.164551,309
897.280884,325
897.397339,304
897.513794,325
897.630249,319
897.746582,315
897.863098,306
897.979431,329
898.095886,303
898.212341,307
898.328674,307
898.445129,319
898.561462,311
898.677795,325
898.794312,310
898.910645,318
899.026978,324
899.143433,321
899.259766,307
899.37616,318
899.492493,316
899.608765,310
899.725159,306
899.841553,317
899.957947,306
900.07428,332
900.190552,313
900.306946,321
900.423157,319
900.53949,326
900.655884,312
900.772156,319
900.888489,320
901.004822,320
901.121033,324
901.237366,312
901.353699,308
901.46991,322
901.586304,312
901.702515,317
901.818787,303
901.93512,318
902.051331,322
902.167603,321
902.283875,299
902.400085,314
902.516418,317
902.632629,320
902.74884,320
902.865112,312
902.981384,318
903.097595,316
903.213867,321
903.330017,322
903.446289,333
903.5625,311
903.67865,319
903.794922,316
903.911072,308
904.027344,318
904.143494,317
904.259705,317
904.375916,324
904.492065,326
904.608215,304
904.724426,309
904.840576,315
904.956726,317
905.072876,322
905.189087,332
905.305176,315
905.421387,318
905.537537,316
905.653687,318
905.769775,321
905.885925,330
906.002014,313
906.118164,327
906.234314,308
906.350403,301
906.466492,315
906.582642,322
906.69873,331
906.814758,327
906.930908,314
907.046936,321
907.163086,316
907.279175,310
907.395264,317
907.511353,319
907.62738,316
907.743408,314
907.859497,323
907.975525,303
908.091553,317
908.207703,313
908.32373,317
908.439758,316
908.555786,316
908.671814,307
908.787842,317
908.90387,314
909.019775,314
909.135864,325
909.251892,319
909.367859,324
909.483826,323
909.599854,320
909.715881,334
909.831848,311
909.947815,328
910.063782,314
910.179749,310
910.295776,318
910.411743,301
910.527649,317
910.643616,305
910.759583,314
910.875488,317
910.991455,306
911.107361,314
911.223267,305
911.339294,324
911.4552,313
911.571106,317
911.687073,311
911.802979,305
911.918823,320
912.034729,316
912.150635,322
912.266602,311
912.382446,309
912.498352,327
912.614197,327
912.730103,310
912.846008,315
792.44574,307
792.56488,342
792.68396,390
792.80304,376
792.92218,331
793.041199,309
793.160339,322
793.279419,323
793.398499,325
793.517578,320
793.636658,315
793.755737,332
793.874817,350
793.993896,348
794.112976,337
794.232056,320
794.351074,322
794.470215,337
794.589233,332
794.708313,315
794.827393,337
794.946411,330
795.065552,321
795.18457,322
795.303589,334
795.422668,331
795.541687,314
795.660767,317
795.779846,322
795.898865,323
796.017883,316
796.136963,340
796.255981,315
796.375061,343
796.49408,329
796.613037,320
796.732117,315
796.851135,338
796.970154,325
797.089233,336
797.208191,316
797.327271,330
797.446228,328
797.565186,315
797.684265,324
797.803223,331
797.922241,331
798.04126,330
798.160278,335
798.279297,329
798.398315,333
798.517273,330
798.636292,324
798.75531,327
798.874268,334
798.993286,313
799.112244,318
799.231323,325
799.350281,322
799.469238,318
799.588257,332
799.707153,329
799.826111,329
799.945129,334
800.064087,334
800.183044,316
800.302063,323
800.421021,331
800.539978,323
800.658936,325
800.777893,319
800.896912,322
801.015747,326
801.134705,318
801.253723,331
801.37262,306
801.491638,327
801.610535,332
801.729492,319
801.84845,320
801.967407,321
802.086243,323
802.205261,324
802.324158,317
802.443115,327
802.562073,333
802.680969,317
802.799927,321
802.918762,325
803.037659,315
803.156677,312
803.275574,316
803.39447,324
803.513428,317
803.632263,335
803.751221,325
803.870117,315
803.989014,319
804.107971,330
804.226746,329
804.345642,336
804.4646,334
804.583496,312
804.702393,329
804.821228,327
804.940125,312
805.059021,334
805.177917,320
805.296814,323
805.415649,326
805.534546,334
805.653442,334
805.772278,318
805.891113,310
806.01001,323
806.128906,324
806.247742,320
806.366577,326
806.485413,321
806.604309,323
806.723145,309
806.84198,317
806.960876,333
807.079712,321
807.198486,329
807.317383,317
807.436218,310
807.554993,317
807.673889,325
807.792725,312
807.91156,304
808.030396,318
808.14917,326
808.268005,313
808.386841,318
808.505676,314
808.624451,316
808.743286,309
808.862122,308
808.980896,313
809.099731,332
809.218506,307
809.337341,323
809.456116,322
809.57489,328
809.693726,309
809.8125,318
809.931274,323
810.050049,311
810.168884,322
810.287659,319
810.406372,326
810.525269,315
810.643982,320
810.762756,312
810.881531,318
811.000305,318
811.11908,330
811.237854,312
811.356567,322
811.475403,327
811.594116,314
811.71283,317
811.831604,331
811.950378,336
812.069153,308
812.187927,321
812.30658,313
812.425415,324
812.544128,316
812.662781,321
812.781616,315
812.900269,326
813.019043,323
813.137756,317
813.256531,322
813.375244,337
813.493896,324
813.612671,318
813.731384,323
813.850037,311
813.96875,337
814.087524,310
814.206238,314
814.324951,318
814.443604,305
814.562256,332
814.68103,320
814.799683,315
814.918335,324
815.037109,304
815.155762,315
815.274475,323
815.393188,323
815.511841,311
815.630554,308
815.749146,337
815.867859,310
815.986572,327
816.105164,323
816.223877,337
816.342529,322
816.461182,325
816.579895,315
816.698486,338
816.817139,317
816.935791,312
817.054504,325
817.173096,318
817.291748,329
817.4104,320
817.529053,309
817.647644,317
817.766235,320
817.884949,325
818.00354,319
818.122192,324
818.240845,315
818.359436,326
818.478088,329
818.59668,317
818.715271,329
818.833923,312
818.952515,313
819.071106,322
819.189758,319
819.30835,335
819.426941,322
819.545532,310
819.664124,316
819.782715,308
819.901306,301
820.019897,320
820.138489,316
820.25708,322
820.375671,307
820.494202,334
820.612732,327
820.731384,300
820.849915,316
820.968506,310
821.087097,311
821.205627,313
821.324158,318
821.442749,322
821.561279,325
821.679871,319
821.798401,304
821.916931,318
822.035461,311
822.154053,312
822.272583,334
822.391174,327
822.509583,322
822.628174,321
822.746704,312
822.865234,315
822.983765,314
823.102295,312
823.220825,340
823.339294,300
823.457825,313
823.576355,309
823.694824,327
823.813354,327
823.931885,308
824.050354,318
824.168884,310
824.287354,322
824.405823,320
824.524353,313
824.642822,312
824.761353,324
824.879822,327
824.998291,319
825.116699,319
825.235291,309
825.353699,309
825.472168,324
825.590637,327
825.709106,308
825.827576,321
825.946045,314
826.064453,299
826.182983,313
826.301392,334
826.4198,313
826.53833,307
826.656738,327
826.775208,322
826.893677,312
827.012024,321
827.130493,310
827.248962,317
827.36731,314
827.485779,319
827.604248,329
827.722595,316
827.841064,329
827.959412,316
828.077942,314
828.196289,302
828.314636,312
828.433105,318
828.551514,319
828.669861,317
828.78833,326
828.906677,314
829.025085,322
829.143433,327
829.261841,310
829.38031,326
829.498657,316
829.617004,332
829.735413,319
829.85376,323
829.972107,329
830.090515,314
830.208862,319
830.327209,318
830.445557,318
830.563904,313
830.682312,326
830.800659,314
830.919006,326
831.037354,310
831.155701,324
831.274048,322
831.392395,318
831.51062,320
831.629028,302
831.747314,323
831.865662,315
831.984009,323
832.102356,313
832.220642,302
832.338928,306
832.457275,328
832.575623,307
832.693909,316
832.812134,306
832.930481,317
833.048828,320
833.167114,306
833.2854,307
833.403687,314
833.521973,315
833.640259,318
833.758545,325
833.876831,307
833.995056,317
834.113281,317
834.231628,310
834.349915,327
834.468201,294
834.586426,329
834.704651,334
834.822998,315
834.941162,330
835.059448,316
835.177673,324
835.295959,321
835.414246,314
835.53241,317
835.650635,321
835.768921,314
835.887146,311
836.005371,307
836.123596,314
836.241821,322
836.360046,321
836.478271,317
836.596497,312
836.714722,321
836.832886,322
836.95105,308
837.069336,315
837.1875,322
837.305725,300
837.423889,323
837.542053,323
837.660339,326
837.778503,302
837.896667,323
838.014832,328
838.132996,312
838.25116,313
838.369385,321
838.487488,319
838.605713,318
838.723877,303
838.84198,317
838.960205,303
839.078308,308
839.196472,312
839.314636,307
839.4328,316
839.550964,334
839.669067,325
839.787231,324
839.905396,319
840.023499,310
840.141602,318
840.259766,311
840.377869,322
840.495972,312
840.614136,325
840.732239,313
840.850342,317
840.968445,321
841.086548,320
841.204651,322
841.322754,299
841.440918,322
841.55896,310
841.677002,309
841.795166,308
841.913208,322
842.031311,320
842.149353,324
842.267456,308
842.385498,314
842.503601,323
842.621643,321
842.739746,316
842.857788,306
842.97583,311
843.093933,325
843.211975,315
843.330017,315
843.44812,320
843.566101,313
843.684204,317
843.802246,323
843.920227,319
844.038269,313
844.156311,313
844.274292,312
844.392395,316
844.510376,311
844.628357,313
844.74646,331
844.864441,313
844.982422,321
845.100403,322
845.218384,313
845.336426,309
845.454468,321
845.572449,323
845.69043,310
845.808411,313
845.926453,313
846.044373,318
846.162354,317
846.280396,321
846.398315,319
846.516296,303
846.634216,320
846.752197,309
846.870178,312
846.988098,310
847.106079,308
847.22406,313
847.34198,307
847.4599,310
847.577881,315
847.695801,316
847.813782,321
847.931641,312
848.049561,312
848.167603,313
848.285461,316
848.403381,314
848.521362,318
848.639221,316
848.75708,319
848.875,313
848.99292,312
849.110901,330
849.22876,326
849.34668,316
849.464539,322
849.582458,314
849.700317,324
849.818176,307
849.936096,319
850.053955,318
850.171875,320
850.289673,320
850.407593,304
850.525452,326
850.643311,322
850.761169,305
850.878967,322
850.996887,300
851.114746,311
851.232544,325
851.350403,320
851.468262,310
851.58606,317
851.703979,310
851.821777,317
851.939636,310
852.057434,324
852.175232,319
852.293091,320
852.410889,312
852.528687,302
852.646545,315
852.764343,314
852.88208,310
852.999939,309
853.117676,316
853.235535,311
853.353271,317
853.471069,314
853.588928,320
853.706604,307
853.824402,322
853.9422,319
854.059998,310
854.177734,325
854.295532,315
854.413269,321
854.531006,314
854.648804,316
854.766541,313
854.884277,328
855.002014,310
855.119751,313
855.237549,316
855.355225,317
855.473022,313
855.590698,325
855.708435,312
855.826172,314
855.943848,320
856.061646,319
856.179321,311
856.296997,310
856.414795,322
856.53241,317
856.650085,318
856.767822,323
856.885559,301
857.003174,320
857.120911,317
857.238586,321
857.356201,328
857.473938,321
857.591614,308
857.709351,323
857.826965,305
857.944641,330
858.062317,315
858.179993,314
858.297668,305
858.415283,316
858.532959,323
858.650574,317
858.768188,311
858.885803,315
859.003479,310
859.121094,314
859.23877,315
859.356384,322
859.473999,329
859.591675,323
859.709229,329
859.826843,324
859.944458,310
860.062012,328
860.179626,319
860.297302,335
860.414856,315
860.532471,329
860.650024,314
860.767639,313
860.885193,309
861.002808,324
861.120361,318
861.237976,330
861.35553,320
861.473022,338
861.590698,316
861.708191,310
861.825745,316
861.943298,323
862.060852,322
862.178406,308
862.295959,311
862.413513,307
862.531006,298
862.64856,315
862.766113,321
862.883667,313
863.00116,313
863.118713,327
863.236206,318
863.353699,320
863.471252,310
863.588745,319
863.706177,309
863.82373,337
863.941162,306
864.058716,317
864.176208,315
864.29364,315
864.411194,320
864.528687,315
864.646118,307
864.763611,320
864.881042,322
864.998535,320
865.116028,319
865.233459,328
865.350891,317
865.468384,310
865.585754,312
865.703308,321
865.820679,314
865.938171,322
866.055542,309
866.173035,332
866.290466,320
866.407837,328
866.52533,326
866.6427,320
866.760071,322
866.877563,321
866.994934,326
867.112305,319
867.229736,317
867.347107,326
867.464539,330
867.58197,321
867.699341,306
867.81665,323
867.934082,316
868.051453,317
868.168823,313
868.286194,314
868.403564,313
868.520935,322
868.638306,327
868.755676,320
868.872986,317
868.990295,313
869.107727,312
869.225037,313
869.342346,308
869.459717,312
869.577026,300
869.694336,321
869.811707,316
869.929016,313
870.046326,313
870.163635,321
870.280945,309
870.398254,319
870.515564,320
870.632812,321
870.750183,307
870.867432,326
870.984741,320
871.102051,313
871.219299,316
871.336609,316
871.453918,314
871.571106,330
871.688416,309
871.805664,326
871.922852,306
872.040222,314
872.157471,320
872.274719,327
872.391968,331
872.509155,337
872.626465,310
872.743652,312
872.860962,314
872.978149,316
873.095337,314
873.212646,318
873.329834,317
873.44696,317
873.564209,326
873.681396,333
873.798645,317
873.915894,311
874.03302,312
874.150208,320
874.267456,318
874.384583,320
874.501831,321
874.618958,329
874.736145,323
874.853333,318
874.970459,323
875.087646,322
875.204834,314
875.32196,310
875.439148,311
875.556274,333
875.673401,318
875.790527,319
875.907715,332
876.024841,314
876.141968,325
876.259094,321
876.376282,324
876.493347,323
876.610474,319
876.7276,337
876.844727,313
876.961853,323
877.078918,324
877.195984,324
877.313171,329
877.430237,314
877.547302,308
877.664368,314
877.781433,313
877.898499,307
878.015625,324
878.13269,333
878.249695,328
878.366821,318
878.483887,324
878.600952,333
878.717957,314
878.834961,328
878.952087,327
879.069092,329
879.186157,322
879.303162,316
879.420227,310
879.537231,300
879.654236,302
879.77124,310
879.888306,316
880.005249,319
880.122314,307
880.239319,317
880.356323,320
880.473328,310
880.590271,311
880.707275,327
880.824341,308
880.941284,316
881.058228,308
881.175232,316
881.292236,308
881.40918,328
881.526123,315
881.643066,323
881.760071,317
881.877014,321
881.993958,321
882.11084,317
882.227783,298
882.344727,321
882.46167,313
882.578613,315
882.695618,304
882.812439,310
882.929382,315
883.046326,314
883.163208,316
883.280151,319
883.397034,312
883.513916,309
883.630798,306
883.747742,311
883.864563,331
883.981506,323
884.098389,325
884.21521,316
884.332153,320
884.448975,320
884.565796,315
884.682678,326
884.7995,313
884.916443,322
885.033264,325
885.150085,309
885.266968,310
885.383789,326
885.500671,317
885.617493,316
885.734314,317
885.851196,325
885.967896,315
886.084717,320
886.201599,311
886.318359,320
886.435181,313
886.552002,314
886.668762,318
886.785645,312
886.902344,317
887.019165,325
887.135925,317
887.252747,317
887.369446,313
887.486267,325
887.603027,321
887.719788,316
887.836548,313
887.953247,311
888.070068,305
888.186829,312
888.303528,320
888.420288,314
888.536987,320
888.653687,316
888.770447,321
888.887146,312
889.003967,318
889.120667,324
889.237305,310
889.354065,319
889.470703,304
889.587463,332
889.704163,314
889.820862,316
889.937561,321
890.054199,310
890.170837,317
890.287598,328
890.404236,313
890.520874,318
890.637634,311
890.754211,328
890.87085,323
890.987549,319
891.104187,322
891.220886,321
891.337463,329
891.454102,326
891.57074,324
891.687378,316
891.804077,313
891.920654,317
892.037231,328
892.15387,315
892.270447,307
892.387085,328
892.503723,310
892.6203,317
892.736877,324
892.853516,321
892.970032,315
893.08667,313
893.203186,316
893.319763,315
893.43634,329
893.552917,334
893.669556,310
893.786011,313
893.902588,324
894.019165,330
894.135681,323
894.252197,316
894.368835,311
894.485291,313
894.601868,313
894.718384,323
894.8349,321
894.951355,318
895.067932,296
895.184448,319
895.300964,308
895.417419,309
895.533936,310
895.650452,312
895.766907,322
895.883423,322
895.999878,312
896.116333,323
896.232849,318
896.349304,322
896.465759,313
896.582214,313
896.698669,325
896.815125,322
896.931641,303
897.048035,314
897.164551,324
897.280884,333
897.397339,324
897.513794,321
897.630249,317
897.746582,313
897.863098,307
897.979431,306
898.095886,314
898.212341,317
898.328674,324
898.445129,324
898.561462,310
898.677795,331
898.794312,319
898.910645,313
899.026978,315
899.143433,314
899.259766,323
899.37616,320
899.492493,305
899.608765,335
899.725159,320
899.841553,318
899.957947,318
900.07428,330
900.190552,314
900.306946,317
900.423157,333
900.53949,311
900.655884,313
900.772156,323
900.888489,310
901.004822,311
901.121033,320
901.237366,316
901.353699,322
901.46991,312
901.586304,329
901.702515,309
901.818787,318
901.93512,318
902.051331,311
902.167603,320
902.283875,321
902.400085,319
902.516418,314
902.632629,313
902.74884,303
902.865112,323
902.981384,318
903.097595,324
903.213867,318
903.330017,323
903.446289,307
903.5625,321
903.67865,311
903.794922,323
903.911072,311
904.027344,323
904.143494,316
904.259705,316
904.375916,319
904.492065,313
904.608215,321
904.724426,317
904.840576,325
904.956726,309
905.072876,310
905.189087,312
905.305176,319
905.421387,318
905.537537,321
905.653687,317
905.769775,305
905.885925,331
906.002014,316
906.118164,315
906.234314,326
906.350403,329
906.466492,325
906.582642,320
906.69873,324
906.814758,318
906.930908,305
907.046936,330
907.163086,327
907.279175,310
907.395264,318
907.511353,316
907.62738,305
907.743408,329
907.859497,325
907.975525,329
908.091553,304
908.207703,325
908.32373,320
908.439758,319
908.555786,324
908.671814,317
908.787842,316
908.90387,328
909.019775,318
909.135864,324
909.251892,310
909.367859,315
909.483826,322
909.599854,320
909.715881,317
909.831848,314
909.947815,318
910.063782,328
910.179749,328
910.295776,311
910.411743,314
910.527649,311
910.643616,312
910.759583,330
910.875488,318
910.991455,317
911.107361,313
911.223267,319
911.339294,323
911.4552,313
911.571106,315
911.687073,325
911.802979,317
911.918823,302
912.034729,326
912.150635,320
912.266602,305
912.382446,327
912.498352,313
912.614197,327
912.730103,302
912.846008,320
