792.44574,307
792.56488,354
792.68396,402
792.80304,397
792.92218,337
793.041199,312
793.160339,339
793.279419,344
793.398499,329
793.517578,315
793.636658,320
793.755737,342
793.874817,348
793.993896,334
794.112976,333
794.232056,328
794.351074,325
794.470215,323
794.589233,329
794.708313,328
794.827393,335
794.946411,325
795.065552,333
795.18457,334
795.303589,333
795.422668,337
795.541687,329
795.660767,324
795.779846,323
795.898865,323
796.017883,338
796.136963,333
796.255981,333
796.375061,332
796.49408,326
796.613037,325
796.732117,322
796.851135,341
796.970154,320
797.089233,342
797.208191,327
797.327271,334
797.446228,336
797.565186,330
797.684265,325
797.803223,320
797.922241,316
798.04126,327
798.160278,332
798.279297,334
798.398315,331
798.517273,334
798.636292,328
798.75531,328
798.874268,349
798.993286,333
799.112244,334
799.231323,325
799.350281,329
799.469238,320
799.588257,325
799.707153,328
799.826111,330
799.945129,338
800.064087,329
800.183044,330
800.302063,329
800.421021,322
800.539978,337
800.658936,327
800.777893,329
800.896912,326
801.015747,331
801.134705,330
801.253723,332
801.37262,337
801.491638,326
801.610535,321
801.729492,340
801.84845,327
801.967407,330
802.086243,325
802.205261,336
802.324158,331
802.443115,320
802.562073,341
802.680969,327
802.799927,323
802.918762,337
803.037659,332
803.156677,331
803.275574,335
803.39447,327
803.513428,322
803.632263,316
803.751221,329
803.870117,321
803.989014,328
804.107971,331
804.226746,344
804.345642,333
804.4646,340
804.583496,339
804.702393,312
804.821228,329
804.940125,330
805.059021,334
805.177917,335
805.296814,322
805.415649,331
805.534546,347
805.653442,337
805.772278,327
805.891113,333
806.01001,333
806.128906,325
806.247742,324
806.366577,330
806.485413,329
806.604309,344
806.723145,323
806.84198,353
806.960876,338
807.079712,338
807.198486,330
807.317383,336
807.436218,335
807.554993,339
807.673889,316
807.792725,331
807.91156,332
808.030396,337
808.14917,318
808.268005,329
808.386841,343
808.505676,333
808.624451,335
808.743286,319
808.862122,336
808.980896,330
809.099731,333
809.218506,321
809.337341,332
809.456116,328
809.57489,325
809.693726,328
809.8125,337
809.931274,329
810.050049,333
810.168884,342
810.287659,339
810.406372,332
810.525269,329
810.643982,334
810.762756,327
810.881531,336
811.000305,334
811.11908,342
811.237854,321
811.356567,336
811.475403,324
811.594116,328
811.71283,333
811.831604,338
811.950378,320
812.069153,342
812.187927,324
812.30658,330
812.425415,339
812.544128,347
812.662781,337
812.781616,328
812.900269,347
813.019043,349
813.137756,343
813.256531,339
813.375244,322
813.493896,334
813.612671,328
813.731384,333
813.850037,323
813.96875,340
814.087524,331
814.206238,339
814.324951,333
814.443604,340
814.562256,319
814.68103,348
814.799683,317
814.918335,345
815.037109,344
815.155762,334
815.274475,316
815.393188,320
815.511841,336
815.630554,337
815.749146,320
815.867859,312
815.986572,334
816.105164,334
816.223877,346
816.342529,343
816.461182,313
816.579895,346
816.698486,343
816.817139,318
816.935791,328
817.054504,331
817.173096,329
817.291748,323
817.4104,313
817.529053,328
817.647644,314
817.766235,327
817.884949,326
818.00354,334
818.122192,323
818.240845,328
818.359436,337
818.478088,330
818.59668,317
818.715271,335
818.833923,316
818.952515,330
819.071106,319
819.189758,316
819.30835,325
819.426941,320
819.545532,325
819.664124,324
819.782715,338
819.901306,324
820.019897,329
820.138489,315
820.25708,310
820.375671,322
820.494202,307
820.612732,325
820.731384,325
820.849915,321
820.968506,311
821.087097,310
821.205627,324
821.324158,315
821.442749,324
821.561279,314
821.679871,324
821.798401,322
821.916931,323
822.035461,325
822.154053,323
822.272583,325
822.391174,315
822.509583,323
822.628174,318
822.746704,325
822.865234,325
822.983765,322
823.102295,315
823.220825,338
823.339294,308
823.457825,323
823.576355,320
823.694824,314
823.813354,318
823.931885,330
824.050354,324
824.168884,317
824.287354,319
824.405823,330
824.524353,321
824.642822,332
824.761353,330
824.879822,327
824.998291,309
825.116699,314
825.235291,326
825.353699,332
825.472168,313
825.590637,312
825.709106,315
825.827576,311
825.946045,310
826.064453,324
826.182983,304
826.301392,314
826.4198,315
826.53833,324
826.656738,309
826.775208,310
826.893677,311
827.012024,316
827.130493,315
827.248962,319
827.36731,325
827.485779,322
827.604248,312
827.722595,333
827.841064,311
827.959412,319
828.077942,313
828.196289,305
828.314636,321
828.433105,310
828.551514,316
828.669861,320
828.78833,322
828.906677,308
829.025085,315
829.143433,329
829.261841,317
829.38031,311
829.498657,320
829.617004,323
829.735413,324
829.85376,308
829.972107,319
830.090515,318
830.208862,317
830.327209,319
830.445557,314
830.563904,315
830.682312,319
830.800659,319
830.919006,314
831.037354,323
831.155701,318
831.274048,315
831.392395,317
831.51062,322
831.629028,319
831.747314,307
831.865662,307
831.984009,326
832.102356,318
832.220642,317
832.338928,326
832.457275,326
832.575623,313
832.693909,321
832.812134,322
832.930481,330
833.048828,323
833.167114,319
833.2854,317
833.403687,315
833.521973,301
833.640259,315
833.758545,308
833.876831,316
833.995056,306
834.113281,324
834.231628,332
834.349915,306
834.468201,318
834.586426,330
834.704651,322
834.822998,322
834.941162,323
835.059448,317
835.177673,321
835.295959,314
835.414246,318
835.53241,318
835.650635,319
835.768921,330
835.887146,317
836.005371,307
836.123596,316
836.241821,313
836.360046,329
836.478271,316
836.596497,332
836.714722,326
836.832886,322
836.95105,311
837.069336,308
837.1875,329
837.305725,307
837.423889,322
837.542053,312
837.660339,306
837.778503,324
837.896667,324
838.014832,315
838.132996,313
838.25116,331
838.369385,341
838.487488,313
838.605713,329
838.723877,317
838.84198,328
838.960205,313
839.078308,300
839.196472,310
839.314636,313
839.4328,304
839.550964,315
839.669067,313
839.787231,328
839.905396,299
840.023499,316
840.141602,304
840.259766,325
840.377869,336
840.495972,317
840.614136,313
840.732239,313
840.850342,311
840.968445,319
841.086548,327
841.204651,320
841.322754,321
841.440918,317
841.55896,314
841.677002,315
841.795166,322
841.913208,325
842.031311,314
842.149353,318
842.267456,329
842.385498,322
842.503601,314
842.621643,319
842.739746,303
842.857788,317
842.97583,314
843.093933,313
843.211975,318
843.330017,303
843.44812,319
843.566101,322
843.684204,303
843.802246,317
843.920227,320
844.038269,333
844.156311,300
844.274292,307
844.392395,324
844.510376,328
844.628357,312
844.74646,325
844.864441,304
844.982422,311
845.100403,317
845.218384,309
845.336426,328
845.454468,320
845.572449,318
845.69043,322
845.808411,313
845.926453,322
846.044373,307
846.162354,307
846.280396,322
846.398315,327
846.516296,308
846.634216,326
846.752197,324
846.870178,315
846.988098,306
847.106079,320
847.22406,319
847.34198,314
847.4599,309
847.577881,321
847.695801,301
847.813782,315
847.931641,319
848.049561,305
848.167603,319
848.285461,310
848.403381,318
848.521362,333
848.639221,307
848.75708,325
848.875,312
848.99292,326
849.110901,321
849.22876,318
849.34668,316
849.464539,325
849.582458,316
849.700317,316
849.818176,320
849.936096,317
850.053955,318
850.171875,315
850.289673,300
850.407593,320
850.525452,317
850.643311,315
850.761169,332
850.878967,329
850.996887,311
851.114746,321
851.232544,312
851.350403,318
851.468262,320
851.58606,318
851.703979,310
851.821777,323
851.939636,322
852.057434,318
852.175232,333
852.293091,321
852.410889,310
852.528687,329
852.646545,310
852.764343,321
852.88208,315
852.999939,308
853.117676,317
853.235535,316
853.353271,321
853.471069,320
853.588928,310
853.706604,315
853.824402,321
853.9422,316
854.059998,324
854.177734,318
854.295532,319
854.413269,329
854.531006,318
854.648804,322
854.766541,311
854.884277,316
855.002014,312
855.119751,317
855.237549,321
855.355225,317
855.473022,322
855.590698,319
855.708435,305
855.826172,309
855.943848,323
856.061646,312
856.179321,310
856.296997,325
856.414795,318
856.53241,317
856.650085,326
856.767822,308
856.885559,312
857.003174,331
857.120911,313
857.238586,319
857.356201,326
857.473938,319
857.591614,311
857.709351,326
857.826965,316
857.944641,313
858.062317,312
858.179993,328
858.297668,329
858.415283,320
858.532959,304
858.650574,328
858.768188,308
858.885803,310
859.003479,312
859.121094,315
859.23877,313
859.356384,321
859.473999,315
859.591675,327
859.709229,319
859.826843,315
859.944458,314
860.062012,297
860.179626,308
860.297302,324
860.414856,307
860.532471,313
860.650024,316
860.767639,316
860.885193,308
861.002808,325
861.120361,315
861.237976,321
861.35553,310
861.473022,318
861.590698,329
861.708191,308
861.825745,319
861.943298,316
862.060852,309
862.178406,326
862.295959,326
862.413513,315
862.531006,311
862.64856,315
862.766113,312
862.883667,323
863.00116,314
863.118713,312
863.236206,297
863.353699,316
863.471252,329
863.588745,324
863.706177,327
863.82373,323
863.941162,330
864.058716,319
864.176208,317
864.29364,316
864.411194,315
864.528687,333
864.646118,312
864.763611,311
864.881042,318
864.998535,320
865.116028,323
865.233459,329
865.350891,315
865.468384,327
865.585754,313
865.703308,319
865.820679,308
865.938171,332
866.055542,323
866.173035,305
866.290466,310
866.407837,322
866.52533,311
866.6427,315
866.760071,318
866.877563,309
866.994934,314
867.112305,322
867.229736,320
867.347107,314
867.464539,318
867.58197,325
867.699341,318
867.81665,324
867.934082,314
868.051453,318
868.168823,318
868.286194,314
868.403564,321
868.520935,311
868.638306,311
868.755676,310
868.872986,319
868.990295,319
869.107727,316
869.225037,323
869.342346,322
869.459717,322
869.577026,298
869.694336,323
869.811707,320
869.929016,324
870.046326,314
870.163635,321
870.280945,310
870.398254,314
870.515564,321
870.632812,310
870.750183,312
870.867432,320
870.984741,314
871.102051,308
871.219299,310
871.336609,317
871.453918,315
871.571106,330
871.688416,324
871.805664,320
871.922852,315
872.040222,316
872.157471,313
872.274719,310
872.391968,304
872.509155,302
872.626465,315
872.743652,323
872.860962,314
872.978149,323
873.095337,312
873.212646,322
873.329834,320
873.44696,328
873.564209,318
873.681396,316
873.798645,318
873.915894,318
874.03302,321
874.150208,314
874.267456,328
874.384583,315
874.501831,318
874.618958,318
874.736145,314
874.853333,325
874.970459,326
875.087646,325
875.204834,317
875.32196,317
875.439148,312
875.556274,318
875.673401,330
875.790527,313
875.907715,316
876.024841,308
876.141968,310
876.259094,324
876.376282,331
876.493347,314
876.610474,314
876.7276,321
876.844727,325
876.961853,313
877.078918,316
877.195984,321
877.313171,310
877.430237,319
877.547302,319
877.664368,319
877.781433,318
877.898499,332
878.015625,321
878.13269,310
878.249695,301
878.366821,311
878.483887,309
878.600952,313
878.717957,312
878.834961,327
878.952087,310
879.069092,303
879.186157,319
879.303162,316
879.420227,308
879.537231,330
879.654236,314
879.77124,322
879.888306,326
880.005249,299
880.122314,329
880.239319,324
880.356323,309
880.473328,322
880.590271,305
880.707275,306
880.824341,318
880.941284,315
881.058228,305
881.175232,308
881.292236,313
881.40918,323
881.526123,315
881.643066,325
881.760071,320
881.877014,323
881.993958,329
882.11084,316
882.227783,323
882.344727,315
882.46167,333
882.578613,322
882.695618,310
882.812439,307
882.929382,319
883.046326,313
883.163208,309
883.280151,318
883.397034,319
883.513916,319
883.630798,322
883.747742,319
883.864563,312
883.981506,329
884.098389,304
884.21521,316
884.332153,311
884.448975,337
884.565796,317
884.682678,318
884.7995,313
884.916443,326
885.033264,326
885.150085,308
885.266968,302
885.383789,312
885.500671,316
885.617493,325
885.734314,312
885.851196,322
885.967896,327
886.084717,312
886.201599,328
886.318359,315
886.435181,333
886.552002,317
886.668762,306
886.785645,328
886.902344,323
887.019165,320
887.135925,325
887.252747,314
887.369446,306
887.486267,320
887.603027,313
887.719788,327
887.836548,310
887.953247,327
888.070068,308
888.186829,327
888.303528,314
888.420288,325
888.536987,313
888.653687,322
888.770447,320
888.887146,333
889.003967,314
889.120667,321
889.237305,331
889.354065,325
889.470703,319
889.587463,323
889.704163,314
889.820862,327
889.937561,310
890.054199,327
890.170837,311
890.287598,321
890.404236,320
890.520874,326
890.637634,317
890.754211,312
890.87085,314
890.987549,315
891.104187,320
891.220886,320
891.337463,321
891.454102,337
891.57074,326
891.687378,309
891.804077,311
891.920654,319
892.037231,332
892.15387,320
892.270447,320
892.387085,313
892.503723,304
892.6203,314
892.736877,332
892.853516,313
892.970032,313
893.08667,322
893.203186,308
893.319763,322
893.43634,315
893.552917,315
893.669556,324
893.786011,322
893.902588,310
894.019165,314
894.135681,310
894.252197,308
894.368835,324
894.485291,318
894.601868,316
894.718384,318
894.8349,309
894.951355,330
895.067932,315
895.184448,311
895.300964,319
895.417419,311
895.533936,309
895.650452,320
895.766907,321
895.883423,320
895.999878,317
896.116333,322
896.232849,312
896.349304,313
896.465759,307
896.582214,321
896.698669,316
896.815125,309
896.931641,318
897.048035,316
897.164551,322
897.280884,324
897.397339,298
897.513794,305
897.630249,310
897.746582,320
897.863098,317
897.979431,315
898.095886,322
898.212341,322
898.328674,321
898.445129,322
898.561462,331
898.677795,316
898.794312,322
898.910645,310
899.026978,310
899.143433,328
899.259766,308
899.37616,312
899.492493,315
899.608765,318
899.725159,310
899.841553,317
899.957947,322
900.07428,312
900.190552,322
900.306946,320
900.423157,314
900.53949,318
900.655884,318
900.772156,322
900.888489,309
901.004822,317
901.121033,316
901.237366,321
901.353699,318
901.46991,327
901.586304,320
901.702515,315
901.818787,322
901.93512,313
902.051331,320
902.167603,317
902.283875,324
902.400085,319
902.516418,326
902.632629,328
902.74884,321
902.865112,313
902.981384,313
903.097595,318
903.213867,310
903.330017,313
903.446289,333
903.5625,317
903.67865,318
903.794922,320
903.911072,317
904.027344,327
904.143494,334
904.259705,324
904.375916,315
904.492065,319
904.608215,309
904.724426,313
904.840576,329
904.956726,317
905.072876,331
905.189087,316
905.305176,310
905.421387,334
905.537537,307
905.653687,323
905.769775,331
905.885925,310
906.002014,317
906.118164,313
906.234314,304
906.350403,318
906.466492,324
906.582642,319
906.69873,311
906.814758,316
906.930908,325
907.046936,319
907.163086,318
907.279175,319
907.395264,320
907.511353,329
907.62738,318
907.743408,322
907.859497,316
907.975525,320
908.091553,333
908.207703,319
908.32373,318
908.439758,327
908.555786,309
908.671814,330
908.787842,324
908.90387,333
909.019775,316
909.135864,323
909.251892,326
909.367859,312
909.483826,319
909.599854,327
909.715881,316
909.831848,329
909.947815,322
910.063782,325
910.179749,317
910.295776,320
910.411743,316
910.527649,311
910.643616,315
910.759583,321
910.875488,311
910.991455,321
911.107361,321
911.223267,337
911.339294,313
911.4552,327
911.571106,317
911.687073,321
911.802979,320
911.918823,320
912.034729,315
912.150635,331
912.266602,317
912.382446,328
912.498352,317
912.614197,326
912.730103,315
912.846008,316
792.44574,312
792.56488,342
792.68396,394
792.80304,383
792.92218,338
793.041199,310
793.160339,321
793.279419,334
793.398499,320
793.517578,311
793.636658,319
793.755737,337
793.874817,360
793.993896,353
794.112976,339
794.232056,326
794.351074,305
794.470215,327
794.589233,320
794.708313,321
794.827393,340
794.946411,337
795.065552,336
795.18457,325
795.303589,336
795.422668,336
795.541687,314
795.660767,331
795.779846,341
795.898865,319
796.017883,320
796.136963,345
796.255981,321
796.375061,336
796.49408,320
796.613037,329
796.732117,328
796.851135,340
796.970154,318
797.089233,334
797.208191,336
797.327271,319
797.446228,340
797.565186,325
797.684265,327
797.803223,327
797.922241,319
798.04126,325
798.160278,328
798.279297,332
798.398315,346
798.517273,340
798.636292,336
798.75531,344
798.874268,331
798.993286,326
799.112244,333
799.231323,330
799.350281,316
799.469238,337
799.588257,321
799.707153,333
799.826111,317
799.945129,338
800.064087,327
800.183044,311
800.302063,331
800.421021,335
800.539978,328
800.658936,319
800.777893,321
800.896912,333
801.015747,322
801.134705,324
801.253723,328
801.37262,331
801.491638,327
801.610535,328
801.729492,323
801.84845,321
801.967407,322
802.086243,337
802.205261,327
802.324158,341
802.443115,333
802.562073,330
802.680969,332
802.799927,329
802.918762,332
803.037659,335
803.156677,324
803.275574,317
803.39447,333
803.513428,338
803.632263,335
803.751221,330
803.870117,331
803.989014,336
804.107971,322
804.226746,334
804.345642,323
804.4646,330
804.583496,323
804.702393,323
804.821228,332
804.940125,330
805.059021,324
805.177917,322
805.296814,332
805.415649,322
805.534546,338
805.653442,332
805.772278,334
805.891113,335
806.01001,323
806.128906,329
806.247742,332
806.366577,333
806.485413,330
806.604309,324
806.723145,335
806.84198,338
806.960876,328
807.079712,343
807.198486,327
807.317383,325
807.436218,338
807.554993,324
807.673889,323
807.792725,331
807.91156,337
808.030396,316
808.14917,326
808.268005,325
808.386841,322
808.505676,337
808.624451,318
808.743286,332
808.862122,321
808.980896,329
809.099731,335
809.218506,337
809.337341,342
809.456116,323
809.57489,323
809.693726,329
809.8125,334
809.931274,332
810.050049,332
810.168884,329
810.287659,331
810.406372,329
810.525269,327
810.643982,322
810.762756,329
810.881531,328
811.000305,327
811.11908,323
811.237854,334
811.356567,327
811.475403,332
811.594116,321
811.71283,331
811.831604,330
811.950378,322
812.069153,333
812.187927,325
812.30658,343
812.425415,332
812.544128,338
812.662781,326
812.781616,346
812.900269,337
813.019043,344
813.137756,335
813.256531,341
813.375244,313
813.493896,337
813.612671,324
813.731384,355
813.850037,310
813.96875,344
814.087524,330
814.206238,327
814.324951,341
814.443604,322
814.562256,320
814.68103,335
814.799683,335
814.918335,339
815.037109,336
815.155762,347
815.274475,341
815.393188,341
815.511841,316
815.630554,334
815.749146,331
815.867859,342
815.986572,332
816.105164,322
816.223877,340
816.342529,328
816.461182,316
816.579895,329
816.698486,343
816.817139,341
816.935791,327
817.054504,332
817.173096,321
817.291748,338
817.4104,338
817.529053,337
817.647644,337
817.766235,321
817.884949,327
818.00354,327
818.122192,324
818.240845,327
818.359436,320
818.478088,328
818.59668,314
818.715271,329
818.833923,328
818.952515,308
819.071106,320
819.189758,320
819.30835,317
819.426941,319
819.545532,310
819.664124,317
819.782715,319
819.901306,310
820.019897,325
820.138489,314
820.25708,310
820.375671,322
820.494202,308
820.612732,313
820.731384,307
820.849915,330
820.968506,321
821.087097,314
821.205627,306
821.324158,313
821.442749,324
821.561279,306
821.679871,318
821.798401,323
821.916931,311
822.035461,324
822.154053,323
822.272583,325
822.391174,316
822.509583,323
822.628174,328
822.746704,328
822.865234,303
822.983765,321
823.102295,316
823.220825,326
823.339294,323
823.457825,306
823.576355,316
823.694824,316
823.813354,316
823.931885,326
824.050354,305
824.168884,325
824.287354,323
824.405823,309
824.524353,324
824.642822,318
824.761353,323
824.879822,327
824.998291,322
825.116699,324
825.235291,321
825.353699,319
825.472168,308
825.590637,311
825.709106,321
825.827576,306
825.946045,317
826.064453,328
826.182983,307
826.301392,321
826.4198,328
826.53833,319
826.656738,323
826.775208,328
826.893677,328
827.012024,317
827.130493,326
827.248962,312
827.36731,322
827.485779,323
827.604248,303
827.722595,329
827.841064,305
827.959412,318
828.077942,321
828.196289,316
828.314636,318
828.433105,315
828.551514,315
828.669861,318
828.78833,310
828.906677,315
829.025085,329
829.143433,320
829.261841,318
829.38031,325
829.498657,327
829.617004,333
829.735413,315
829.85376,318
829.972107,314
830.090515,321
830.208862,312
830.327209,323
830.445557,330
830.563904,317
830.682312,322
830.800659,325
830.919006,307
831.037354,323
831.155701,329
831.274048,315
831.392395,313
831.51062,334
831.629028,306
831.747314,306
831.865662,320
831.984009,303
832.102356,318
832.220642,328
832.338928,312
832.457275,309
832.575623,313
832.693909,337
832.812134,320
832.930481,319
833.048828,311
833.167114,319
833.2854,306
833.403687,331
833.521973,307
833.640259,319
833.758545,320
833.876831,326
833.995056,319
834.113281,324
834.231628,311
834.349915,308
834.468201,319
834.586426,318
834.704651,304
834.822998,319
834.941162,311
835.059448,325
835.177673,317
835.295959,319
835.414246,334
835.53241,313
835.650635,310
835.768921,314
835.887146,322
836.005371,313
836.123596,307
836.241821,321
836.360046,328
836.478271,326
836.596497,335
836.714722,316
836.832886,311
836.95105,319
837.069336,329
837.1875,318
837.305725,318
837.423889,327
837.542053,314
837.660339,312
837.778503,320
837.896667,322
838.014832,317
838.132996,311
838.25116,327
838.369385,319
838.487488,333
838.605713,329
838.723877,324
838.84198,331
838.960205,311
839.078308,330
839.196472,307
839.314636,321
839.4328,320
839.550964,320
839.669067,319
839.787231,313
839.905396,323
840.023499,319
840.141602,309
840.259766,315
840.377869,313
840.495972,318
840.614136,323
840.732239,332
840.850342,305
840.968445,317
841.086548,326
841.204651,308
841.322754,311
841.440918,323
841.55896,323
841.677002,326
841.795166,308
841.913208,317
842.031311,310
842.149353,318
842.267456,306
842.385498,326
842.503601,321
842.621643,310
842.739746,317
842.857788,323
842.97583,315
843.093933,327
843.211975,309
843.330017,308
843.44812,325
843.566101,305
843.684204,313
843.802246,330
843.920227,314
844.038269,322
844.156311,306
844.274292,314
844.392395,304
844.510376,318
844.628357,314
844.74646,312
844.864441,316
844.982422,311
845.100403,304
845.218384,323
845.336426,314
845.454468,317
845.572449,316
845.69043,313
845.808411,328
845.926453,316
846.044373,320
846.162354,317
846.280396,311
846.398315,309
846.516296,311
846.634216,308
846.752197,319
846.870178,318
846.988098,317
847.106079,316
847.22406,319
847.34198,311
847.4599,317
847.577881,325
847.695801,311
847.813782,330
847.931641,316
848.049561,324
848.167603,308
848.285461,321
848.403381,315
848.521362,315
848.639221,327
848.75708,314
848.875,317
848.99292,312
849.110901,317
849.22876,310
849.34668,320
849.464539,313
849.582458,325
849.700317,329
849.818176,322
849.936096,317
850.053955,315
850.171875,320
850.289673,314
850.407593,304
850.525452,318
850.643311,301
850.761169,305
850.878967,307
850.996887,328
851.114746,330
851.232544,324
851.350403,313
851.468262,304
851.58606,324
851.703979,320
851.821777,312
851.939636,313
852.057434,320
852.175232,311
852.293091,313
852.410889,320
852.528687,317
852.646545,308
852.764343,326
852.88208,322
852.999939,313
853.117676,326
853.235535,312
853.353271,314
853.471069,315
853.588928,319
853.706604,309
853.824402,314
853.9422,314
854.059998,321
854.177734,320
854.295532,327
854.413269,330
854.531006,309
854.648804,319
854.766541,316
854.884277,306
855.002014,299
855.119751,318
855.237549,330
855.355225,313
855.473022,323
855.590698,321
855.708435,311
855.826172,322
855.943848,301
856.061646,319
856.179321,313
856.296997,308
856.414795,313
856.53241,319
856.650085,300
856.767822,326
856.885559,310
857.003174,316
857.120911,311
857.238586,322
857.356201,311
857.473938,314
857.591614,329
857.709351,309
857.826965,316
857.944641,326
858.062317,308
858.179993,320
858.297668,305
858.415283,323
858.532959,315
858.650574,304
858.768188,307
858.885803,331
859.003479,312
859.121094,315
859.23877,327
859.356384,316
859.473999,306
859.591675,317
859.709229,310
859.826843,319
859.944458,318
860.062012,308
860.179626,313
860.297302,311
860.414856,314
860.532471,312
860.650024,313
860.767639,328
860.885193,325
861.002808,331
861.120361,318
861.237976,315
861.35553,328
861.473022,317
861.590698,319
861.708191,317
861.825745,316
861.943298,311
862.060852,309
862.178406,311
862.295959,318
862.413513,316
862.531006,317
862.64856,311
862.766113,299
862.883667,315
863.00116,326
863.118713,323
863.236206,315
863.353699,326
863.471252,314
863.588745,322
863.706177,323
863.82373,326
863.941162,322
864.058716,338
864.176208,318
864.29364,319
864.411194,307
864.528687,320
864.646118,308
864.763611,327
864.881042,327
864.998535,312
865.116028,328
865.233459,317
865.350891,300
865.468384,321
865.585754,309
865.703308,324
865.820679,310
865.938171,305
866.055542,316
866.173035,319
866.290466,305
866.407837,321
866.52533,313
866.6427,313
866.760071,312
866.877563,326
866.994934,307
867.112305,319
867.229736,314
867.347107,319
867.464539,322
867.58197,329
867.699341,314
867.81665,326
867.934082,303
868.051453,316
868.168823,300
868.286194,320
868.403564,318
868.520935,320
868.638306,317
868.755676,320
868.872986,314
868.990295,311
869.107727,315
869.225037,323
869.342346,329
869.459717,307
869.577026,315
869.694336,325
869.811707,313
869.929016,322
870.046326,313
870.163635,313
870.280945,328
870.398254,305
870.515564,320
870.632812,322
870.750183,323
870.867432,316
870.984741,319
871.102051,316
871.219299,322
871.336609,315
871.453918,321
871.571106,322
871.688416,319
871.805664,316
871.922852,319
872.040222,322
872.157471,316
872.274719,320
872.391968,318
872.509155,323
872.626465,301
872.743652,319
872.860962,308
872.978149,310
873.095337,316
873.212646,313
873.329834,316
873.44696,319
873.564209,310
873.681396,331
873.798645,320
873.915894,329
874.03302,308
874.150208,310
874.267456,316
874.384583,318
874.501831,317
874.618958,327
874.736145,323
874.853333,325
874.970459,311
875.087646,318
875.204834,309
875.32196,323
875.439148,315
875.556274,323
875.673401,316
875.790527,305
875.907715,310
876.024841,330
876.141968,314
876.259094,331
876.376282,311
876.493347,318
876.610474,321
876.7276,304
876.844727,324
876.961853,328
877.078918,318
877.195984,328
877.313171,318
877.430237,322
877.547302,322
877.664368,322
877.781433,312
877.898499,312
878.015625,314
878.13269,318
878.249695,326
878.366821,331
878.483887,327
878.600952,318
878.717957,321
878.834961,302
878.952087,307
879.069092,313
879.186157,330
879.303162,311
879.420227,318
879.537231,333
879.654236,318
879.77124,313
879.888306,312
880.005249,311
880.122314,310
880.239319,314
880.356323,308
880.473328,322
880.590271,316
880.707275,317
880.824341,311
880.941284,315
881.058228,320
881.175232,314
881.292236,327
881.40918,321
881.526123,324
881.643066,316
881.760071,303
881.877014,316
881.993958,317
882.11084,320
882.227783,312
882.344727,319
882.46167,311
882.578613,315
882.695618,325
882.812439,323
882.929382,304
883.046326,317
883.163208,309
883.280151,322
883.397034,302
883.513916,317
883.630798,305
883.747742,308
883.864563,311
883.981506,319
884.098389,318
884.21521,323
884.332153,324
884.448975,325
884.565796,319
884.682678,312
884.7995,330
884.916443,315
885.033264,316
885.150085,329
885.266968,311
885.383789,330
885.500671,307
885.617493,335
885.734314,311
885.851196,314
885.967896,309
886.084717,328
886.201599,312
886.318359,302
886.435181,316
886.552002,311
886.668762,313
886.785645,319
886.902344,317
887.019165,324
887.135925,305
887.252747,313
887.369446,320
887.486267,321
887.603027,312
887.719788,310
887.836548,324
887.953247,316
888.070068,314
888.186829,307
888.303528,317
888.420288,320
888.536987,326
888.653687,317
888.770447,305
888.887146,322
889.003967,306
889.120667,328
889.237305,303
889.354065,314
889.470703,330
889.587463,316
889.704163,301
889.820862,318
889.937561,300
890.054199,321
890.170837,323
890.287598,322
890.404236,314
890.520874,319
890.637634,321
890.754211,308
890.87085,320
890.987549,309
891.104187,318
891.220886,311
891.337463,314
891.454102,322
891.57074,322
891.687378,320
891.804077,308
891.920654,317
892.037231,324
892.15387,314
892.270447,326
892.387085,318
892.503723,318
892.6203,320
892.736877,326
892.853516,313
892.970032,312
893.08667,306
893.203186,326
893.319763,315
893.43634,313
893.552917,326
893.669556,305
893.786011,305
893.902588,328
894.019165,307
894.135681,329
894.252197,324
894.368835,324
894.485291,322
894.601868,323
894.718384,319
894.8349,318
894.951355,332
895.067932,311
895.184448,309
895.300964,302
895.417419,311
895.533936,315
895.650452,326
895.766907,304
895.883423,319
895.999878,311
896.116333,316
896.232849,321
896.349304,325
896.465759,312
896.582214,318
896.698669,311
896.815125,322
896.931641,315
897.048035,308
897.164551,324
897.280884,321
897.397339,315
897.513794,325
897.630249,332
897.746582,311
897.863098,305
897.979431,315
898.095886,317
898.212341,314
898.328674,307
898.445129,315
898.561462,319
898.677795,320
898.794312,315
898.910645,322
899.026978,323
899.143433,330
899.259766,319
899.37616,329
899.492493,307
899.608765,336
899.725159,334
899.841553,313
899.957947,326
900.07428,327
900.190552,330
900.306946,318
900.423157,318
900.53949,322
900.655884,319
900.772156,318
900.888489,313
901.004822,320
901.121033,325
901.237366,327
901.353699,321
901.46991,319
901.586304,317
901.702515,331
901.818787,304
901.93512,318
902.051331,306
902.167603,328
902.283875,321
902.400085,323
902.516418,314
902.632629,312
902.74884,325
902.865112,329
902.981384,325
903.097595,322
903.213867,320
903.330017,326
903.446289,297
903.5625,328
903.67865,319
903.794922,315
903.911072,312
904.027344,325
904.143494,320
904.259705,313
904.375916,308
904.492065,320
904.608215,315
904.724426,325
904.840576,324
904.956726,326
905.072876,307
905.189087,321
905.305176,314
905.421387,330
905.537537,305
905.653687,305
905.769775,320
905.885925,310
906.002014,320
906.118164,324
906.234314,328
906.350403,341
906.466492,323
906.582642,313
906.69873,317
906.814758,303
906.930908,323
907.046936,323
907.163086,317
907.279175,311
907.395264,308
907.511353,309
907.62738,318
907.743408,330
907.859497,327
907.975525,323
908.091553,326
908.207703,314
908.32373,315
908.439758,325
908.555786,318
908.671814,328
908.787842,316
908.90387,320
909.019775,314
909.135864,311
909.251892,317
909.367859,324
909.483826,330
909.599854,305
909.715881,319
909.831848,322
909.947815,314
910.063782,325
910.179749,321
910.295776,309
910.411743,316
910.527649,324
910.643616,304
910.759583,327
910.875488,312
910.991455,332
911.107361,328
911.223267,316
911.339294,322
911.4552,314
911.571106,315
911.687073,318
911.802979,317
911.918823,320
912.034729,307
912.150635,320
912.266602,318
912.382446,325
912.498352,315
912.614197,322
912.730103,301
912.846008,314
792.44574,323
792.56488,350
792.68396,389
792.80304,374
792.92218,330
793.041199,310
793.160339,316
793.279419,332
793.398499,325
793.517578,313
793.636658,310
793.755737,329
793.874817,350
793.993896,348
794.112976,318
794.232056,328
794.351074,328
794.470215,338
794.589233,322
794.708313,318
794.827393,340
794.946411,328
795.065552,324
795.18457,341
795.303589,340
795.422668,334
795.541687,323
795.660767,336
795.779846,331
795.898865,333
796.017883,326
796.136963,345
796.255981,327
796.375061,313
796.49408,340
796.613037,322
796.732117,330
796.851135,330
796.970154,335
797.089233,331
797.208191,335
797.327271,328
797.446228,325
797.565186,327
797.684265,323
797.803223,325
797.922241,328
798.04126,327
798.160278,338
798.279297,321
798.398315,350
798.517273,323
798.636292,327
798.75531,319
798.874268,335
798.993286,321
799.112244,335
799.231323,335
799.350281,333
799.469238,331
799.588257,334
799.707153,321
799.826111,331
799.945129,323
800.064087,337
800.183044,315
800.302063,336
800.421021,340
800.539978,345
800.658936,339
800.777893,349
800.896912,312
801.015747,323
801.134705,344
801.253723,342
801.37262,317
801.491638,329
801.610535,330
801.729492,338
801.84845,335
801.967407,335
802.086243,352
802.205261,335
802.324158,320
802.443115,327
802.562073,327
802.680969,334
802.799927,326
802.918762,345
803.037659,309
803.156677,334
803.275574,329
803.39447,335
803.513428,329
803.632263,327
803.751221,330
803.870117,338
803.989014,327
804.107971,339
804.226746,324
804.345642,326
804.4646,316
804.583496,329
804.702393,329
804.821228,343
804.940125,319
805.059021,322
805.177917,321
805.296814,317
805.415649,324
805.534546,317
805.653442,334
805.772278,308
805.891113,320
806.01001,330
806.128906,338
806.247742,331
806.366577,336
806.485413,332
806.604309,334
806.723145,337
806.84198,328
806.960876,314
807.079712,330
807.198486,342
807.317383,332
807.436218,328
807.554993,330
807.673889,323
807.792725,337
807.91156,334
808.030396,330
808.14917,341
808.268005,318
808.386841,345
808.505676,333
808.624451,338
808.743286,321
808.862122,337
808.980896,314
809.099731,327
809.218506,317
809.337341,337
809.456116,320
809.57489,319
809.693726,337
809.8125,329
809.931274,324
810.050049,325
810.168884,332
810.287659,323
810.406372,338
810.525269,346
810.643982,329
810.762756,330
810.881531,344
811.000305,338
811.11908,333
811.237854,338
811.356567,324
811.475403,321
811.594116,327
811.71283,339
811.831604,337
811.950378,325
812.069153,313
812.187927,333
812.30658,323
812.425415,352
812.544128,318
812.662781,338
812.781616,346
812.900269,334
813.019043,340
813.137756,328
813.256531,340
813.375244,326
813.493896,344
813.612671,340
813.731384,321
813.850037,340
813.96875,313
814.087524,353
814.206238,313
814.324951,343
814.443604,324
814.562256,313
814.68103,332
814.799683,329
814.918335,325
815.037109,328
815.155762,331
815.274475,335
815.393188,336
815.511841,322
815.630554,326
815.749146,321
815.867859,336
815.986572,331
816.105164,322
816.223877,324
816.342529,326
816.461182,339
816.579895,331
816.698486,321
816.817139,340
816.935791,339
817.054504,331
817.173096,332
817.291748,325
817.4104,320
817.529053,327
817.647644,329
817.766235,323
817.884949,321
818.00354,315
818.122192,331
818.240845,327
818.359436,329
818.478088,329
818.59668,320
818.715271,322
818.833923,320
818.952515,320
819.071106,343
819.189758,315
819.30835,321
819.426941,316
819.545532,325
819.664124,328
819.782715,322
819.901306,330
820.019897,327
820.138489,301
820.25708,305
820.375671,329
820.494202,298
820.612732,315
820.731384,333
820.849915,309
820.968506,322
821.087097,315
821.205627,326
821.324158,308
821.442749,329
821.561279,317
821.679871,317
821.798401,319
821.916931,317
822.035461,315
822.154053,332
822.272583,325
822.391174,329
822.509583,316
822.628174,322
822.746704,323
822.865234,329
822.983765,318
823.102295,322
823.220825,323
823.339294,313
823.457825,319
823.576355,314
823.694824,315
823.813354,324
823.931885,310
824.050354,313
824.168884,312
824.287354,332
824.405823,317
824.524353,315
824.642822,336
824.761353,311
824.879822,321
824.998291,323
825.116699,318
825.235291,322
825.353699,312
825.472168,320
825.590637,327
825.709106,321
825.827576,318
825.946045,305
826.064453,309
826.182983,322
826.301392,310
826.4198,312
826.53833,315
826.656738,314
826.775208,330
826.893677,317
827.012024,319
827.130493,317
827.248962,323
827.36731,317
827.485779,321
827.604248,316
827.722595,318
827.841064,308
827.959412,310
828.077942,321
828.196289,307
828.314636,293
828.433105,330
828.551514,321
828.669861,311
828.78833,327
828.906677,323
829.025085,315
829.143433,329
829.261841,314
829.38031,322
829.498657,323
829.617004,317
829.735413,311
829.85376,291
829.972107,310
830.090515,327
830.208862,319
830.327209,320
830.445557,327
830.563904,310
830.682312,326
830.800659,324
830.919006,317
831.037354,315
831.155701,332
831.274048,307
831.392395,320
831.51062,315
831.629028,321
831.747314,307
831.865662,316
831.984009,303
832.102356,310
832.220642,313
832.338928,306
832.457275,319
832.575623,315
832.693909,303
832.812134,311
832.930481,323
833.048828,314
833.167114,310
833.2854,320
833.403687,324
833.521973,315
833.640259,314
833.758545,319
833.876831,329
833.995056,319
834.113281,315
834.231628,314
834.349915,311
834.468201,299
834.586426,305
834.704651,324
834.822998,322
834.941162,321
835.059448,310
835.177673,315
835.295959,323
835.414246,327
835.53241,328
835.650635,327
835.768921,309
835.887146,319
836.005371,308
836.123596,318
836.241821,316
836.360046,296
836.478271,316
836.596497,314
836.714722,322
836.832886,315
836.95105,311
837.069336,341
837.1875,313
837.305725,329
837.423889,328
837.542053,317
837.660339,319
837.778503,320
837.896667,312
838.014832,324
838.132996,309
838.25116,308
838.369385,325
838.487488,326
838.605713,325
838.723877,331
838.84198,323
838.960205,324
839.078308,326
839.196472,312
839.314636,330
839.4328,317
839.550964,318
839.669067,316
839.787231,315
839.905396,326
840.023499,313
840.141602,326
840.259766,322
840.377869,307
840.495972,325
840.614136,308
840.732239,319
840.850342,302
840.968445,309
841.086548,320
841.204651,315
841.322754,325
841.440918,316
841.55896,331
841.677002,318
841.795166,323
841.913208,307
842.031311,318
842.149353,311
842.267456,324
842.385498,309
842.503601,311
842.621643,318
842.739746,315
842.857788,311
842.97583,313
843.093933,316
843.211975,307
843.330017,312
843.44812,325
843.566101,318
843.684204,317
843.802246,323
843.920227,307
844.038269,316
844.156311,324
844.274292,316
844.392395,308
844.510376,331
844.628357,319
844.74646,310
844.864441,320
844.982422,311
845.100403,324
845.218384,321
845.336426,302
845.454468,308
845.572449,320
845.69043,317
845.808411,311
845.926453,319
846.044373,327
846.162354,324
846.280396,320
846.398315,315
846.516296,308
846.634216,312
846.752197,310
846.870178,302
846.988098,319
847.106079,305
847.22406,318
847.34198,316
847.4599,318
847.577881,294
847.695801,324
847.813782,316
847.931641,316
848.049561,313
848.167603,323
848.285461,323
848.403381,320
848.521362,325
848.639221,318
848.75708,329
848.875,319
848.99292,314
849.110901,315
849.22876,305
849.34668,320
849.464539,310
849.582458,313
849.700317,311
849.818176,322
849.936096,318
850.053955,325
850.171875,316
850.289673,330
850.407593,307
850.525452,327
850.643311,311
850.761169,314
850.878967,315
850.996887,322
851.114746,322
851.232544,325
851.350403,310
851.468262,308
851.58606,304
851.703979,330
851.821777,316
851.939636,317
852.057434,324
852.175232,324
852.293091,308
852.410889,300
852.528687,308
852.646545,318
852.764343,318
852.88208,320
852.999939,304
853.117676,320
853.235535,315
853.353271,324
853.471069,320
853.588928,319
853.706604,300
853.824402,303
853.9422,318
854.059998,309
854.177734,316
854.295532,307
854.413269,308
854.531006,331
854.648804,310
854.766541,319
854.884277,307
855.002014,319
855.119751,311
855.237549,323
855.355225,319
855.473022,323
855.590698,322
855.708435,324
855.826172,312
855.943848,323
856.061646,312
856.179321,311
856.296997,314
856.414795,329
856.53241,304
856.650085,304
856.767822,327
856.885559,325
857.003174,329
857.120911,321
857.238586,307
857.356201,318
857.473938,313
857.591614,327
857.709351,314
857.826965,320
857.944641,307
858.062317,321
858.179993,314
858.297668,315
858.415283,292
858.532959,328
858.650574,321
858.768188,318
858.885803,313
859.003479,317
859.121094,310
859.23877,321
859.356384,317
859.473999,314
859.591675,306
859.709229,308
859.826843,317
859.944458,312
860.062012,303
860.179626,322
860.297302,312
860.414856,308
860.532471,307
860.650024,322
860.767639,302
860.885193,316
861.002808,308
861.120361,323
861.237976,302
861.35553,327
861.473022,322
861.590698,329
861.708191,322
861.825745,322
861.943298,308
862.060852,320
862.178406,311
862.295959,314
862.413513,314
862.531006,327
862.64856,320
862.766113,315
862.883667,311
863.00116,310
863.118713,307
863.236206,329
863.353699,306
863.471252,331
863.588745,313
863.706177,323
863.82373,307
863.941162,335
864.058716,316
864.176208,315
864.29364,309
864.411194,328
864.528687,310
864.646118,323
864.763611,325
864.881042,326
864.998535,309
865.116028,325
865.233459,316
865.350891,310
865.468384,326
865.585754,318
865.703308,305
865.820679,314
865.938171,317
866.055542,304
866.173035,313
866.290466,308
866.407837,313
866.52533,315
866.6427,324
866.760071,331
866.877563,314
866.994934,316
867.112305,316
867.229736,312
867.347107,320
867.464539,314
867.58197,322
867.699341,328
867.81665,316
867.934082,316
868.051453,309
868.168823,326
868.286194,315
868.403564,322
868.520935,323
868.638306,317
868.755676,302
868.872986,328
868.990295,321
869.107727,316
869.225037,308
869.342346,313
869.459717,317
869.577026,331
869.694336,326
869.811707,323
869.929016,308
870.046326,307
870.163635,301
870.280945,327
870.398254,313
870.515564,323
870.632812,321
870.750183,312
870.867432,311
870.984741,311
871.102051,318
871.219299,326
871.336609,299
871.453918,326
871.571106,314
871.688416,312
871.805664,322
871.922852,324
872.040222,307
872.157471,318
872.274719,323
872.391968,329
872.509155,309
872.626465,316
872.743652,305
872.860962,329
872.978149,311
873.095337,318
873.212646,324
873.329834,316
873.44696,316
873.564209,310
873.681396,305
873.798645,317
873.915894,307
874.03302,328
874.150208,322
874.267456,317
874.384583,312
874.501831,299
874.618958,313
874.736145,320
874.853333,299
874.970459,302
875.087646,322
875.204834,316
875.32196,311
875.439148,315
875.556274,309
875.673401,326
875.790527,312
875.907715,317
876.024841,323
876.141968,313
876.259094,311
876.376282,318
876.493347,316
876.610474,319
876.7276,310
876.844727,308
876.961853,319
877.078918,323
877.195984,302
877.313171,311
877.430237,316
877.547302,320
877.664368,316
877.781433,320
877.898499,312
878.015625,318
878.13269,303
878.249695,328
878.366821,305
878.483887,325
878.600952,303
878.717957,311
878.834961,314
878.952087,322
879.069092,313
879.186157,313
879.303162,327
879.420227,315
879.537231,306
879.654236,322
879.77124,302
879.888306,321
880.005249,313
880.122314,323
880.239319,315
880.356323,330
880.473328,312
880.590271,321
880.707275,300
880.824341,319
880.941284,307
881.058228,313
881.175232,318
881.292236,321
881.40918,316
881.526123,308
881.643066,318
881.760071,331
881.877014,315
881.993958,329
882.11084,314
882.227783,303
882.344727,317
882.46167,310
882.578613,321
882.695618,331
882.812439,329
882.929382,312
883.046326,305
883.163208,309
883.280151,313
883.397034,313
883.513916,315
883.630798,322
883.747742,333
883.864563,322
883.981506,309
884.098389,319
884.21521,307
884.332153,328
884.448975,306
884.565796,320
884.682678,320
884.7995,311
884.916443,314
885.033264,319
885.150085,325
885.266968,323
885.383789,323
885.500671,324
885.617493,313
885.734314,334
885.851196,322
885.967896,315
886.084717,312
886.201599,324
886.318359,320
886.435181,332
886.552002,320
886.668762,326
886.785645,318
886.902344,333
887.019165,320
887.135925,317
887.252747,306
887.369446,307
887.486267,304
887.603027,314
887.719788,317
887.836548,325
887.953247,305
888.070068,326
888.186829,316
888.303528,310
888.420288,320
888.536987,320
888.653687,309
888.770447,312
888.887146,311
889.003967,323
889.120667,325
889.237305,320
889.354065,303
889.470703,322
889.587463,324
889.704163,315
889.820862,299
889.937561,316
890.054199,308
890.170837,327
890.287598,312
890.404236,309
890.520874,307
890.637634,308
890.754211,303
890.87085,319
890.987549,317
891.104187,326
891.220886,321
891.337463,322
891.454102,323
891.57074,324
891.687378,317
891.804077,327
891.920654,317
892.037231,326
892.15387,315
892.270447,311
892.387085,317
892.503723,321
892.6203,306
892.736877,320
892.853516,300
892.970032,320
893.08667,318
893.203186,308
893.319763,333
893.43634,318
893.552917,315
893.669556,323
893.786011,311
893.902588,329
894.019165,319
894.135681,316
894.252197,305
894.368835,329
894.485291,302
894.601868,323
894.718384,315
894.8349,298
894.951355,306
895.067932,318
895.184448,314
895.300964,313
895.417419,318
895.533936,323
895.650452,306
895.766907,327
895.883423,302
895.999878,323
896.116333,297
896.232849,324
896.349304,320
896.465759,318
896.582214,310
896.698669,313
896.815125,304
896.931641,321
897.048035,311
897.164551,324
897.280884,314
897.397339,315
897.513794,323
897.630249,301
897.746582,316
897.863098,327
897.979431,306
898.095886,320
898.212341,316
898.328674,323
898.445129,312
898.561462,320
898.677795,327
898.794312,322
898.910645,309
899.026978,323
899.143433,309
899.259766,318
899.37616,321
899.492493,325
899.608765,302
899.725159,320
899.841553,330
899.957947,314
900.07428,319
900.190552,316
900.306946,327
900.423157,315
900.53949,307
900.655884,322
900.772156,314
900.888489,306
901.004822,308
901.121033,310
901.237366,309
901.353699,316
901.46991,314
901.586304,320
901.702515,310
901.818787,314
901.93512,308
902.051331,318
902.167603,323
902.283875,322
902.400085,317
902.516418,306
902.632629,315
902.74884,331
902.865112,318
902.981384,316
903.097595,320
903.213867,323
903.330017,307
903.446289,316
903.5625,305
903.67865,323
903.794922,316
903.911072,337
904.027344,309
904.143494,316
904.259705,317
904.375916,335
904.492065,325
904.608215,313
904.724426,310
904.840576,331
904.956726,307
905.072876,312
905.189087,320
905.305176,332
905.421387,309
905.537537,341
905.653687,305
905.769775,323
905.885925,319
906.002014,320
906.118164,315
906.234314,322
906.350403,323
906.466492,324
906.582642,317
906.69873,325
906.814758,319
906.930908,310
907.046936,317
907.163086,312
907.279175,326
907.395264,319
907.511353,320
907.62738,325
907.743408,316
907.859497,329
907.975525,325
908.091553,319
908.207703,312
908.32373,328
908.439758,309
908.555786,323
908.671814,309
908.787842,323
908.90387,320
909.019775,323
909.135864,314
909.251892,324
909.367859,321
909.483826,312
909.599854,317
909.715881,321
909.831848,319
909.947815,324
910.063782,316
910.179749,341
910.295776,298
910.411743,320
910.527649,316
910.643616,319
910.759583,315
910.875488,330
910.991455,306
911.107361,319
911.223267,317
911.339294,321
911.4552,313
911.571106,317
911.687073,321
911.802979,320
911.918823,306
912.034729,313
912.150635,306
912.266602,321
912.382446,312
912.498352,330
912.614197,303
912.730103,326
912.846008,304
