792.44574,337
792.56488,346
792.68396,394
792.80304,374
792.92218,318
793.041199,309
793.160339,311
793.279419,318
793.398499,320
793.517578,308
793.636658,314
793.755737,323
793.874817,346
793.993896,341
794.112976,347
794.232056,318
794.351074,324
794.470215,322
794.589233,324
794.708313,307
794.827393,328
794.946411,317
795.065552,323
795.18457,339
795.303589,316
795.422668,318
795.541687,323
795.660767,314
795.779846,335
795.898865,309
796.017883,308
796.136963,326
796.255981,321
796.375061,330
796.49408,310
796.613037,333
796.732117,323
796.851135,350
796.970154,327
797.089233,327
797.208191,321
797.327271,313
797.446228,324
797.565186,318
797.684265,319
797.803223,329
797.922241,319
798.04126,335
798.160278,339
798.279297,330
798.398315,315
798.517273,325
798.636292,329
798.75531,325
798.874268,317
798.993286,316
799.112244,339
799.231323,329
799.350281,313
799.469238,316
799.588257,325
799.707153,319
799.826111,328
799.945129,311
800.064087,319
800.183044,298
800.302063,327
800.421021,314
800.539978,313
800.658936,326
800.777893,327
800.896912,326
801.015747,327
801.134705,323
801.253723,319
801.37262,320
801.491638,321
801.610535,316
801.729492,336
801.84845,305
801.967407,326
802.086243,324
802.205261,337
802.324158,329
802.443115,309
802.562073,320
802.680969,317
802.799927,318
802.918762,319
803.037659,322
803.156677,325
803.275574,317
803.39447,336
803.513428,316
803.632263,325
803.751221,323
803.870117,322
803.989014,325
804.107971,325
804.226746,321
804.345642,339
804.4646,336
804.583496,335
804.702393,321
804.821228,318
804.940125,326
805.059021,327
805.177917,334
805.296814,320
805.415649,327
805.534546,318
805.653442,312
805.772278,316
805.891113,315
806.01001,329
806.128906,318
806.247742,316
806.366577,324
806.485413,313
806.604309,310
806.723145,321
806.84198,320
806.960876,332
807.079712,305
807.198486,330
807.317383,319
807.436218,324
807.554993,317
807.673889,322
807.792725,316
807.91156,315
808.030396,320
808.14917,338
808.268005,319
808.386841,319
808.505676,321
808.624451,320
808.743286,330
808.862122,326
808.980896,328
809.099731,318
809.218506,322
809.337341,315
809.456116,331
809.57489,324
809.693726,314
809.8125,329
809.931274,328
810.050049,324
810.168884,312
810.287659,324
810.406372,322
810.525269,336
810.643982,325
810.762756,319
810.881531,311
811.000305,317
811.11908,306
811.237854,318
811.356567,322
811.475403,320
811.594116,328
811.71283,314
811.831604,328
811.950378,315
812.069153,330
812.187927,314
812.30658,312
812.425415,335
812.544128,320
812.662781,325
812.781616,316
812.900269,311
813.019043,327
813.137756,313
813.256531,327
813.375244,329
813.493896,322
813.612671,328
813.731384,311
813.850037,319
813.96875,321
814.087524,336
814.206238,310
814.324951,325
814.443604,323
814.562256,309
814.68103,315
814.799683,324
814.918335,307
815.037109,330
815.155762,316
815.274475,331
815.393188,318
815.511841,315
815.630554,326
815.749146,317
815.867859,322
815.986572,323
816.105164,319
816.223877,319
816.342529,320
816.461182,326
816.579895,312
816.698486,326
816.817139,312
816.935791,320
817.054504,319
817.173096,325
817.291748,315
817.4104,306
817.529053,316
817.647644,320
817.766235,320
817.884949,320
818.00354,324
818.122192,316
818.240845,331
818.359436,328
818.478088,329
818.59668,317
818.715271,314
818.833923,335
818.952515,317
819.071106,319
819.189758,309
819.30835,309
819.426941,314
819.545532,325
819.664124,310
819.782715,320
819.901306,310
820.019897,328
820.138489,317
820.25708,316
820.375671,319
820.494202,330
820.612732,324
820.731384,327
820.849915,338
820.968506,337
821.087097,316
821.205627,329
821.324158,322
821.442749,321
821.561279,316
821.679871,319
821.798401,304
821.916931,318
822.035461,306
822.154053,313
822.272583,328
822.391174,323
822.509583,314
822.628174,313
822.746704,306
822.865234,318
822.983765,312
823.102295,323
823.220825,319
823.339294,324
823.457825,303
823.576355,314
823.694824,310
823.813354,322
823.931885,337
824.050354,316
824.168884,312
824.287354,321
824.405823,321
824.524353,308
824.642822,316
824.761353,316
824.879822,323
824.998291,325
825.116699,311
825.235291,318
825.353699,314
825.472168,321
825.590637,318
825.709106,324
825.827576,319
825.946045,330
826.064453,305
826.182983,313
826.301392,331
826.4198,321
826.53833,308
826.656738,324
826.775208,312
826.893677,315
827.012024,326
827.130493,322
827.248962,320
827.36731,321
827.485779,309
827.604248,307
827.722595,318
827.841064,318
827.959412,330
828.077942,318
828.196289,315
828.314636,326
828.433105,296
828.551514,313
828.669861,316
828.78833,317
828.906677,323
829.025085,321
829.143433,317
829.261841,321
829.38031,316
829.498657,332
829.617004,311
829.735413,311
829.85376,314
829.972107,301
830.090515,312
830.208862,313
830.327209,305
830.445557,309
830.563904,305
830.682312,310
830.800659,326
830.919006,325
831.037354,335
831.155701,324
831.274048,313
831.392395,322
831.51062,306
831.629028,317
831.747314,324
831.865662,312
831.984009,314
832.102356,304
832.220642,328
832.338928,327
832.457275,317
832.575623,316
832.693909,308
832.812134,310
832.930481,312
833.048828,317
833.167114,314
833.2854,316
833.403687,316
833.521973,305
833.640259,327
833.758545,329
833.876831,313
833.995056,329
834.113281,317
834.231628,326
834.349915,312
834.468201,317
834.586426,309
834.704651,331
834.822998,323
834.941162,315
835.059448,310
835.177673,327
835.295959,308
835.414246,306
835.53241,310
835.650635,323
835.768921,309
835.887146,324
836.005371,322
836.123596,328
836.241821,323
836.360046,310
836.478271,313
836.596497,311
836.714722,316
836.832886,317
836.95105,302
837.069336,318
837.1875,308
837.305725,310
837.423889,298
837.542053,323
837.660339,315
837.778503,323
837.896667,310
838.014832,316
838.132996,324
838.25116,318
838.369385,321
838.487488,330
838.605713,320
838.723877,317
838.84198,325
838.960205,315
839.078308,301
839.196472,318
839.314636,316
839.4328,331
839.550964,321
839.669067,324
839.787231,295
839.905396,310
840.023499,309
840.141602,313
840.259766,322
840.377869,320
840.495972,303
840.614136,331
840.732239,309
840.850342,316
840.968445,312
841.086548,333
841.204651,308
841.322754,322
841.440918,311
841.55896,317
841.677002,316
841.795166,330
841.913208,324
842.031311,329
842.149353,309
842.267456,321
842.385498,308
842.503601,320
842.621643,321
842.739746,311
842.857788,309
842.97583,337
843.093933,306
843.211975,315
843.330017,304
843.44812,332
843.566101,315
843.684204,328
843.802246,314
843.920227,322
844.038269,306
844.156311,306
844.274292,313
844.392395,317
844.510376,322
844.628357,323
844.74646,311
844.864441,311
844.982422,309
845.100403,323
845.218384,310
845.336426,314
845.454468,323
845.572449,304
845.69043,319
845.808411,312
845.926453,305
846.044373,321
846.162354,306
846.280396,315
846.398315,326
846.516296,310
846.634216,319
846.752197,312
846.870178,303
846.988098,322
847.106079,301
847.22406,316
847.34198,308
847.4599,317
847.577881,322
847.695801,312
847.813782,329
847.931641,330
848.049561,314
848.167603,316
848.285461,322
848.403381,324
848.521362,299
848.639221,325
848.75708,315
848.875,313
848.99292,319
849.110901,322
849.22876,310
849.34668,332
849.464539,308
849.582458,314
849.700317,303
849.818176,321
849.936096,324
850.053955,315
850.171875,321
850.289673,306
850.407593,294
850.525452,324
850.643311,310
850.761169,319
850.878967,323
850.996887,319
851.114746,309
851.232544,332
851.350403,312
851.468262,318
851.58606,310
851.703979,320
851.821777,302
851.939636,325
852.057434,314
852.175232,319
852.293091,312
852.410889,323
852.528687,318
852.646545,319
852.764343,309
852.88208,320
852.999939,320
853.117676,321
853.235535,321
853.353271,317
853.471069,299
853.588928,311
853.706604,317
853.824402,310
853.9422,309
854.059998,317
854.177734,312
854.295532,308
854.413269,311
854.531006,321
854.648804,312
854.766541,302
854.884277,319
855.002014,322
855.119751,307
855.237549,328
855.355225,316
855.473022,327
855.590698,310
855.708435,314
855.826172,314
855.943848,316
856.061646,324
856.179321,330
856.296997,307
856.414795,319
856.53241,319
856.650085,320
856.767822,314
856.885559,314
857.003174,324
857.120911,315
857.238586,315
857.356201,317
857.473938,315
857.591614,320
857.709351,321
857.826965,319
857.944641,314
858.062317,314
858.179993,304
858.297668,306
858.415283,310
858.532959,322
858.650574,306
858.768188,317
858.885803,314
859.003479,308
859.121094,320
859.23877,316
859.356384,321
859.473999,313
859.591675,328
859.709229,316
859.826843,308
859.944458,317
860.062012,302
860.179626,320
860.297302,321
860.414856,308
860.532471,330
860.650024,324
860.767639,312
860.885193,323
861.002808,315
861.120361,321
861.237976,332
861.35553,315
861.473022,309
861.590698,310
861.708191,316
861.825745,317
861.943298,313
862.060852,317
862.178406,310
862.295959,312
862.413513,308
862.531006,314
862.64856,317
862.766113,316
862.883667,310
863.00116,328
863.118713,315
863.236206,319
863.353699,324
863.471252,318
863.588745,303
863.706177,335
863.82373,311
863.941162,325
864.058716,307
864.176208,300
864.29364,322
864.411194,329
864.528687,312
864.646118,327
864.763611,313
864.881042,307
864.998535,305
865.116028,318
865.233459,306
865.350891,316
865.468384,316
865.585754,338
865.703308,315
865.820679,315
865.938171,312
866.055542,315
866.173035,322
866.290466,305
866.407837,311
866.52533,313
866.6427,326
866.760071,316
866.877563,297
866.994934,325
867.112305,312
867.229736,322
867.347107,322
867.464539,304
867.58197,307
867.699341,319
867.81665,315
867.934082,317
868.051453,299
868.168823,315
868.286194,310
868.403564,322
868.520935,318
868.638306,323
868.755676,326
868.872986,313
868.990295,327
869.107727,324
869.225037,312
869.342346,329
869.459717,311
869.577026,316
869.694336,328
869.811707,321
869.929016,309
870.046326,306
870.163635,328
870.280945,318
870.398254,313
870.515564,323
870.632812,312
870.750183,312
870.867432,321
870.984741,325
871.102051,304
871.219299,317
871.336609,322
871.453918,321
871.571106,310
871.688416,327
871.805664,315
871.922852,324
872.040222,315
872.157471,314
872.274719,303
872.391968,324
872.509155,312
872.626465,325
872.743652,310
872.860962,311
872.978149,321
873.095337,317
873.212646,301
873.329834,313
873.44696,313
873.564209,313
873.681396,320
873.798645,312
873.915894,310
874.03302,323
874.150208,312
874.267456,341
874.384583,320
874.501831,327
874.618958,312
874.736145,321
874.853333,314
874.970459,311
875.087646,319
875.204834,316
875.32196,309
875.439148,310
875.556274,312
875.673401,320
875.790527,321
875.907715,318
876.024841,316
876.141968,312
876.259094,316
876.376282,320
876.493347,306
876.610474,313
876.7276,323
876.844727,320
876.961853,307
877.078918,314
877.195984,329
877.313171,331
877.430237,312
877.547302,313
877.664368,314
877.781433,338
877.898499,310
878.015625,304
878.13269,318
878.249695,308
878.366821,310
878.483887,337
878.600952,306
878.717957,324
878.834961,317
878.952087,317
879.069092,312
879.186157,303
879.303162,307
879.420227,313
879.537231,312
879.654236,318
879.77124,320
879.888306,321
880.005249,306
880.122314,311
880.239319,324
880.356323,325
880.473328,313
880.590271,332
880.707275,309
880.824341,314
880.941284,309
881.058228,310
881.175232,320
881.292236,336
881.40918,312
881.526123,319
881.643066,311
881.760071,310
881.877014,327
881.993958,314
882.11084,308
882.227783,323
882.344727,313
882.46167,322
882.578613,313
882.695618,326
882.812439,316
882.929382,307
883.046326,321
883.163208,323
883.280151,312
883.397034,326
883.513916,310
883.630798,324
883.747742,314
883.864563,330
883.981506,310
884.098389,320
884.21521,303
884.332153,333
884.448975,311
884.565796,318
884.682678,306
884.7995,323
884.916443,321
885.033264,313
885.150085,330
885.266968,323
885.383789,310
885.500671,332
885.617493,325
885.734314,314
885.851196,294
885.967896,333
886.084717,319
886.201599,315
886.318359,320
886.435181,318
886.552002,322
886.668762,311
886.785645,320
886.902344,316
887.019165,312
887.135925,321
887.252747,329
887.369446,318
887.486267,326
887.603027,317
887.719788,302
887.836548,319
887.953247,315
888.070068,320
888.186829,320
888.303528,328
888.420288,312
888.536987,325
888.653687,315
888.770447,326
888.887146,314
889.003967,321
889.120667,341
889.237305,317
889.354065,309
889.470703,320
889.587463,305
889.704163,315
889.820862,335
889.937561,316
890.054199,314
890.170837,326
890.287598,319
890.404236,334
890.520874,301
890.637634,317
890.754211,307
890.87085,322
890.987549,312
891.104187,303
891.220886,313
891.337463,317
891.454102,314
891.57074,316
891.687378,311
891.804077,318
891.920654,310
892.037231,320
892.15387,317
892.270447,310
892.387085,315
892.503723,318
892.6203,306
892.736877,311
892.853516,314
892.970032,330
893.08667,319
893.203186,308
893.319763,317
893.43634,310
893.552917,322
893.669556,322
893.786011,308
893.902588,314
894.019165,304
894.135681,327
894.252197,316
894.368835,329
894.485291,316
894.601868,321
894.718384,316
894.8349,328
894.951355,303
895.067932,323
895.184448,311
895.300964,324
895.417419,315
895.533936,323
895.650452,306
895.766907,324
895.883423,321
895.999878,324
896.116333,298
896.232849,337
896.349304,310
896.465759,325
896.582214,317
896.698669,328
896.815125,328
896.931641,313
897.048035,320
897.164551,324
897.280884,315
897.397339,322
897.513794,301
897.630249,324
897.746582,306
897.863098,325
897.979431,302
898.095886,317
898.212341,319
898.328674,316
898.445129,312
898.561462,331
898.677795,322
898.794312,327
898.910645,312
899.026978,334
899.143433,307
899.259766,328
899.37616,316
899.492493,321
899.608765,327
899.725159,331
899.841553,311
899.957947,325
900.07428,329
900.190552,313
900.306946,311
900.423157,317
900.53949,313
900.655884,316
900.772156,305
900.888489,324
901.004822,318
901.121033,317
901.237366,307
901.353699,331
901.46991,321
901.586304,311
901.702515,314
901.818787,317
901.93512,318
902.051331,329
902.167603,325
902.283875,322
902.400085,322
902.516418,313
902.632629,330
902.74884,327
902.865112,325
902.981384,312
903.097595,309
903.213867,318
903.330017,321
903.446289,332
903.5625,308
903.67865,324
903.794922,316
903.911072,313
904.027344,319
904.143494,332
904.259705,339
904.375916,326
904.492065,319
904.608215,322
904.724426,324
904.840576,306
904.956726,320
905.072876,315
905.189087,309
905.305176,327
905.421387,321
905.537537,320
905.653687,321
905.769775,319
905.885925,309
906.002014,317
906.118164,308
906.234314,308
906.350403,327
906.466492,321
906.582642,302
906.69873,316
906.814758,314
906.930908,316
907.046936,322
907.163086,304
907.279175,312
907.395264,319
907.511353,319
907.62738,321
907.743408,314
907.859497,320
907.975525,321
908.091553,311
908.207703,316
908.32373,319
908.439758,304
908.555786,315
908.671814,308
908.787842,294
908.90387,315
909.019775,329
909.135864,322
909.251892,330
909.367859,307
909.483826,305
909.599854,325
909.715881,332
909.831848,310
909.947815,327
910.063782,305
910.179749,313
910.295776,314
910.411743,320
910.527649,316
910.643616,323
910.759583,331
910.875488,311
910.991455,297
911.107361,322
911.223267,324
911.339294,314
911.4552,311
911.571106,325
911.687073,319
911.802979,329
911.918823,318
912.034729,316
912.150635,323
912.266602,321
912.382446,322
912.498352,321
912.614197,325
912.730103,334
912.846008,324
792.44574,299
792.56488,336
792.68396,397
792.80304,370
792.92218,348
793.041199,316
793.160339,323
793.279419,318
793.398499,320
793.517578,324
793.636658,307
793.755737,339
793.874817,354
793.993896,335
794.112976,323
794.232056,326
794.351074,320
794.470215,329
794.589233,327
794.708313,338
794.827393,334
794.946411,328
795.065552,327
795.18457,326
795.303589,329
795.422668,341
795.541687,326
795.660767,333
795.779846,329
795.898865,325
796.017883,335
796.136963,324
796.255981,349
796.375061,326
796.49408,327
796.613037,339
796.732117,321
796.851135,329
796.970154,333
797.089233,329
797.208191,319
797.327271,315
797.446228,311
797.565186,324
797.684265,331
797.803223,324
797.922241,326
798.04126,333
798.160278,324
798.279297,333
798.398315,309
798.517273,325
798.636292,332
798.75531,317
798.874268,336
798.993286,318
799.112244,323
799.231323,313
799.350281,330
799.469238,303
799.588257,327
799.707153,329
799.826111,329
799.945129,315
800.064087,322
800.183044,325
800.302063,322
800.421021,298
800.539978,332
800.658936,316
800.777893,327
800.896912,314
801.015747,324
801.134705,318
801.253723,331
801.37262,328
801.491638,321
801.610535,324
801.729492,320
801.84845,324
801.967407,322
802.086243,325
802.205261,326
802.324158,317
802.443115,322
802.562073,314
802.680969,310
802.799927,317
802.918762,316
803.037659,321
803.156677,318
803.275574,309
803.39447,320
803.513428,312
803.632263,315
803.751221,318
803.870117,311
803.989014,321
804.107971,334
804.226746,311
804.345642,327
804.4646,328
804.583496,318
804.702393,318
804.821228,345
804.940125,308
805.059021,330
805.177917,329
805.296814,330
805.415649,318
805.534546,323
805.653442,296
805.772278,325
805.891113,321
806.01001,319
806.128906,310
806.247742,313
806.366577,311
806.485413,327
806.604309,336
806.723145,323
806.84198,320
806.960876,327
807.079712,319
807.198486,346
807.317383,313
807.436218,315
807.554993,314
807.673889,328
807.792725,310
807.91156,322
808.030396,331
808.14917,330
808.268005,321
808.386841,326
808.505676,328
808.624451,343
808.743286,322
808.862122,332
808.980896,323
809.099731,328
809.218506,309
809.337341,326
809.456116,312
809.57489,320
809.693726,322
809.8125,330
809.931274,313
810.050049,321
810.168884,323
810.287659,329
810.406372,315
810.525269,324
810.643982,322
810.762756,339
810.881531,323
811.000305,322
811.11908,310
811.237854,334
811.356567,304
811.475403,333
811.594116,324
811.71283,323
811.831604,316
811.950378,322
812.069153,326
812.187927,330
812.30658,323
812.425415,319
812.544128,318
812.662781,327
812.781616,314
812.900269,319
813.019043,317
813.137756,325
813.256531,321
813.375244,321
813.493896,339
813.612671,322
813.731384,309
813.850037,329
813.96875,322
814.087524,315
814.206238,318
814.324951,328
814.443604,318
814.562256,317
814.68103,321
814.799683,313
814.918335,315
815.037109,326
815.155762,316
815.274475,329
815.393188,319
815.511841,338
815.630554,321
815.749146,313
815.867859,326
815.986572,323
816.105164,312
816.223877,306
816.342529,318
816.461182,330
816.579895,316
816.698486,325
816.817139,308
816.935791,320
817.054504,327
817.173096,318
817.291748,311
817.4104,321
817.529053,322
817.647644,326
817.766235,300
817.884949,327
818.00354,328
818.122192,330
818.240845,312
818.359436,310
818.478088,311
818.59668,320
818.715271,325
818.833923,323
818.952515,318
819.071106,332
819.189758,308
819.30835,333
819.426941,306
819.545532,318
819.664124,322
819.782715,322
819.901306,317
820.019897,330
820.138489,315
820.25708,325
820.375671,313
820.494202,314
820.612732,313
820.731384,324
820.849915,317
820.968506,326
821.087097,314
821.205627,326
821.324158,309
821.442749,313
821.561279,316
821.679871,318
821.798401,307
821.916931,329
822.035461,311
822.154053,320
822.272583,310
822.391174,314
822.509583,305
822.628174,313
822.746704,330
822.865234,318
822.983765,313
823.102295,316
823.220825,313
823.339294,319
823.457825,314
823.576355,315
823.694824,318
823.813354,314
823.931885,315
824.050354,326
824.168884,320
824.287354,327
824.405823,313
824.524353,325
824.642822,318
824.761353,317
824.879822,313
824.998291,327
825.116699,307
825.235291,322
825.353699,321
825.472168,322
825.590637,326
825.709106,317
825.827576,317
825.946045,315
826.064453,316
826.182983,318
826.301392,306
826.4198,318
826.53833,308
826.656738,314
826.775208,316
826.893677,319
827.012024,312
827.130493,315
827.248962,313
827.36731,327
827.485779,316
827.604248,319
827.722595,315
827.841064,322
827.959412,318
828.077942,315
828.196289,327
828.314636,316
828.433105,319
828.551514,306
828.669861,302
828.78833,317
828.906677,308
829.025085,331
829.143433,321
829.261841,321
829.38031,318
829.498657,318
829.617004,298
829.735413,327
829.85376,310
829.972107,317
830.090515,316
830.208862,310
830.327209,321
830.445557,325
830.563904,309
830.682312,309
830.800659,309
830.919006,326
831.037354,309
831.155701,311
831.274048,314
831.392395,312
831.51062,307
831.629028,316
831.747314,322
831.865662,320
831.984009,315
832.102356,306
832.220642,319
832.338928,300
832.457275,310
832.575623,313
832.693909,331
832.812134,327
832.930481,318
833.048828,314
833.167114,322
833.2854,337
833.403687,310
833.521973,305
833.640259,327
833.758545,321
833.876831,311
833.995056,317
834.113281,305
834.231628,328
834.349915,306
834.468201,319
834.586426,323
834.704651,312
834.822998,308
834.941162,320
835.059448,323
835.177673,306
835.295959,316
835.414246,320
835.53241,314
835.650635,315
835.768921,318
835.887146,317
836.005371,311
836.123596,330
836.241821,321
836.360046,324
836.478271,315
836.596497,308
836.714722,318
836.832886,324
836.95105,313
837.069336,321
837.1875,318
837.305725,321
837.423889,314
837.542053,326
837.660339,310
837.778503,315
837.896667,313
838.014832,329
838.132996,299
838.25116,317
838.369385,332
838.487488,306
838.605713,314
838.723877,311
838.84198,314
838.960205,308
839.078308,310
839.196472,329
839.314636,305
839.4328,316
839.550964,309
839.669067,319
839.787231,324
839.905396,333
840.023499,320
840.141602,328
840.259766,322
840.377869,318
840.495972,320
840.614136,317
840.732239,318
840.850342,325
840.968445,316
841.086548,316
841.204651,333
841.322754,304
841.440918,311
841.55896,325
841.677002,313
841.795166,330
841.913208,312
842.031311,320
842.149353,314
842.267456,321
842.385498,303
842.503601,315
842.621643,314
842.739746,326
842.857788,322
842.97583,310
843.093933,331
843.211975,316
843.330017,321
843.44812,326
843.566101,314
843.684204,331
843.802246,316
843.920227,324
844.038269,311
844.156311,305
844.274292,321
844.392395,321
844.510376,317
844.628357,326
844.74646,316
844.864441,321
844.982422,319
845.100403,323
845.218384,323
845.336426,318
845.454468,310
845.572449,302
845.69043,327
845.808411,329
845.926453,317
846.044373,319
846.162354,316
846.280396,306
846.398315,318
846.516296,314
846.634216,297
846.752197,327
846.870178,315
846.988098,311
847.106079,306
847.22406,308
847.34198,320
847.4599,326
847.577881,312
847.695801,311
847.813782,307
847.931641,322
848.049561,319
848.167603,322
848.285461,313
848.403381,321
848.521362,317
848.639221,333
848.75708,325
848.875,311
848.99292,303
849.110901,315
849.22876,309
849.34668,321
849.464539,312
849.582458,307
849.700317,315
849.818176,318
849.936096,316
850.053955,316
850.171875,325
850.289673,318
850.407593,311
850.525452,324
850.643311,304
850.761169,324
850.878967,318
850.996887,313
851.114746,321
851.232544,314
851.350403,316
851.468262,321
851.58606,308
851.703979,315
851.821777,306
851.939636,321
852.057434,321
852.175232,311
852.293091,315
852.410889,326
852.528687,317
852.646545,320
852.764343,322
852.88208,321
852.999939,306
853.117676,332
853.235535,308
853.353271,332
853.471069,315
853.588928,320
853.706604,318
853.824402,326
853.9422,323
854.059998,316
854.177734,303
854.295532,311
854.413269,307
854.531006,317
854.648804,304
854.766541,321
854.884277,308
855.002014,313
855.119751,317
855.237549,323
855.355225,313
855.473022,322
855.590698,306
855.708435,318
855.826172,311
855.943848,315
856.061646,314
856.179321,320
856.296997,295
856.414795,322
856.53241,316
856.650085,330
856.767822,306
856.885559,315
857.003174,329
857.120911,311
857.238586,315
857.356201,311
857.473938,314
857.591614,324
857.709351,308
857.826965,317
857.944641,305
858.062317,319
858.179993,302
858.297668,322
858.415283,313
858.532959,308
858.650574,327
858.768188,309
858.885803,317
859.003479,314
859.121094,322
859.23877,326
859.356384,315
859.473999,297
859.591675,308
859.709229,316
859.826843,328
859.944458,330
860.062012,299
860.179626,312
860.297302,330
860.414856,314
860.532471,324
860.650024,306
860.767639,316
860.885193,312
861.002808,319
861.120361,315
861.237976,309
861.35553,319
861.473022,308
861.590698,318
861.708191,310
861.825745,313
861.943298,304
862.060852,319
862.178406,312
862.295959,319
862.413513,323
862.531006,318
862.64856,323
862.766113,320
862.883667,309
863.00116,319
863.118713,298
863.236206,320
863.353699,320
863.471252,327
863.588745,313
863.706177,335
863.82373,311
863.941162,318
864.058716,305
864.176208,319
864.29364,324
864.411194,318
864.528687,304
864.646118,322
864.763611,306
864.881042,318
864.998535,311
865.116028,314
865.233459,311
865.350891,312
865.468384,309
865.585754,296
865.703308,322
865.820679,330
865.938171,322
866.055542,302
866.173035,311
866.290466,309
866.407837,316
866.52533,329
866.6427,321
866.760071,328
866.877563,307
866.994934,316
867.112305,322
867.229736,317
867.347107,320
867.464539,326
867.58197,308
867.699341,311
867.81665,318
867.934082,317
868.051453,306
868.168823,323
868.286194,316
868.403564,323
868.520935,317
868.638306,312
868.755676,315
868.872986,325
868.990295,320
869.107727,310
869.225037,320
869.342346,320
869.459717,320
869.577026,314
869.694336,317
869.811707,322
869.929016,313
870.046326,310
870.163635,322
870.280945,299
870.398254,314
870.515564,322
870.632812,310
870.750183,313
870.867432,307
870.984741,335
871.102051,332
871.219299,311
871.336609,318
871.453918,312
871.571106,317
871.688416,323
871.805664,309
871.922852,324
872.040222,316
872.157471,311
872.274719,315
872.391968,330
872.509155,319
872.626465,330
872.743652,321
872.860962,312
872.978149,310
873.095337,316
873.212646,320
873.329834,319
873.44696,311
873.564209,318
873.681396,313
873.798645,309
873.915894,316
874.03302,315
874.150208,300
874.267456,306
874.384583,313
874.501831,316
874.618958,323
874.736145,312
874.853333,328
874.970459,304
875.087646,309
875.204834,314
875.32196,319
875.439148,321
875.556274,316
875.673401,315
875.790527,313
875.907715,313
876.024841,309
876.141968,321
876.259094,321
876.376282,316
876.493347,300
876.610474,315
876.7276,317
876.844727,315
876.961853,321
877.078918,316
877.195984,312
877.313171,324
877.430237,323
877.547302,320
877.664368,309
877.781433,309
877.898499,316
878.015625,319
878.13269,313
878.249695,319
878.366821,316
878.483887,316
878.600952,312
878.717957,323
878.834961,297
878.952087,327
879.069092,312
879.186157,317
879.303162,315
879.420227,316
879.537231,307
879.654236,330
879.77124,330
879.888306,317
880.005249,313
880.122314,321
880.239319,316
880.356323,321
880.473328,323
880.590271,323
880.707275,316
880.824341,330
880.941284,315
881.058228,321
881.175232,311
881.292236,309
881.40918,316
881.526123,322
881.643066,315
881.760071,332
881.877014,319
881.993958,318
882.11084,329
882.227783,313
882.344727,317
882.46167,324
882.578613,322
882.695618,309
882.812439,318
882.929382,308
883.046326,309
883.163208,309
883.280151,315
883.397034,317
883.513916,312
883.630798,311
883.747742,311
883.864563,322
883.981506,316
884.098389,324
884.21521,309
884.332153,317
884.448975,305
884.565796,328
884.682678,315
884.7995,315
884.916443,311
885.033264,329
885.150085,325
885.266968,317
885.383789,311
885.500671,310
885.617493,307
885.734314,323
885.851196,307
885.967896,309
886.084717,308
886.201599,312
886.318359,317
886.435181,327
886.552002,311
886.668762,329
886.785645,313
886.902344,319
887.019165,313
887.135925,328
887.252747,297
887.369446,313
887.486267,316
887.603027,331
887.719788,325
887.836548,325
887.953247,317
888.070068,323
888.186829,320
888.303528,322
888.420288,301
888.536987,325
888.653687,320
888.770447,314
888.887146,316
889.003967,305
889.120667,312
889.237305,314
889.354065,307
889.470703,329
889.587463,302
889.704163,314
889.820862,314
889.937561,312
890.054199,317
890.170837,310
890.287598,307
890.404236,301
890.520874,308
890.637634,328
890.754211,306
890.87085,317
890.987549,312
891.104187,302
891.220886,317
891.337463,334
891.454102,322
891.57074,321
891.687378,304
891.804077,322
891.920654,313
892.037231,323
892.15387,316
892.270447,314
892.387085,319
892.503723,320
892.6203,325
892.736877,317
892.853516,304
892.970032,313
893.08667,314
893.203186,342
893.319763,327
893.43634,323
893.552917,310
893.669556,329
893.786011,320
893.902588,322
894.019165,298
894.135681,320
894.252197,325
894.368835,324
894.485291,300
894.601868,313
894.718384,326
894.8349,324
894.951355,329
895.067932,318
895.184448,316
895.300964,330
895.417419,316
895.533936,320
895.650452,319
895.766907,322
895.883423,312
895.999878,329
896.116333,322
896.232849,327
896.349304,308
896.465759,323
896.582214,315
896.698669,325
896.815125,317
896.931641,309
897.048035,306
897.164551,314
897.280884,327
897.397339,329
897.513794,310
897.630249,324
897.746582,312
897.863098,317
897.979431,318
898.095886,312
898.212341,313
898.328674,321
898.445129,336
898.561462,316
898.677795,316
898.794312,306
898.910645,318
899.026978,331
899.143433,330
899.259766,324
899.37616,310
899.492493,312
899.608765,308
899.725159,316
899.841553,308
899.957947,312
900.07428,321
900.190552,323
900.306946,308
900.423157,319
900.53949,320
900.655884,317
900.772156,323
900.888489,319
901.004822,308
901.121033,316
901.237366,310
901.353699,311
901.46991,318
901.586304,318
901.702515,308
901.818787,319
901.93512,318
902.051331,313
902.167603,326
902.283875,332
902.400085,299
902.516418,330
902.632629,310
902.74884,335
902.865112,317
902.981384,318
903.097595,314
903.213867,316
903.330017,305
903.446289,323
903.5625,303
903.67865,330
903.794922,307
903.911072,322
904.027344,324
904.143494,305
904.259705,310
904.375916,327
904.492065,311
904.608215,334
904.724426,314
904.840576,320
904.956726,326
905.072876,310
905.189087,316
905.305176,323
905.421387,313
905.537537,330
905.653687,304
905.769775,319
905.885925,312
906.002014,337
906.118164,313
906.234314,320
906.350403,323
906.466492,322
906.582642,311
906.69873,316
906.814758,333
906.930908,324
907.046936,313
907.163086,328
907.279175,301
907.395264,303
907.511353,324
907.62738,316
907.743408,311
907.859497,337
907.975525,311
908.091553,307
908.207703,307
908.32373,311
908.439758,316
908.555786,312
908.671814,305
908.787842,319
908.90387,314
909.019775,331
909.135864,305
909.251892,323
909.367859,324
909.483826,320
909.599854,324
909.715881,308
909.831848,298
909.947815,315
910.063782,320
910.179749,315
910.295776,309
910.411743,314
910.527649,317
910.643616,336
910.759583,323
910.875488,315
910.991455,319
911.107361,321
911.223267,314
911.339294,323
911.4552,315
911.571106,322
911.687073,315
911.802979,332
911.918823,306
912.034729,313
912.150635,314
912.266602,333
912.382446,312
912.498352,315
912.614197,318
912.730103,320
912.846008,316
792.44574,308
792.56488,331
792.68396,385
792.80304,381
792.92218,333
793.041199,318
793.160339,307
793.279419,322
793.398499,348
793.517578,311
793.636658,311
793.755737,329
793.874817,362
793.993896,337
794.112976,328
794.232056,321
794.351074,322
794.470215,311
794.589233,336
794.708313,323
794.827393,324
794.946411,322
795.065552,338
795.18457,338
795.303589,326
795.422668,321
795.541687,332
795.660767,314
795.779846,332
795.898865,315
796.017883,332
796.136963,309
796.255981,327
796.375061,328
796.49408,338
796.613037,321
796.732117,331
796.851135,322
796.970154,330
797.089233,315
797.208191,342
797.327271,310
797.446228,338
797.565186,322
797.684265,322
797.803223,326
797.922241,332
798.04126,320
798.160278,320
798.279297,315
798.398315,327
798.517273,316
798.636292,326
798.75531,331
798.874268,317
798.993286,310
799.112244,329
799.231323,325
799.350281,328
799.469238,321
799.588257,333
799.707153,328
799.826111,316
799.945129,335
800.064087,313
800.183044,313
800.302063,324
800.421021,313
800.539978,326
800.658936,317
800.777893,324
800.896912,313
801.015747,321
801.134705,329
801.253723,320
801.37262,329
801.491638,327
801.610535,331
801.729492,329
801.84845,318
801.967407,321
802.086243,320
802.205261,315
802.324158,303
802.443115,330
802.562073,331
802.680969,320
802.799927,319
802.918762,300
803.037659,319
803.156677,327
803.275574,319
803.39447,314
803.513428,318
803.632263,317
803.751221,308
803.870117,322
803.989014,311
804.107971,314
804.226746,322
804.345642,321
804.4646,315
804.583496,333
804.702393,323
804.821228,316
804.940125,317
805.059021,332
805.177917,306
805.296814,322
805.415649,315
805.534546,322
805.653442,314
805.772278,333
805.891113,315
806.01001,322
806.128906,325
806.247742,313
806.366577,321
806.485413,325
806.604309,311
806.723145,330
806.84198,318
806.960876,317
807.079712,316
807.198486,317
807.317383,315
807.436218,325
807.554993,319
807.673889,327
807.792725,310
807.91156,329
808.030396,317
808.14917,320
808.268005,319
808.386841,318
808.505676,315
808.624451,321
808.743286,323
808.862122,314
808.980896,331
809.099731,327
809.218506,312
809.337341,329
809.456116,328
809.57489,325
809.693726,320
809.8125,318
809.931274,308
810.050049,325
810.168884,301
810.287659,325
810.406372,315
810.525269,345
810.643982,324
810.762756,327
810.881531,319
811.000305,312
811.11908,317
811.237854,329
811.356567,318
811.475403,326
811.594116,316
811.71283,332
811.831604,306
811.950378,320
812.069153,319
812.187927,326
812.30658,327
812.425415,325
812.544128,335
812.662781,330
812.781616,320
812.900269,336
813.019043,314
813.137756,324
813.256531,321
813.375244,321
813.493896,328
813.612671,325
813.731384,324
813.850037,330
813.96875,317
814.087524,337
814.206238,326
814.324951,308
814.443604,307
814.562256,326
814.68103,316
814.799683,319
814.918335,307
815.037109,320
815.155762,317
815.274475,328
815.393188,315
815.511841,320
815.630554,320
815.749146,328
815.867859,330
815.986572,313
816.105164,326
816.223877,324
816.342529,311
816.461182,323
816.579895,315
816.698486,326
816.817139,330
816.935791,323
817.054504,325
817.173096,323
817.291748,302
817.4104,328
817.529053,316
817.647644,333
817.766235,323
817.884949,314
818.00354,304
818.122192,325
818.240845,313
818.359436,334
818.478088,310
818.59668,320
818.715271,313
818.833923,309
818.952515,325
819.071106,326
819.189758,308
819.30835,319
819.426941,320
819.545532,317
819.664124,321
819.782715,327
819.901306,319
820.019897,315
820.138489,321
820.25708,314
820.375671,330
820.494202,301
820.612732,319
820.731384,318
820.849915,315
820.968506,320
821.087097,307
821.205627,317
821.324158,322
821.442749,306
821.561279,316
821.679871,309
821.798401,305
821.916931,326
822.035461,305
822.154053,323
822.272583,304
822.391174,320
822.509583,329
822.628174,328
822.746704,328
822.865234,309
822.983765,319
823.102295,316
823.220825,314
823.339294,313
823.457825,304
823.576355,320
823.694824,316
823.813354,312
823.931885,320
824.050354,315
824.168884,311
824.287354,321
824.405823,303
824.524353,321
824.642822,316
824.761353,308
824.879822,315
824.998291,308
825.116699,319
825.235291,317
825.353699,306
825.472168,324
825.590637,326
825.709106,322
825.827576,315
825.946045,318
826.064453,303
826.182983,318
826.301392,307
826.4198,317
826.53833,313
826.656738,319
826.775208,318
826.893677,304
827.012024,316
827.130493,313
827.248962,311
827.36731,309
827.485779,315
827.604248,322
827.722595,319
827.841064,305
827.959412,316
828.077942,319
828.196289,309
828.314636,323
828.433105,315
828.551514,310
828.669861,317
828.78833,319
828.906677,319
829.025085,317
829.143433,319
829.261841,308
829.38031,308
829.498657,322
829.617004,304
829.735413,326
829.85376,314
829.972107,309
830.090515,318
830.208862,306
830.327209,316
830.445557,323
830.563904,313
830.682312,319
830.800659,308
830.919006,321
831.037354,319
831.155701,306
831.274048,311
831.392395,320
831.51062,315
831.629028,317
831.747314,310
831.865662,317
831.984009,311
832.102356,322
832.220642,309
832.338928,321
832.457275,327
832.575623,315
832.693909,309
832.812134,307
832.930481,311
833.048828,324
833.167114,317
833.2854,315
833.403687,315
833.521973,312
833.640259,328
833.758545,319
833.876831,317
833.995056,324
834.113281,310
834.231628,304
834.349915,320
834.468201,320
834.586426,317
834.704651,321
834.822998,301
834.941162,318
835.059448,308
835.177673,323
835.295959,316
835.414246,314
835.53241,311
835.650635,305
835.768921,324
835.887146,310
836.005371,317
836.123596,323
836.241821,316
836.360046,328
836.478271,316
836.596497,309
836.714722,318
836.832886,309
836.95105,318
837.069336,319
837.1875,312
837.305725,334
837.423889,314
837.542053,317
837.660339,311
837.778503,321
837.896667,302
838.014832,322
838.132996,325
838.25116,312
838.369385,319
838.487488,330
838.605713,317
838.723877,313
838.84198,331
838.960205,322
839.078308,303
839.196472,313
839.314636,305
839.4328,331
839.550964,322
839.669067,332
839.787231,308
839.905396,320
840.023499,304
840.141602,326
840.259766,322
840.377869,327
840.495972,310
840.614136,310
840.732239,318
840.850342,316
840.968445,299
841.086548,320
841.204651,313
841.322754,315
841.440918,308
841.55896,322
841.677002,323
841.795166,313
841.913208,306
842.031311,331
842.149353,304
842.267456,310
842.385498,311
842.503601,317
842.621643,300
842.739746,312
842.857788,312
842.97583,328
843.093933,316
843.211975,324
843.330017,313
843.44812,312
843.566101,316
843.684204,323
843.802246,308
843.920227,319
844.038269,309
844.156311,308
844.274292,311
844.392395,317
844.510376,301
844.628357,333
844.74646,309
844.864441,319
844.982422,314
845.100403,309
845.218384,331
845.336426,326
845.454468,305
845.572449,327
845.69043,310
845.808411,327
845.926453,299
846.044373,321
846.162354,309
846.280396,293
846.398315,316
846.516296,324
846.634216,316
846.752197,305
846.870178,308
846.988098,320
847.106079,322
847.22406,319
847.34198,308
847.4599,333
847.577881,321
847.695801,308
847.813782,319
847.931641,322
848.049561,307
848.167603,314
848.285461,312
848.403381,326
848.521362,311
848.639221,317
848.75708,305
848.875,315
848.99292,324
849.110901,320
849.22876,321
849.34668,323
849.464539,315
849.582458,321
849.700317,308
849.818176,308
849.936096,313
850.053955,307
850.171875,302
850.289673,328
850.407593,320
850.525452,317
850.643311,318
850.761169,316
850.878967,319
850.996887,310
851.114746,318
851.232544,309
851.350403,296
851.468262,317
851.58606,300
851.703979,321
851.821777,314
851.939636,328
852.057434,312
852.175232,317
852.293091,303
852.410889,313
852.528687,309
852.646545,309
852.764343,320
852.88208,327
852.999939,313
853.117676,318
853.235535,314
853.353271,306
853.471069,317
853.588928,322
853.706604,322
853.824402,314
853.9422,302
854.059998,314
854.177734,304
854.295532,317
854.413269,322
854.531006,318
854.648804,306
854.766541,326
854.884277,307
855.002014,309
855.119751,313
855.237549,309
855.355225,298
855.473022,324
855.590698,305
855.708435,309
855.826172,315
855.943848,314
856.061646,326
856.179321,321
856.296997,312
856.414795,311
856.53241,311
856.650085,306
856.767822,313
856.885559,312
857.003174,323
857.120911,317
857.238586,319
857.356201,313
857.473938,312
857.591614,315
857.709351,299
857.826965,315
857.944641,313
858.062317,305
858.179993,310
858.297668,315
858.415283,305
858.532959,318
858.650574,315
858.768188,319
858.885803,313
859.003479,330
859.121094,313
859.23877,313
859.356384,322
859.473999,302
859.591675,315
859.709229,326
859.826843,320
859.944458,319
860.062012,316
860.179626,318
860.297302,312
860.414856,312
860.532471,326
860.650024,325
860.767639,306
860.885193,320
861.002808,301
861.120361,320
861.237976,318
861.35553,319
861.473022,319
861.590698,321
861.708191,313
861.825745,329
861.943298,310
862.060852,332
862.178406,311
862.295959,322
862.413513,320
862.531006,319
862.64856,311
862.766113,304
862.883667,316
863.00116,312
863.118713,334
863.236206,320
863.353699,315
863.471252,324
863.588745,311
863.706177,313
863.82373,318
863.941162,310
864.058716,306
864.176208,321
864.29364,324
864.411194,305
864.528687,316
864.646118,318
864.763611,303
864.881042,325
864.998535,316
865.116028,314
865.233459,315
865.350891,317
865.468384,318
865.585754,320
865.703308,306
865.820679,316
865.938171,305
866.055542,318
866.173035,323
866.290466,312
866.407837,302
866.52533,308
866.6427,309
866.760071,332
866.877563,308
866.994934,314
867.112305,300
867.229736,314
867.347107,317
867.464539,341
867.58197,311
867.699341,327
867.81665,318
867.934082,308
868.051453,317
868.168823,311
868.286194,318
868.403564,327
868.520935,306
868.638306,324
868.755676,317
868.872986,322
868.990295,304
869.107727,317
869.225037,303
869.342346,315
869.459717,316
869.577026,318
869.694336,308
869.811707,310
869.929016,311
870.046326,320
870.163635,316
870.280945,310
870.398254,301
870.515564,327
870.632812,317
870.750183,315
870.867432,311
870.984741,327
871.102051,303
871.219299,315
871.336609,315
871.453918,332
871.571106,294
871.688416,309
871.805664,321
871.922852,319
872.040222,319
872.157471,323
872.274719,320
872.391968,313
872.509155,305
872.626465,325
872.743652,317
872.860962,317
872.978149,326
873.095337,332
873.212646,316
873.329834,319
873.44696,311
873.564209,309
873.681396,298
873.798645,322
873.915894,317
874.03302,309
874.150208,322
874.267456,329
874.384583,312
874.501831,328
874.618958,320
874.736145,326
874.853333,309
874.970459,310
875.087646,317
875.204834,316
875.32196,304
875.439148,320
875.556274,318
875.673401,308
875.790527,301
875.907715,308
876.024841,310
876.141968,316
876.259094,312
876.376282,328
876.493347,312
876.610474,330
876.7276,315
876.844727,313
876.961853,325
877.078918,318
877.195984,318
877.313171,329
877.430237,301
877.547302,315
877.664368,311
877.781433,324
877.898499,311
878.015625,311
878.13269,311
878.249695,308
878.366821,322
878.483887,326
878.600952,326
878.717957,303
878.834961,326
878.952087,320
879.069092,308
879.186157,322
879.303162,324
879.420227,330
879.537231,329
879.654236,329
879.77124,307
879.888306,316
880.005249,320
880.122314,326
880.239319,309
880.356323,311
880.473328,304
880.590271,300
880.707275,320
880.824341,301
880.941284,311
881.058228,315
881.175232,309
881.292236,326
881.40918,317
881.526123,311
881.643066,300
881.760071,314
881.877014,324
881.993958,318
882.11084,321
882.227783,326
882.344727,308
882.46167,311
882.578613,296
882.695618,312
882.812439,316
882.929382,310
883.046326,311
883.163208,306
883.280151,324
883.397034,320
883.513916,323
883.630798,327
883.747742,303
883.864563,312
883.981506,314
884.098389,327
884.21521,319
884.332153,327
884.448975,302
884.565796,332
884.682678,309
884.7995,317
884.916443,315
885.033264,306
885.150085,320
885.266968,317
885.383789,314
885.500671,317
885.617493,305
885.734314,315
885.851196,315
885.967896,321
886.084717,316
886.201599,309
886.318359,312
886.435181,318
886.552002,311
886.668762,324
886.785645,310
886.902344,327
887.019165,310
887.135925,318
887.252747,321
887.369446,316
887.486267,321
887.603027,317
887.719788,316
887.836548,320
887.953247,313
888.070068,310
888.186829,305
888.303528,321
888.420288,315
888.536987,328
888.653687,313
888.770447,322
888.887146,311
889.003967,318
889.120667,307
889.237305,313
889.354065,329
889.470703,317
889.587463,312
889.704163,316
889.820862,305
889.937561,315
890.054199,327
890.170837,320
890.287598,311
890.404236,331
890.520874,307
890.637634,323
890.754211,320
890.87085,321
890.987549,322
891.104187,311
891.220886,311
891.337463,318
891.454102,319
891.57074,320
891.687378,319
891.804077,314
891.920654,307
892.037231,324
892.15387,323
892.270447,304
892.387085,311
892.503723,312
892.6203,312
892.736877,320
892.853516,298
892.970032,332
893.08667,308
893.203186,326
893.319763,309
893.43634,318
893.552917,312
893.669556,312
893.786011,316
893.902588,324
894.019165,321
894.135681,317
894.252197,310
894.368835,318
894.485291,315
894.601868,306
894.718384,305
894.8349,323
894.951355,304
895.067932,331
895.184448,316
895.300964,316
895.417419,307
895.533936,331
895.650452,320
895.766907,318
895.883423,323
895.999878,330
896.116333,308
896.232849,311
896.349304,312
896.465759,309
896.582214,328
896.698669,316
896.815125,314
896.931641,323
897.048035,313
897.164551,322
897.280884,318
897.397339,324
897.513794,318
897.630249,325
897.746582,314
897.863098,322
897.979431,311
898.095886,319
898.212341,314
898.328674,318
898.445129,316
898.561462,308
898.677795,319
898.794312,311
898.910645,331
899.026978,323
899.143433,311
899.259766,314
899.37616,328
899.492493,322
899.608765,309
899.725159,322
899.841553,312
899.957947,318
900.07428,313
900.190552,326
900.306946,320
900.423157,317
900.53949,314
900.655884,326
900.772156,315
900.888489,324
901.004822,309
901.121033,321
901.237366,327
901.353699,323
901.46991,301
901.586304,314
901.702515,320
901.818787,330
901.93512,312
902.051331,317
902.167603,319
902.283875,315
902.400085,320
902.516418,311
902.632629,322
902.74884,315
902.865112,315
902.981384,323
903.097595,316
903.213867,320
903.330017,313
903.446289,315
903.5625,306
903.67865,324
903.794922,314
903.911072,324
904.027344,327
904.143494,320
904.259705,321
904.375916,317
904.492065,310
904.608215,304
904.724426,305
904.840576,320
904.956726,308
905.072876,321
905.189087,317
905.305176,320
905.421387,309
905.537537,313
905.653687,309
905.769775,321
905.885925,308
906.002014,307
906.118164,305
906.234314,319
906.350403,320
906.466492,323
906.582642,312
906.69873,323
906.814758,301
906.930908,322
907.046936,307
907.163086,317
907.279175,316
907.395264,321
907.511353,310
907.62738,325
907.743408,319
907.859497,313
907.975525,322
908.091553,321
908.207703,312
908.32373,314
908.439758,313
908.555786,323
908.671814,324
908.787842,325
908.90387,327
909.019775,309
909.135864,309
909.251892,324
909.367859,306
909.483826,320
909.599854,307
909.715881,313
909.831848,309
909.947815,322
910.063782,313
910.179749,324
910.295776,328
910.411743,319
910.527649,315
910.643616,320
910.759583,304
910.875488,319
910.991455,305
911.107361,336
911.223267,311
911.339294,320
911.4552,333
911.571106,320
911.687073,319
911.802979,326
911.918823,317
912.034729,311
912.150635,321
912.266602,318
912.382446,313
912.498352,320
912.614197,295
912.730103,318
912.846008,311
