792.44574,295
792.56488,326
792.68396,386
792.80304,380
792.92218,322
793.041199,307
793.160339,315
793.279419,321
793.398499,316
793.517578,302
793.636658,314
793.755737,328
793.874817,348
793.993896,331
794.112976,328
794.232056,317
794.351074,324
794.470215,324
794.589233,322
794.708313,322
794.827393,338
794.946411,331
795.065552,325
795.18457,338
795.303589,330
795.422668,331
795.541687,319
795.660767,337
795.779846,316
795.898865,334
796.017883,320
796.136963,323
796.255981,323
796.375061,325
796.49408,322
796.613037,308
796.732117,346
796.851135,325
796.970154,329
797.089233,319
797.208191,322
797.327271,335
797.446228,317
797.565186,324
797.684265,326
797.803223,317
797.922241,320
798.04126,317
798.160278,323
798.279297,316
798.398315,333
798.517273,322
798.636292,324
798.75531,326
798.874268,327
798.993286,325
799.112244,317
799.231323,316
799.350281,318
799.469238,332
799.588257,318
799.707153,313
799.826111,318
799.945129,324
800.064087,325
800.183044,327
800.302063,325
800.421021,318
800.539978,333
800.658936,316
800.777893,322
800.896912,317
801.015747,325
801.134705,316
801.253723,318
801.37262,333
801.491638,316
801.610535,318
801.729492,325
801.84845,321
801.967407,318
802.086243,333
802.205261,315
802.324158,325
802.443115,317
802.562073,336
802.680969,321
802.799927,322
802.918762,336
803.037659,324
803.156677,310
803.275574,334
803.39447,319
803.513428,339
803.632263,319
803.751221,325
803.870117,329
803.989014,306
804.107971,320
804.226746,310
804.345642,316
804.4646,324
804.583496,322
804.702393,319
804.821228,328
804.940125,312
805.059021,327
805.177917,339
805.296814,310
805.415649,327
805.534546,306
805.653442,316
805.772278,325
805.891113,322
806.01001,323
806.128906,320
806.247742,322
806.366577,316
806.485413,319
806.604309,329
806.723145,311
806.84198,324
806.960876,321
807.079712,328
807.198486,328
807.317383,315
807.436218,335
807.554993,315
807.673889,326
807.792725,317
807.91156,320
808.030396,313
808.14917,323
808.268005,321
808.386841,313
808.505676,324
808.624451,311
808.743286,331
808.862122,304
808.980896,317
809.099731,308
809.218506,305
809.337341,319
809.456116,326
809.57489,317
809.693726,319
809.8125,313
809.931274,317
810.050049,314
810.168884,333
810.287659,311
810.406372,323
810.525269,328
810.643982,326
810.762756,324
810.881531,323
811.000305,314
811.11908,319
811.237854,317
811.356567,313
811.475403,310
811.594116,328
811.71283,323
811.831604,325
811.950378,323
812.069153,321
812.187927,323
812.30658,327
812.425415,327
812.544128,323
812.662781,327
812.781616,326
812.900269,326
813.019043,322
813.137756,329
813.256531,325
813.375244,332
813.493896,315
813.612671,321
813.731384,316
813.850037,316
813.96875,328
814.087524,314
814.206238,317
814.324951,323
814.443604,330
814.562256,314
814.68103,310
814.799683,313
814.918335,321
815.037109,308
815.155762,333
815.274475,323
815.393188,329
815.511841,317
815.630554,319
815.749146,321
815.867859,319
815.986572,323
816.105164,329
816.223877,309
816.342529,318
816.461182,318
816.579895,308
816.698486,317
816.817139,314
816.935791,318
817.054504,323
817.173096,310
817.291748,327
817.4104,308
817.529053,328
817.647644,323
817.766235,329
817.884949,321
818.00354,313
818.122192,323
818.240845,317
818.359436,318
818.478088,325
818.59668,326
818.715271,300
818.833923,331
818.952515,315
819.071106,332
819.189758,335
819.30835,317
819.426941,329
819.545532,320
819.664124,324
819.782715,309
819.901306,317
820.019897,311
820.138489,312
820.25708,299
820.375671,332
820.494202,314
820.612732,306
820.731384,323
820.849915,319
820.968506,320
821.087097,324
821.205627,327
821.324158,324
821.442749,323
821.561279,330
821.679871,314
821.798401,291
821.916931,320
822.035461,316
822.154053,325
822.272583,330
822.391174,317
822.509583,333
822.628174,302
822.746704,323
822.865234,325
822.983765,307
823.102295,330
823.220825,315
823.339294,311
823.457825,325
823.576355,325
823.694824,316
823.813354,328
823.931885,317
824.050354,319
824.168884,320
824.287354,322
824.405823,318
824.524353,318
824.642822,315
824.761353,312
824.879822,319
824.998291,326
825.116699,310
825.235291,329
825.353699,317
825.472168,331
825.590637,307
825.709106,322
825.827576,330
825.946045,321
826.064453,314
826.182983,315
826.301392,321
826.4198,311
826.53833,318
826.656738,319
826.775208,314
826.893677,319
827.012024,305
827.130493,302
827.248962,313
827.36731,322
827.485779,306
827.604248,314
827.722595,326
827.841064,315
827.959412,311
828.077942,311
828.196289,321
828.314636,310
828.433105,314
828.551514,312
828.669861,307
828.78833,303
828.906677,309
829.025085,303
829.143433,322
829.261841,310
829.38031,322
829.498657,318
829.617004,324
829.735413,319
829.85376,324
829.972107,315
830.090515,310
830.208862,315
830.327209,309
830.445557,324
830.563904,323
830.682312,310
830.800659,322
830.919006,317
831.037354,310
831.155701,321
831.274048,302
831.392395,314
831.51062,308
831.629028,317
831.747314,314
831.865662,316
831.984009,309
832.102356,315
832.220642,298
832.338928,317
832.457275,303
832.575623,314
832.693909,323
832.812134,314
832.930481,317
833.048828,317
833.167114,321
833.2854,322
833.403687,317
833.521973,319
833.640259,314
833.758545,322
833.876831,325
833.995056,310
834.113281,319
834.231628,317
834.349915,314
834.468201,314
834.586426,328
834.704651,314
834.822998,312
834.941162,311
835.059448,309
835.177673,314
835.295959,324
835.414246,308
835.53241,311
835.650635,315
835.768921,319
835.887146,323
836.005371,316
836.123596,314
836.241821,328
836.360046,318
836.478271,329
836.596497,316
836.714722,328
836.832886,321
836.95105,317
837.069336,301
837.1875,306
837.305725,321
837.423889,322
837.542053,318
837.660339,323
837.778503,321
837.896667,314
838.014832,314
838.132996,315
838.25116,312
838.369385,317
838.487488,306
838.605713,324
838.723877,304
838.84198,312
838.960205,321
839.078308,329
839.196472,328
839.314636,325
839.4328,316
839.550964,319
839.669067,304
839.787231,328
839.905396,307
840.023499,325
840.141602,321
840.259766,320
840.377869,309
840.495972,322
840.614136,311
840.732239,321
840.850342,300
840.968445,329
841.086548,318
841.204651,320
841.322754,307
841.440918,312
841.55896,318
841.677002,312
841.795166,317
841.913208,319
842.031311,339
842.149353,317
842.267456,313
842.385498,328
842.503601,302
842.621643,323
842.739746,319
842.857788,305
842.97583,324
843.093933,318
843.211975,322
843.330017,327
843.44812,316
843.566101,313
843.684204,310
843.802246,334
843.920227,312
844.038269,314
844.156311,318
844.274292,321
844.392395,321
844.510376,312
844.628357,318
844.74646,321
844.864441,310
844.982422,334
845.100403,334
845.218384,329
845.336426,315
845.454468,309
845.572449,309
845.69043,322
845.808411,319
845.926453,327
846.044373,322
846.162354,326
846.280396,315
846.398315,318
846.516296,321
846.634216,308
846.752197,324
846.870178,323
846.988098,307
847.106079,317
847.22406,321
847.34198,318
847.4599,317
847.577881,302
847.695801,319
847.813782,306
847.931641,307
848.049561,316
848.167603,308
848.285461,306
848.403381,316
848.521362,320
848.639221,329
848.75708,314
848.875,318
848.99292,310
849.110901,317
849.22876,323
849.34668,330
849.464539,317
849.582458,312
849.700317,332
849.818176,313
849.936096,338
850.053955,322
850.171875,316
850.289673,320
850.407593,339
850.525452,310
850.643311,323
850.761169,304
850.878967,311
850.996887,321
851.114746,312
851.232544,310
851.350403,322
851.468262,304
851.58606,321
851.703979,315
851.821777,318
851.939636,323
852.057434,324
852.175232,309
852.293091,320
852.410889,309
852.528687,324
852.646545,319
852.764343,313
852.88208,309
852.999939,319
853.117676,309
853.235535,303
853.353271,304
853.471069,324
853.588928,317
853.706604,314
853.824402,318
853.9422,321
854.059998,309
854.177734,323
854.295532,309
854.413269,327
854.531006,311
854.648804,307
854.766541,315
854.884277,310
855.002014,305
855.119751,309
855.237549,315
855.355225,316
855.473022,320
855.590698,308
855.708435,308
855.826172,311
855.943848,321
856.061646,312
856.179321,314
856.296997,307
856.414795,320
856.53241,336
856.650085,322
856.767822,316
856.885559,314
857.003174,317
857.120911,332
857.238586,310
857.356201,318
857.473938,311
857.591614,298
857.709351,327
857.826965,316
857.944641,319
858.062317,309
858.179993,318
858.297668,316
858.415283,321
858.532959,317
858.650574,324
858.768188,297
858.885803,308
859.003479,302
859.121094,308
859.23877,305
859.356384,319
859.473999,315
859.591675,331
859.709229,319
859.826843,319
859.944458,304
860.062012,312
860.179626,316
860.297302,309
860.414856,306
860.532471,318
860.650024,323
860.767639,323
860.885193,314
861.002808,312
861.120361,310
861.237976,316
861.35553,305
861.473022,312
861.590698,309
861.708191,313
861.825745,326
861.943298,327
862.060852,303
862.178406,322
862.295959,323
862.413513,317
862.531006,316
862.64856,311
862.766113,307
862.883667,319
863.00116,308
863.118713,307
863.236206,320
863.353699,315
863.471252,306
863.588745,326
863.706177,308
863.82373,313
863.941162,317
864.058716,311
864.176208,307
864.29364,316
864.411194,313
864.528687,327
864.646118,310
864.763611,318
864.881042,312
864.998535,318
865.116028,314
865.233459,308
865.350891,312
865.468384,298
865.585754,310
865.703308,313
865.820679,304
865.938171,316
866.055542,310
866.173035,312
866.290466,324
866.407837,303
866.52533,307
866.6427,313
866.760071,306
866.877563,313
866.994934,317
867.112305,312
867.229736,316
867.347107,321
867.464539,322
867.58197,316
867.699341,312
867.81665,323
867.934082,320
868.051453,310
868.168823,309
868.286194,315
868.403564,303
868.520935,316
868.638306,309
868.755676,307
868.872986,318
868.990295,302
869.107727,312
869.225037,332
869.342346,314
869.459717,325
869.577026,307
869.694336,318
869.811707,317
869.929016,308
870.046326,312
870.163635,299
870.280945,317
870.398254,323
870.515564,315
870.632812,321
870.750183,310
870.867432,331
870.984741,316
871.102051,317
871.219299,328
871.336609,322
871.453918,326
871.571106,322
871.688416,322
871.805664,320
871.922852,310
872.040222,319
872.157471,326
872.274719,311
872.391968,311
872.509155,326
872.626465,319
872.743652,328
872.860962,315
872.978149,326
873.095337,314
873.212646,314
873.329834,319
873.44696,333
873.564209,328
873.681396,325
873.798645,321
873.915894,334
874.03302,303
874.150208,334
874.267456,322
874.384583,333
874.501831,313
874.618958,317
874.736145,320
874.853333,324
874.970459,317
875.087646,322
875.204834,306
875.32196,324
875.439148,310
875.556274,316
875.673401,306
875.790527,317
875.907715,307
876.024841,330
876.141968,316
876.259094,311
876.376282,307
876.493347,325
876.610474,330
876.7276,324
876.844727,319
876.961853,325
877.078918,318
877.195984,325
877.313171,319
877.430237,307
877.547302,320
877.664368,320
877.781433,323
877.898499,332
878.015625,321
878.13269,314
878.249695,309
878.366821,317
878.483887,315
878.600952,319
878.717957,330
878.834961,307
878.952087,317
879.069092,309
879.186157,309
879.303162,316
879.420227,322
879.537231,319
879.654236,325
879.77124,325
879.888306,313
880.005249,326
880.122314,317
880.239319,311
880.356323,316
880.473328,309
880.590271,308
880.707275,321
880.824341,311
880.941284,317
881.058228,307
881.175232,320
881.292236,319
881.40918,314
881.526123,310
881.643066,321
881.760071,328
881.877014,315
881.993958,326
882.11084,317
882.227783,319
882.344727,322
882.46167,318
882.578613,315
882.695618,315
882.812439,328
882.929382,308
883.046326,308
883.163208,319
883.280151,308
883.397034,327
883.513916,314
883.630798,315
883.747742,314
883.864563,310
883.981506,312
884.098389,310
884.21521,331
884.332153,312
884.448975,317
884.565796,301
884.682678,317
884.7995,325
884.916443,318
885.033264,319
885.150085,325
885.266968,317
885.383789,321
885.500671,328
885.617493,318
885.734314,298
885.851196,317
885.967896,315
886.084717,316
886.201599,315
886.318359,318
886.435181,309
886.552002,314
886.668762,325
886.785645,325
886.902344,319
887.019165,321
887.135925,309
887.252747,328
887.369446,307
887.486267,313
887.603027,325
887.719788,316
887.836548,320
887.953247,325
888.070068,316
888.186829,332
888.303528,300
888.420288,314
888.536987,321
888.653687,326
888.770447,312
888.887146,307
889.003967,323
889.120667,311
889.237305,325
889.354065,329
889.470703,302
889.587463,321
889.704163,327
889.820862,309
889.937561,311
890.054199,317
890.170837,327
890.287598,306
890.404236,305
890.520874,316
890.637634,308
890.754211,328
890.87085,306
890.987549,315
891.104187,308
891.220886,311
891.337463,323
891.454102,320
891.57074,307
891.687378,321
891.804077,304
891.920654,321
892.037231,312
892.15387,316
892.270447,309
892.387085,333
892.503723,316
892.6203,327
892.736877,315
892.853516,325
892.970032,332
893.08667,336
893.203186,324
893.319763,305
893.43634,320
893.552917,313
893.669556,319
893.786011,321
893.902588,307
894.019165,322
894.135681,310
894.252197,330
894.368835,315
894.485291,330
894.601868,305
894.718384,325
894.8349,320
894.951355,318
895.067932,323
895.184448,326
895.300964,310
895.417419,319
895.533936,318
895.650452,311
895.766907,322
895.883423,313
895.999878,307
896.116333,321
896.232849,318
896.349304,325
896.465759,311
896.582214,326
896.698669,312
896.815125,324
896.931641,325
897.048035,317
897.164551,317
897.280884,315
897.397339,304
897.513794,314
897.630249,316
897.746582,337
897.863098,307
897.979431,318
898.095886,313
898.212341,318
898.328674,327
898.445129,321
898.561462,308
898.677795,319
898.794312,307
898.910645,326
899.026978,299
899.143433,308
899.259766,308
899.37616,324
899.492493,324
899.608765,324
899.725159,302
899.841553,319
899.957947,312
900.07428,331
900.190552,326
900.306946,326
900.423157,329
900.53949,324
900.655884,318
900.772156,319
900.888489,317
901.004822,309
901.121033,306
901.237366,323
901.353699,310
901.46991,316
901.586304,311
901.702515,322
901.818787,318
901.93512,322
902.051331,320
902.167603,312
902.283875,317
902.400085,309
902.516418,310
902.632629,313
902.74884,316
902.865112,326
902.981384,315
903.097595,336
903.213867,317
903.330017,326
903.446289,315
903.5625,306
903.67865,315
903.794922,316
903.911072,332
904.027344,319
904.143494,315
904.259705,311
904.375916,318
904.492065,315
904.608215,300
904.724426,318
904.840576,317
904.956726,315
905.072876,319
905.189087,322
905.305176,320
905.421387,316
905.537537,317
905.653687,321
905.769775,313
905.885925,315
906.002014,316
906.118164,315
906.234314,307
906.350403,322
906.466492,315
906.582642,325
906.69873,311
906.814758,320
906.930908,315
907.046936,315
907.163086,321
907.279175,319
907.395264,330
907.511353,306
907.62738,330
907.743408,330
907.859497,310
907.975525,331
908.091553,305
908.207703,331
908.32373,321
908.439758,323
908.555786,319
908.671814,325
908.787842,320
908.90387,310
909.019775,312
909.135864,321
909.251892,329
909.367859,330
909.483826,324
909.599854,327
909.715881,318
909.831848,321
909.947815,328
910.063782,322
910.179749,310
910.295776,321
910.411743,312
910.527649,316
910.643616,318
910.759583,321
910.875488,319
910.991455,312
911.107361,323
911.223267,320
911.339294,317
911.4552,328
911.571106,311
911.687073,333
911.802979,316
911.918823,316
912.034729,318
912.150635,328
912.266602,319
912.382446,321
912.498352,311
912.614197,312
912.730103,302
912.846008,326
792.44574,308
792.56488,340
792.68396,386
792.80304,374
792.92218,318
793.041199,306
793.160339,302
793.279419,327
793.398499,318
793.517578,314
793.636658,315
793.755737,317
793.874817,330
793.993896,328
794.112976,320
794.232056,313
794.351074,322
794.470215,318
794.589233,331
794.708313,318
794.827393,327
794.946411,317
795.065552,330
795.18457,323
795.303589,313
795.422668,321
795.541687,327
795.660767,310
795.779846,308
795.898865,324
796.017883,303
796.136963,330
796.255981,321
796.375061,319
796.49408,323
796.613037,329
796.732117,308
796.851135,314
796.970154,327
797.089233,330
797.208191,327
797.327271,321
797.446228,319
797.565186,317
797.684265,326
797.803223,318
797.922241,316
798.04126,324
798.160278,324
798.279297,325
798.398315,304
798.517273,315
798.636292,303
798.75531,336
798.874268,329
798.993286,317
799.112244,328
799.231323,327
799.350281,316
799.469238,311
799.588257,316
799.707153,316
799.826111,321
799.945129,312
800.064087,321
800.183044,324
800.302063,319
800.421021,328
800.539978,314
800.658936,326
800.777893,327
800.896912,319
801.015747,327
801.134705,309
801.253723,326
801.37262,321
801.491638,307
801.610535,316
801.729492,325
801.84845,313
801.967407,317
802.086243,316
802.205261,321
802.324158,331
802.443115,309
802.562073,316
802.680969,337
802.799927,317
802.918762,315
803.037659,322
803.156677,318
803.275574,329
803.39447,320
803.513428,311
803.632263,318
803.751221,306
803.870117,310
803.989014,319
804.107971,328
804.226746,324
804.345642,309
804.4646,321
804.583496,332
804.702393,314
804.821228,312
804.940125,322
805.059021,299
805.177917,326
805.296814,326
805.415649,326
805.534546,315
805.653442,319
805.772278,314
805.891113,325
806.01001,321
806.128906,310
806.247742,312
806.366577,322
806.485413,327
806.604309,305
806.723145,310
806.84198,325
806.960876,314
807.079712,333
807.198486,307
807.317383,322
807.436218,323
807.554993,306
807.673889,331
807.792725,315
807.91156,323
808.030396,311
808.14917,326
808.268005,316
808.386841,318
808.505676,321
808.624451,319
808.743286,310
808.862122,334
808.980896,319
809.099731,317
809.218506,309
809.337341,324
809.456116,326
809.57489,305
809.693726,321
809.8125,325
809.931274,323
810.050049,314
810.168884,314
810.287659,325
810.406372,325
810.525269,303
810.643982,324
810.762756,325
810.881531,314
811.000305,319
811.11908,316
811.237854,309
811.356567,324
811.475403,309
811.594116,308
811.71283,318
811.831604,309
811.950378,323
812.069153,319
812.187927,322
812.30658,324
812.425415,308
812.544128,310
812.662781,305
812.781616,304
812.900269,303
813.019043,327
813.137756,323
813.256531,322
813.375244,320
813.493896,306
813.612671,327
813.731384,327
813.850037,318
813.96875,318
814.087524,323
814.206238,318
814.324951,332
814.443604,312
814.562256,318
814.68103,312
814.799683,320
814.918335,322
815.037109,320
815.155762,310
815.274475,326
815.393188,320
815.511841,307
815.630554,311
815.749146,304
815.867859,326
815.986572,311
816.105164,313
816.223877,329
816.342529,312
816.461182,319
816.579895,321
816.698486,316
816.817139,313
816.935791,304
817.054504,328
817.173096,313
817.291748,318
817.4104,324
817.529053,318
817.647644,309
817.766235,306
817.884949,314
818.00354,319
818.122192,318
818.240845,304
818.359436,314
818.478088,319
818.59668,321
818.715271,320
818.833923,317
818.952515,320
819.071106,308
819.189758,307
819.30835,318
819.426941,318
819.545532,311
819.664124,314
819.782715,317
819.901306,304
820.019897,310
820.138489,323
820.25708,313
820.375671,308
820.494202,309
820.612732,323
820.731384,315
820.849915,325
820.968506,316
821.087097,313
821.205627,307
821.324158,324
821.442749,323
821.561279,301
821.679871,314
821.798401,315
821.916931,307
822.035461,323
822.154053,310
822.272583,316
822.391174,305
822.509583,317
822.628174,316
822.746704,313
822.865234,319
822.983765,310
823.102295,323
823.220825,326
823.339294,312
823.457825,321
823.576355,314
823.694824,317
823.813354,313
823.931885,310
824.050354,319
824.168884,304
824.287354,310
824.405823,320
824.524353,314
824.642822,314
824.761353,319
824.879822,314
824.998291,314
825.116699,302
825.235291,326
825.353699,315
825.472168,308
825.590637,327
825.709106,315
825.827576,300
825.946045,312
826.064453,326
826.182983,318
826.301392,317
826.4198,318
826.53833,305
826.656738,313
826.775208,313
826.893677,318
827.012024,313
827.130493,307
827.248962,316
827.36731,326
827.485779,321
827.604248,311
827.722595,324
827.841064,305
827.959412,332
828.077942,313
828.196289,317
828.314636,319
828.433105,310
828.551514,328
828.669861,326
828.78833,314
828.906677,314
829.025085,319
829.143433,319
829.261841,311
829.38031,317
829.498657,315
829.617004,325
829.735413,314
829.85376,321
829.972107,324
830.090515,308
830.208862,319
830.327209,319
830.445557,320
830.563904,313
830.682312,308
830.800659,322
830.919006,327
831.037354,324
831.155701,325
831.274048,316
831.392395,325
831.51062,319
831.629028,319
831.747314,319
831.865662,310
831.984009,317
832.102356,323
832.220642,307
832.338928,317
832.457275,307
832.575623,326
832.693909,317
832.812134,305
832.930481,319
833.048828,311
833.167114,318
833.2854,308
833.403687,294
833.521973,309
833.640259,318
833.758545,326
833.876831,330
833.995056,309
834.113281,313
834.231628,311
834.349915,325
834.468201,309
834.586426,317
834.704651,308
834.822998,317
834.941162,310
835.059448,314
835.177673,313
835.295959,315
835.414246,318
835.53241,308
835.650635,318
835.768921,323
835.887146,311
836.005371,325
836.123596,327
836.241821,316
836.360046,314
836.478271,322
836.596497,306
836.714722,317
836.832886,313
836.95105,301
837.069336,314
837.1875,322
837.305725,313
837.423889,294
837.542053,326
837.660339,323
837.778503,330
837.896667,314
838.014832,322
838.132996,310
838.25116,323
838.369385,317
838.487488,312
838.605713,324
838.723877,316
838.84198,304
838.960205,304
839.078308,315
839.196472,316
839.314636,325
839.4328,307
839.550964,316
839.669067,313
839.787231,314
839.905396,318
840.023499,327
840.141602,310
840.259766,330
840.377869,316
840.495972,327
840.614136,309
840.732239,294
840.850342,317
840.968445,321
841.086548,319
841.204651,330
841.322754,308
841.440918,317
841.55896,310
841.677002,317
841.795166,312
841.913208,310
842.031311,306
842.149353,308
842.267456,306
842.385498,323
842.503601,308
842.621643,319
842.739746,316
842.857788,311
842.97583,310
843.093933,321
843.211975,312
843.330017,309
843.44812,305
843.566101,321
843.684204,317
843.802246,314
843.920227,306
844.038269,323
844.156311,315
844.274292,321
844.392395,311
844.510376,328
844.628357,314
844.74646,313
844.864441,307
844.982422,315
845.100403,311
845.218384,311
845.336426,314
845.454468,312
845.572449,311
845.69043,309
845.808411,325
845.926453,321
846.044373,316
846.162354,314
846.280396,319
846.398315,316
846.516296,323
846.634216,305
846.752197,301
846.870178,310
846.988098,319
847.106079,323
847.22406,300
847.34198,315
847.4599,309
847.577881,320
847.695801,307
847.813782,310
847.931641,311
848.049561,320
848.167603,309
848.285461,311
848.403381,314
848.521362,313
848.639221,319
848.75708,317
848.875,320
848.99292,309
849.110901,316
849.22876,309
849.34668,315
849.464539,320
849.582458,311
849.700317,323
849.818176,311
849.936096,314
850.053955,323
850.171875,330
850.289673,320
850.407593,316
850.525452,321
850.643311,299
850.761169,312
850.878967,319
850.996887,305
851.114746,325
851.232544,316
851.350403,308
851.468262,325
851.58606,324
851.703979,311
851.821777,318
851.939636,322
852.057434,296
852.175232,313
852.293091,302
852.410889,316
852.528687,315
852.646545,325
852.764343,313
852.88208,317
852.999939,314
853.117676,320
853.235535,333
853.353271,311
853.471069,316
853.588928,332
853.706604,306
853.824402,314
853.9422,315
854.059998,303
854.177734,321
854.295532,308
854.413269,317
854.531006,323
854.648804,306
854.766541,313
854.884277,316
855.002014,319
855.119751,326
855.237549,302
855.355225,324
855.473022,319
855.590698,308
855.708435,322
855.826172,325
855.943848,313
856.061646,303
856.179321,308
856.296997,318
856.414795,310
856.53241,315
856.650085,316
856.767822,322
856.885559,322
857.003174,310
857.120911,320
857.238586,314
857.356201,321
857.473938,318
857.591614,300
857.709351,319
857.826965,310
857.944641,319
858.062317,329
858.179993,320
858.297668,312
858.415283,326
858.532959,322
858.650574,315
858.768188,305
858.885803,310
859.003479,321
859.121094,313
859.23877,311
859.356384,311
859.473999,312
859.591675,314
859.709229,318
859.826843,320
859.944458,305
860.062012,309
860.179626,317
860.297302,311
860.414856,310
860.532471,314
860.650024,320
860.767639,311
860.885193,318
861.002808,315
861.120361,329
861.237976,311
861.35553,314
861.473022,318
861.590698,317
861.708191,309
861.825745,317
861.943298,309
862.060852,312
862.178406,322
862.295959,321
862.413513,307
862.531006,307
862.64856,325
862.766113,302
862.883667,313
863.00116,312
863.118713,321
863.236206,318
863.353699,319
863.471252,313
863.588745,323
863.706177,334
863.82373,315
863.941162,317
864.058716,307
864.176208,299
864.29364,323
864.411194,316
864.528687,321
864.646118,331
864.763611,310
864.881042,306
864.998535,322
865.116028,312
865.233459,304
865.350891,313
865.468384,304
865.585754,319
865.703308,309
865.820679,317
865.938171,319
866.055542,322
866.173035,334
866.290466,310
866.407837,319
866.52533,311
866.6427,321
866.760071,313
866.877563,306
866.994934,308
867.112305,312
867.229736,297
867.347107,310
867.464539,316
867.58197,308
867.699341,308
867.81665,323
867.934082,315
868.051453,314
868.168823,318
868.286194,316
868.403564,309
868.520935,317
868.638306,310
868.755676,313
868.872986,306
868.990295,325
869.107727,310
869.225037,305
869.342346,301
869.459717,313
869.577026,327
869.694336,326
869.811707,316
869.929016,340
870.046326,324
870.163635,327
870.280945,324
870.398254,316
870.515564,314
870.632812,315
870.750183,303
870.867432,306
870.984741,314
871.102051,305
871.219299,302
871.336609,319
871.453918,324
871.571106,318
871.688416,310
871.805664,314
871.922852,306
872.040222,324
872.157471,301
872.274719,321
872.391968,309
872.509155,308
872.626465,320
872.743652,323
872.860962,314
872.978149,322
873.095337,315
873.212646,321
873.329834,322
873.44696,319
873.564209,319
873.681396,322
873.798645,324
873.915894,312
874.03302,304
874.150208,319
874.267456,314
874.384583,311
874.501831,308
874.618958,312
874.736145,312
874.853333,312
874.970459,309
875.087646,320
875.204834,314
875.32196,318
875.439148,321
875.556274,318
875.673401,316
875.790527,304
875.907715,307
876.024841,313
876.141968,312
876.259094,310
876.376282,308
876.493347,313
876.610474,310
876.7276,316
876.844727,305
876.961853,308
877.078918,320
877.195984,314
877.313171,303
877.430237,305
877.547302,303
877.664368,319
877.781433,309
877.898499,318
878.015625,306
878.13269,314
878.249695,300
878.366821,321
878.483887,328
878.600952,314
878.717957,307
878.834961,309
878.952087,308
879.069092,312
879.186157,307
879.303162,322
879.420227,308
879.537231,327
879.654236,322
879.77124,319
879.888306,311
880.005249,327
880.122314,319
880.239319,319
880.356323,313
880.473328,300
880.590271,299
880.707275,314
880.824341,317
880.941284,324
881.058228,318
881.175232,324
881.292236,310
881.40918,316
881.526123,318
881.643066,309
881.760071,329
881.877014,296
881.993958,308
882.11084,333
882.227783,311
882.344727,314
882.46167,302
882.578613,323
882.695618,312
882.812439,318
882.929382,312
883.046326,317
883.163208,316
883.280151,314
883.397034,300
883.513916,307
883.630798,305
883.747742,310
883.864563,318
883.981506,323
884.098389,322
884.21521,312
884.332153,331
884.448975,331
884.565796,307
884.682678,310
884.7995,319
884.916443,307
885.033264,323
885.150085,321
885.266968,312
885.383789,305
885.500671,326
885.617493,318
885.734314,315
885.851196,310
885.967896,320
886.084717,320
886.201599,317
886.318359,318
886.435181,306
886.552002,312
886.668762,316
886.785645,301
886.902344,313
887.019165,321
887.135925,315
887.252747,325
887.369446,309
887.486267,330
887.603027,310
887.719788,320
887.836548,321
887.953247,318
888.070068,317
888.186829,324
888.303528,306
888.420288,305
888.536987,312
888.653687,321
888.770447,307
888.887146,324
889.003967,309
889.120667,309
889.237305,312
889.354065,320
889.470703,324
889.587463,319
889.704163,318
889.820862,314
889.937561,303
890.054199,324
890.170837,312
890.287598,307
890.404236,329
890.520874,320
890.637634,301
890.754211,328
890.87085,312
890.987549,312
891.104187,318
891.220886,331
891.337463,305
891.454102,330
891.57074,309
891.687378,302
891.804077,306
891.920654,325
892.037231,310
892.15387,318
892.270447,324
892.387085,330
892.503723,332
892.6203,321
892.736877,306
892.853516,310
892.970032,315
893.08667,311
893.203186,311
893.319763,314
893.43634,299
893.552917,332
893.669556,314
893.786011,315
893.902588,321
894.019165,312
894.135681,310
894.252197,316
894.368835,331
894.485291,313
894.601868,317
894.718384,311
894.8349,323
894.951355,314
895.067932,314
895.184448,326
895.300964,317
895.417419,314
895.533936,302
895.650452,314
895.766907,321
895.883423,318
895.999878,324
896.116333,311
896.232849,321
896.349304,313
896.465759,321
896.582214,320
896.698669,315
896.815125,309
896.931641,321
897.048035,319
897.164551,320
897.280884,315
897.397339,317
897.513794,317
897.630249,320
897.746582,322
897.863098,309
897.979431,306
898.095886,319
898.212341,331
898.328674,328
898.445129,305
898.561462,313
898.677795,323
898.794312,317
898.910645,330
899.026978,317
899.143433,303
899.259766,315
899.37616,324
899.492493,319
899.608765,306
899.725159,318
899.841553,320
899.957947,319
900.07428,313
900.190552,322
900.306946,311
900.423157,299
900.53949,314
900.655884,317
900.772156,325
900.888489,317
901.004822,315
901.121033,316
901.237366,321
901.353699,313
901.46991,313
901.586304,317
901.702515,310
901.818787,319
901.93512,320
902.051331,317
902.167603,335
902.283875,312
902.400085,313
902.516418,314
902.632629,321
902.74884,317
902.865112,323
902.981384,307
903.097595,313
903.213867,309
903.330017,321
903.446289,304
903.5625,326
903.67865,322
903.794922,300
903.911072,312
904.027344,320
904.143494,308
904.259705,323
904.375916,308
904.492065,323
904.608215,308
904.724426,317
904.840576,308
904.956726,313
905.072876,323
905.189087,317
905.305176,328
905.421387,321
905.537537,311
905.653687,312
905.769775,323
905.885925,306
906.002014,301
906.118164,327
906.234314,315
906.350403,306
906.466492,316
906.582642,322
906.69873,308
906.814758,318
906.930908,319
907.046936,326
907.163086,303
907.279175,323
907.395264,318
907.511353,316
907.62738,320
907.743408,324
907.859497,326
907.975525,312
908.091553,318
908.207703,322
908.32373,305
908.439758,310
908.555786,325
908.671814,315
908.787842,315
908.90387,319
909.019775,317
909.135864,309
909.251892,304
909.367859,333
909.483826,314
909.599854,323
909.715881,324
909.831848,310
909.947815,313
910.063782,330
910.179749,323
910.295776,323
910.411743,310
910.527649,323
910.643616,312
910.759583,319
910.875488,317
910.991455,330
911.107361,323
911.223267,311
911.339294,327
911.4552,330
911.571106,317
911.687073,302
911.802979,323
911.918823,316
912.034729,323
912.150635,311
912.266602,314
912.382446,320
912.498352,309
912.614197,333
912.730103,322
912.846008,319
792.44574,300
792.56488,334
792.68396,391
792.80304,366
792.92218,332
793.041199,299
793.160339,305
793.279419,345
793.398499,322
793.517578,318
793.636658,314
793.755737,344
793.874817,339
793.993896,342
794.112976,322
794.232056,321
794.351074,310
794.470215,316
794.589233,319
794.708313,322
794.827393,325
794.946411,319
795.065552,318
795.18457,324
795.303589,318
795.422668,325
795.541687,299
795.660767,324
795.779846,324
795.898865,317
796.017883,305
796.136963,319
796.255981,318
796.375061,313
796.49408,318
796.613037,311
796.732117,324
796.851135,315
796.970154,322
797.089233,325
797.208191,315
797.327271,323
797.446228,326
797.565186,327
797.684265,336
797.803223,328
797.922241,317
798.04126,317
798.160278,327
798.279297,326
798.398315,328
798.517273,319
798.636292,335
798.75531,321
798.874268,316
798.993286,318
799.112244,329
799.231323,310
799.350281,320
799.469238,324
799.588257,326
799.707153,317
799.826111,335
799.945129,316
800.064087,329
800.183044,323
800.302063,325
800.421021,311
800.539978,319
800.658936,313
800.777893,328
800.896912,322
801.015747,322
801.134705,329
801.253723,332
801.37262,318
801.491638,332
801.610535,319
801.729492,336
801.84845,331
801.967407,316
802.086243,320
802.205261,319
802.324158,318
802.443115,315
802.562073,323
802.680969,325
802.799927,309
802.918762,318
803.037659,322
803.156677,313
803.275574,318
803.39447,332
803.513428,325
803.632263,324
803.751221,312
803.870117,321
803.989014,313
804.107971,319
804.226746,316
804.345642,335
804.4646,324
804.583496,324
804.702393,321
804.821228,325
804.940125,334
805.059021,309
805.177917,325
805.296814,310
805.415649,331
805.534546,317
805.653442,322
805.772278,314
805.891113,323
806.01001,323
806.128906,306
806.247742,322
806.366577,321
806.485413,337
806.604309,313
806.723145,316
806.84198,327
806.960876,333
807.079712,318
807.198486,316
807.317383,309
807.436218,321
807.554993,328
807.673889,308
807.792725,320
807.91156,327
808.030396,325
808.14917,323
808.268005,320
808.386841,312
808.505676,327
808.624451,324
808.743286,313
808.862122,327
808.980896,328
809.099731,318
809.218506,330
809.337341,315
809.456116,324
809.57489,328
809.693726,309
809.8125,318
809.931274,328
810.050049,312
810.168884,316
810.287659,319
810.406372,317
810.525269,320
810.643982,321
810.762756,308
810.881531,312
811.000305,324
811.11908,322
811.237854,316
811.356567,316
811.475403,321
811.594116,327
811.71283,317
811.831604,327
811.950378,306
812.069153,327
812.187927,313
812.30658,305
812.425415,327
812.544128,306
812.662781,326
812.781616,318
812.900269,323
813.019043,309
813.137756,320
813.256531,318
813.375244,318
813.493896,334
813.612671,331
813.731384,309
813.850037,331
813.96875,324
814.087524,311
814.206238,317
814.324951,328
814.443604,336
814.562256,322
814.68103,321
814.799683,316
814.918335,326
815.037109,322
815.155762,317
815.274475,328
815.393188,316
815.511841,314
815.630554,322
815.749146,323
815.867859,312
815.986572,310
816.105164,314
816.223877,328
816.342529,309
816.461182,321
816.579895,315
816.698486,310
816.817139,323
816.935791,320
817.054504,324
817.173096,314
817.291748,316
817.4104,316
817.529053,320
817.647644,323
817.766235,333
817.884949,320
818.00354,340
818.122192,316
818.240845,318
818.359436,339
818.478088,310
818.59668,312
818.715271,316
818.833923,311
818.952515,320
819.071106,312
819.189758,309
819.30835,305
819.426941,322
819.545532,315
819.664124,320
819.782715,318
819.901306,310
820.019897,330
820.138489,312
820.25708,317
820.375671,302
820.494202,320
820.612732,301
820.731384,329
820.849915,306
820.968506,326
821.087097,321
821.205627,306
821.324158,339
821.442749,321
821.561279,327
821.679871,317
821.798401,321
821.916931,321
822.035461,315
822.154053,316
822.272583,320
822.391174,311
822.509583,326
822.628174,316
822.746704,311
822.865234,318
822.983765,316
823.102295,309
823.220825,306
823.339294,315
823.457825,325
823.576355,305
823.694824,330
823.813354,308
823.931885,314
824.050354,306
824.168884,308
824.287354,318
824.405823,301
824.524353,333
824.642822,311
824.761353,312
824.879822,309
824.998291,310
825.116699,314
825.235291,307
825.353699,323
825.472168,312
825.590637,313
825.709106,320
825.827576,323
825.946045,311
826.064453,321
826.182983,312
826.301392,307
826.4198,320
826.53833,321
826.656738,313
826.775208,315
826.893677,317
827.012024,321
827.130493,308
827.248962,328
827.36731,327
827.485779,329
827.604248,327
827.722595,305
827.841064,322
827.959412,321
828.077942,318
828.196289,308
828.314636,319
828.433105,311
828.551514,330
828.669861,307
828.78833,305
828.906677,313
829.025085,312
829.143433,315
829.261841,326
829.38031,339
829.498657,311
829.617004,315
829.735413,322
829.85376,323
829.972107,306
830.090515,318
830.208862,315
830.327209,316
830.445557,314
830.563904,320
830.682312,317
830.800659,322
830.919006,321
831.037354,324
831.155701,316
831.274048,318
831.392395,308
831.51062,311
831.629028,307
831.747314,318
831.865662,312
831.984009,321
832.102356,321
832.220642,327
832.338928,306
832.457275,319
832.575623,325
832.693909,327
832.812134,323
832.930481,314
833.048828,314
833.167114,309
833.2854,324
833.403687,309
833.521973,324
833.640259,326
833.758545,321
833.876831,324
833.995056,304
834.113281,315
834.231628,318
834.349915,321
834.468201,317
834.586426,310
834.704651,310
834.822998,321
834.941162,325
835.059448,303
835.177673,320
835.295959,323
835.414246,302
835.53241,326
835.650635,322
835.768921,324
835.887146,313
836.005371,315
836.123596,317
836.241821,332
836.360046,306
836.478271,310
836.596497,316
836.714722,315
836.832886,326
836.95105,320
837.069336,325
837.1875,316
837.305725,313
837.423889,308
837.542053,325
837.660339,314
837.778503,324
837.896667,322
838.014832,323
838.132996,317
838.25116,305
838.369385,314
838.487488,310
838.605713,317
838.723877,310
838.84198,308
838.960205,304
839.078308,315
839.196472,316
839.314636,326
839.4328,322
839.550964,308
839.669067,327
839.787231,319
839.905396,325
840.023499,306
840.141602,316
840.259766,323
840.377869,306
840.495972,312
840.614136,325
840.732239,325
840.850342,317
840.968445,297
841.086548,300
841.204651,323
841.322754,315
841.440918,310
841.55896,326
841.677002,306
841.795166,314
841.913208,312
842.031311,310
842.149353,316
842.267456,314
842.385498,318
842.503601,312
842.621643,314
842.739746,322
842.857788,316
842.97583,319
843.093933,318
843.211975,326
843.330017,320
843.44812,314
843.566101,316
843.684204,299
843.802246,329
843.920227,316
844.038269,320
844.156311,320
844.274292,313
844.392395,319
844.510376,319
844.628357,315
844.74646,320
844.864441,320
844.982422,323
845.100403,306
845.218384,310
845.336426,315
845.454468,321
845.572449,317
845.69043,311
845.808411,312
845.926453,311
846.044373,309
846.162354,320
846.280396,316
846.398315,326
846.516296,309
846.634216,320
846.752197,315
846.870178,308
846.988098,327
847.106079,322
847.22406,311
847.34198,322
847.4599,311
847.577881,318
847.695801,314
847.813782,319
847.931641,324
848.049561,301
848.167603,309
848.285461,305
848.403381,309
848.521362,339
848.639221,311
848.75708,303
848.875,313
848.99292,309
849.110901,307
849.22876,326
849.34668,322
849.464539,313
849.582458,324
849.700317,313
849.818176,318
849.936096,321
850.053955,314
850.171875,320
850.289673,318
850.407593,317
850.525452,311
850.643311,321
850.761169,314
850.878967,309
850.996887,308
851.114746,313
851.232544,320
851.350403,319
851.468262,324
851.58606,317
851.703979,308
851.821777,316
851.939636,310
852.057434,311
852.175232,317
852.293091,313
852.410889,310
852.528687,306
852.646545,318
852.764343,318
852.88208,317
852.999939,322
853.117676,305
853.235535,315
853.353271,324
853.471069,302
853.588928,327
853.706604,318
853.824402,312
853.9422,320
854.059998,320
854.177734,322
854.295532,320
854.413269,321
854.531006,321
854.648804,313
854.766541,319
854.884277,317
855.002014,314
855.119751,315
855.237549,311
855.355225,325
855.473022,295
855.590698,311
855.708435,328
855.826172,316
855.943848,304
856.061646,314
856.179321,312
856.296997,316
856.414795,325
856.53241,326
856.650085,302
856.767822,315
856.885559,316
857.003174,308
857.120911,325
857.238586,307
857.356201,323
857.473938,315
857.591614,302
857.709351,311
857.826965,306
857.944641,316
858.062317,319
858.179993,316
858.297668,313
858.415283,306
858.532959,304
858.650574,321
858.768188,325
858.885803,312
859.003479,313
859.121094,318
859.23877,314
859.356384,311
859.473999,314
859.591675,313
859.709229,314
859.826843,314
859.944458,316
860.062012,314
860.179626,315
860.297302,312
860.414856,318
860.532471,308
860.650024,314
860.767639,315
860.885193,319
861.002808,323
861.120361,311
861.237976,318
861.35553,327
861.473022,320
861.590698,309
861.708191,321
861.825745,323
861.943298,317
862.060852,306
862.178406,326
862.295959,329
862.413513,331
862.531006,307
862.64856,327
862.766113,309
862.883667,330
863.00116,322
863.118713,309
863.236206,316
863.353699,320
863.471252,320
863.588745,324
863.706177,314
863.82373,335
863.941162,316
864.058716,305
864.176208,316
864.29364,316
864.411194,313
864.528687,307
864.646118,316
864.763611,307
864.881042,293
864.998535,317
865.116028,295
865.233459,327
865.350891,312
865.468384,306
865.585754,321
865.703308,314
865.820679,298
865.938171,308
866.055542,325
866.173035,328
866.290466,311
866.407837,305
866.52533,312
866.6427,311
866.760071,297
866.877563,310
866.994934,308
867.112305,321
867.229736,322
867.347107,315
867.464539,305
867.58197,312
867.699341,316
867.81665,321
867.934082,306
868.051453,317
868.168823,311
868.286194,315
868.403564,312
868.520935,318
868.638306,318
868.755676,307
868.872986,315
868.990295,326
869.107727,322
869.225037,314
869.342346,317
869.459717,313
869.577026,313
869.694336,320
869.811707,319
869.929016,321
870.046326,318
870.163635,304
870.280945,307
870.398254,314
870.515564,294
870.632812,320
870.750183,300
870.867432,327
870.984741,319
871.102051,313
871.219299,308
871.336609,319
871.453918,318
871.571106,319
871.688416,311
871.805664,322
871.922852,310
872.040222,315
872.157471,318
872.274719,313
872.391968,315
872.509155,311
872.626465,322
872.743652,323
872.860962,315
872.978149,323
873.095337,327
873.212646,336
873.329834,315
873.44696,313
873.564209,313
873.681396,315
873.798645,320
873.915894,306
874.03302,323
874.150208,310
874.267456,311
874.384583,330
874.501831,313
874.618958,311
874.736145,324
874.853333,319
874.970459,320
875.087646,319
875.204834,310
875.32196,318
875.439148,318
875.556274,324
875.673401,323
875.790527,314
875.907715,320
876.024841,324
876.141968,319
876.259094,315
876.376282,307
876.493347,330
876.610474,311
876.7276,321
876.844727,317
876.961853,315
877.078918,300
877.195984,323
877.313171,324
877.430237,320
877.547302,315
877.664368,325
877.781433,327
877.898499,339
878.015625,327
878.13269,325
878.249695,302
878.366821,301
878.483887,314
878.600952,321
878.717957,309
878.834961,329
878.952087,306
879.069092,320
879.186157,319
879.303162,339
879.420227,328
879.537231,327
879.654236,308
879.77124,315
879.888306,316
880.005249,314
880.122314,317
880.239319,334
880.356323,302
880.473328,315
880.590271,311
880.707275,311
880.824341,334
880.941284,333
881.058228,304
881.175232,318
881.292236,310
881.40918,321
881.526123,321
881.643066,309
881.760071,312
881.877014,326
881.993958,320
882.11084,304
882.227783,316
882.344727,309
882.46167,317
882.578613,319
882.695618,316
882.812439,310
882.929382,304
883.046326,329
883.163208,319
883.280151,315
883.397034,302
883.513916,317
883.630798,316
883.747742,319
883.864563,319
883.981506,320
884.098389,313
884.21521,305
884.332153,312
884.448975,318
884.565796,324
884.682678,324
884.7995,315
884.916443,323
885.033264,309
885.150085,312
885.266968,302
885.383789,317
885.500671,323
885.617493,328
885.734314,323
885.851196,312
885.967896,298
886.084717,323
886.201599,326
886.318359,329
886.435181,310
886.552002,310
886.668762,325
886.785645,310
886.902344,316
887.019165,321
887.135925,306
887.252747,315
887.369446,323
887.486267,321
887.603027,308
887.719788,313
887.836548,328
887.953247,305
888.070068,320
888.186829,313
888.303528,312
888.420288,316
888.536987,314
888.653687,314
888.770447,320
888.887146,311
889.003967,325
889.120667,306
889.237305,312
889.354065,323
889.470703,306
889.587463,323
889.704163,310
889.820862,310
889.937561,307
890.054199,323
890.170837,318
890.287598,318
890.404236,323
890.520874,321
890.637634,314
890.754211,324
890.87085,316
890.987549,320
891.104187,314
891.220886,318
891.337463,316
891.454102,323
891.57074,299
891.687378,316
891.804077,320
891.920654,320
892.037231,298
892.15387,307
892.270447,318
892.387085,317
892.503723,311
892.6203,317
892.736877,321
892.853516,320
892.970032,305
893.08667,315
893.203186,312
893.319763,323
893.43634,315
893.552917,308
893.669556,314
893.786011,320
893.902588,309
894.019165,314
894.135681,311
894.252197,321
894.368835,312
894.485291,317
894.601868,314
894.718384,327
894.8349,316
894.951355,312
895.067932,321
895.184448,324
895.300964,314
895.417419,317
895.533936,321
895.650452,321
895.766907,321
895.883423,318
895.999878,311
896.116333,314
896.232849,310
896.349304,323
896.465759,305
896.582214,322
896.698669,322
896.815125,312
896.931641,321
897.048035,315
897.164551,319
897.280884,310
897.397339,321
897.513794,324
897.630249,308
897.746582,317
897.863098,303
897.979431,316
898.095886,320
898.212341,318
898.328674,318
898.445129,329
898.561462,305
898.677795,314
898.794312,308
898.910645,314
899.026978,313
899.143433,320
899.259766,307
899.37616,339
899.492493,314
899.608765,331
899.725159,319
899.841553,320
899.957947,335
900.07428,320
900.190552,317
900.306946,321
900.423157,317
900.53949,326
900.655884,319
900.772156,327
900.888489,309
901.004822,304
901.121033,313
901.237366,322
901.353699,321
901.46991,327
901.586304,322
901.702515,327
901.818787,312
901.93512,323
902.051331,320
902.167603,321
902.283875,305
902.400085,331
902.516418,315
902.632629,320
902.74884,322
902.865112,321
902.981384,318
903.097595,313
903.213867,310
903.330017,325
903.446289,305
903.5625,324
903.67865,318
903.794922,307
903.911072,316
904.027344,323
904.143494,305
904.259705,322
904.375916,325
904.492065,314
904.608215,312
904.724426,321
904.840576,309
904.956726,309
905.072876,313
905.189087,310
905.305176,328
905.421387,323
905.537537,329
905.653687,323
905.769775,303
905.885925,315
906.002014,321
906.118164,323
906.234314,316
906.350403,316
906.466492,316
906.582642,308
906.69873,325
906.814758,317
906.930908,321
907.046936,318
907.163086,317
907.279175,324
907.395264,317
907.511353,321
907.62738,321
907.743408,327
907.859497,321
907.975525,329
908.091553,317
908.207703,321
908.32373,321
908.439758,312
908.555786,312
908.671814,333
908.787842,328
908.90387,306
909.019775,326
909.135864,321
909.251892,325
909.367859,329
909.483826,328
909.599854,318
909.715881,320
909.831848,321
909.947815,317
910.063782,331
910.179749,330
910.295776,307
910.411743,302
910.527649,315
910.643616,337
910.759583,311
910.875488,333
910.991455,323
911.107361,313
911.223267,321
911.339294,314
911.4552,321
911.571106,319
911.687073,313
911.802979,321
911.918823,310
912.034729,307
912.150635,306
912.266602,305
912.382446,313
912.498352,309
912.614197,309
912.730103,316
912.846008,321
