792.44574,323
792.56488,352
792.68396,403
792.80304,394
792.92218,340
793.041199,318
793.160339,332
793.279419,347
793.398499,342
793.517578,316
793.636658,318
793.755737,324
793.874817,359
793.993896,351
794.112976,343
794.232056,331
794.351074,331
794.470215,328
794.589233,335
794.708313,318
794.827393,326
794.946411,335
795.065552,338
795.18457,332
795.303589,337
795.422668,328
795.541687,337
795.660767,327
795.779846,352
795.898865,321
796.017883,327
796.136963,326
796.255981,345
796.375061,324
796.49408,340
796.613037,329
796.732117,335
796.851135,324
796.970154,328
797.089233,326
797.208191,320
797.327271,315
797.446228,337
797.565186,313
797.684265,332
797.803223,311
797.922241,333
798.04126,323
798.160278,337
798.279297,322
798.398315,317
798.517273,320
798.636292,326
798.75531,333
798.874268,329
798.993286,315
799.112244,328
799.231323,335
799.350281,328
799.469238,332
799.588257,332
799.707153,324
799.826111,325
799.945129,324
800.064087,328
800.183044,320
800.302063,322
800.421021,326
800.539978,325
800.658936,331
800.777893,320
800.896912,319
801.015747,315
801.134705,320
801.253723,322
801.37262,324
801.491638,329
801.610535,326
801.729492,328
801.84845,324
801.967407,338
802.086243,324
802.205261,323
802.324158,328
802.443115,315
802.562073,314
802.680969,324
802.799927,315
802.918762,330
803.037659,316
803.156677,326
803.275574,311
803.39447,308
803.513428,315
803.632263,326
803.751221,324
803.870117,334
803.989014,307
804.107971,331
804.226746,316
804.345642,326
804.4646,325
804.583496,324
804.702393,326
804.821228,331
804.940125,318
805.059021,320
805.177917,318
805.296814,331
805.415649,303
805.534546,331
805.653442,332
805.772278,328
805.891113,312
806.01001,321
806.128906,321
806.247742,324
806.366577,319
806.485413,325
806.604309,326
806.723145,322
806.84198,317
806.960876,322
807.079712,314
807.198486,311
807.317383,304
807.436218,315
807.554993,315
807.673889,326
807.792725,330
807.91156,322
808.030396,322
808.14917,338
808.268005,325
808.386841,326
808.505676,319
808.624451,321
808.743286,323
808.862122,319
808.980896,336
809.099731,318
809.218506,320
809.337341,304
809.456116,334
809.57489,332
809.693726,318
809.8125,319
809.931274,323
810.050049,332
810.168884,316
810.287659,316
810.406372,330
810.525269,320
810.643982,334
810.762756,323
810.881531,321
811.000305,317
811.11908,320
811.237854,326
811.356567,323
811.475403,325
811.594116,312
811.71283,324
811.831604,314
811.950378,321
812.069153,325
812.187927,324
812.30658,319
812.425415,319
812.544128,314
812.662781,325
812.781616,333
812.900269,325
813.019043,307
813.137756,327
813.256531,331
813.375244,342
813.493896,321
813.612671,326
813.731384,328
813.850037,314
813.96875,332
814.087524,322
814.206238,325
814.324951,313
814.443604,315
814.562256,318
814.68103,316
814.799683,316
814.918335,331
815.037109,335
815.155762,310
815.274475,314
815.393188,325
815.511841,321
815.630554,321
815.749146,309
815.867859,332
815.986572,317
816.105164,324
816.223877,335
816.342529,312
816.461182,328
816.579895,320
816.698486,333
816.817139,320
816.935791,326
817.054504,325
817.173096,322
817.291748,324
817.4104,315
817.529053,313
817.647644,324
817.766235,328
817.884949,324
818.00354,324
818.122192,318
818.240845,315
818.359436,323
818.478088,327
818.59668,323
818.715271,323
818.833923,321
818.952515,320
819.071106,323
819.189758,311
819.30835,334
819.426941,312
819.545532,328
819.664124,305
819.782715,304
819.901306,321
820.019897,324
820.138489,316
820.25708,319
820.375671,318
820.494202,322
820.612732,310
820.731384,322
820.849915,312
820.968506,316
821.087097,320
821.205627,304
821.324158,320
821.442749,320
821.561279,321
821.679871,318
821.798401,313
821.916931,329
822.035461,323
822.154053,314
822.272583,316
822.391174,308
822.509583,317
822.628174,312
822.746704,317
822.865234,338
822.983765,327
823.102295,314
823.220825,321
823.339294,316
823.457825,311
823.576355,324
823.694824,315
823.813354,341
823.931885,313
824.050354,308
824.168884,317
824.287354,316
824.405823,314
824.524353,328
824.642822,311
824.761353,312
824.879822,315
824.998291,309
825.116699,316
825.235291,313
825.353699,314
825.472168,317
825.590637,313
825.709106,312
825.827576,328
825.946045,314
826.064453,331
826.182983,329
826.301392,317
826.4198,322
826.53833,306
826.656738,312
826.775208,324
826.893677,315
827.012024,305
827.130493,313
827.248962,319
827.36731,311
827.485779,317
827.604248,317
827.722595,316
827.841064,329
827.959412,318
828.077942,314
828.196289,315
828.314636,300
828.433105,315
828.551514,322
828.669861,310
828.78833,314
828.906677,315
829.025085,312
829.143433,320
829.261841,300
829.38031,310
829.498657,317
829.617004,317
829.735413,332
829.85376,318
829.972107,322
830.090515,319
830.208862,327
830.327209,316
830.445557,315
830.563904,319
830.682312,318
830.800659,319
830.919006,316
831.037354,313
831.155701,304
831.274048,325
831.392395,315
831.51062,308
831.629028,307
831.747314,313
831.865662,326
831.984009,312
832.102356,323
832.220642,310
832.338928,317
832.457275,312
832.575623,323
832.693909,321
832.812134,317
832.930481,319
833.048828,321
833.167114,319
833.2854,324
833.403687,306
833.521973,318
833.640259,305
833.758545,324
833.876831,318
833.995056,310
834.113281,309
834.231628,306
834.349915,324
834.468201,315
834.586426,312
834.704651,311
834.822998,315
834.941162,324
835.059448,308
835.177673,328
835.295959,311
835.414246,303
835.53241,304
835.650635,319
835.768921,308
835.887146,313
836.005371,319
836.123596,327
836.241821,312
836.360046,319
836.478271,314
836.596497,328
836.714722,319
836.832886,321
836.95105,302
837.069336,330
837.1875,311
837.305725,309
837.423889,326
837.542053,318
837.660339,325
837.778503,309
837.896667,320
838.014832,311
838.132996,319
838.25116,321
838.369385,304
838.487488,322
838.605713,307
838.723877,314
838.84198,316
838.960205,314
839.078308,308
839.196472,333
839.314636,305
839.4328,325
839.550964,317
839.669067,323
839.787231,319
839.905396,306
840.023499,309
840.141602,307
840.259766,314
840.377869,308
840.495972,310
840.614136,314
840.732239,306
840.850342,323
840.968445,318
841.086548,323
841.204651,318
841.322754,326
841.440918,307
841.55896,314
841.677002,307
841.795166,314
841.913208,314
842.031311,319
842.149353,314
842.267456,331
842.385498,319
842.503601,315
842.621643,307
842.739746,305
842.857788,307
842.97583,319
843.093933,324
843.211975,324
843.330017,307
843.44812,322
843.566101,321
843.684204,325
843.802246,313
843.920227,338
844.038269,321
844.156311,313
844.274292,313
844.392395,303
844.510376,322
844.628357,310
844.74646,320
844.864441,326
844.982422,324
845.100403,312
845.218384,313
845.336426,318
845.454468,311
845.572449,313
845.69043,320
845.808411,325
845.926453,328
846.044373,321
846.162354,304
846.280396,325
846.398315,310
846.516296,323
846.634216,323
846.752197,310
846.870178,318
846.988098,316
847.106079,320
847.22406,315
847.34198,327
847.4599,325
847.577881,297
847.695801,328
847.813782,305
847.931641,325
848.049561,315
848.167603,312
848.285461,309
848.403381,309
848.521362,313
848.639221,320
848.75708,317
848.875,313
848.99292,309
849.110901,320
849.22876,312
849.34668,323
849.464539,316
849.582458,325
849.700317,305
849.818176,322
849.936096,320
850.053955,316
850.171875,306
850.289673,312
850.407593,335
850.525452,317
850.643311,316
850.761169,314
850.878967,303
850.996887,311
851.114746,311
851.232544,322
851.350403,316
851.468262,325
851.58606,327
851.703979,315
851.821777,309
851.939636,313
852.057434,325
852.175232,316
852.293091,287
852.410889,325
852.528687,314
852.646545,334
852.764343,316
852.88208,312
852.999939,304
853.117676,305
853.235535,313
853.353271,309
853.471069,315
853.588928,318
853.706604,313
853.824402,324
853.9422,319
854.059998,316
854.177734,313
854.295532,323
854.413269,327
854.531006,319
854.648804,309
854.766541,327
854.884277,322
855.002014,315
855.119751,316
855.237549,321
855.355225,313
855.473022,312
855.590698,326
855.708435,325
855.826172,324
855.943848,320
856.061646,312
856.179321,314
856.296997,311
856.414795,312
856.53241,311
856.650085,326
856.767822,329
856.885559,322
857.003174,312
857.120911,318
857.238586,310
857.356201,328
857.473938,316
857.591614,326
857.709351,305
857.826965,322
857.944641,323
858.062317,327
858.179993,294
858.297668,317
858.415283,315
858.532959,326
858.650574,321
858.768188,310
858.885803,310
859.003479,302
859.121094,326
859.23877,308
859.356384,316
859.473999,315
859.591675,317
859.709229,324
859.826843,316
859.944458,321
860.062012,310
860.179626,318
860.297302,328
860.414856,327
860.532471,309
860.650024,305
860.767639,318
860.885193,316
861.002808,317
861.120361,320
861.237976,317
861.35553,318
861.473022,319
861.590698,315
861.708191,313
861.825745,318
861.943298,320
862.060852,319
862.178406,318
862.295959,329
862.413513,307
862.531006,324
862.64856,313
862.766113,330
862.883667,314
863.00116,327
863.118713,312
863.236206,331
863.353699,313
863.471252,324
863.588745,327
863.706177,318
863.82373,314
863.941162,314
864.058716,309
864.176208,315
864.29364,325
864.411194,315
864.528687,309
864.646118,325
864.763611,298
864.881042,322
864.998535,316
865.116028,322
865.233459,310
865.350891,333
865.468384,312
865.585754,323
865.703308,306
865.820679,329
865.938171,335
866.055542,324
866.173035,303
866.290466,313
866.407837,312
866.52533,320
866.6427,315
866.760071,321
866.877563,322
866.994934,317
867.112305,312
867.229736,318
867.347107,323
867.464539,316
867.58197,325
867.699341,319
867.81665,316
867.934082,326
868.051453,317
868.168823,316
868.286194,312
868.403564,308
868.520935,310
868.638306,316
868.755676,302
868.872986,326
868.990295,320
869.107727,306
869.225037,318
869.342346,311
869.459717,313
869.577026,314
869.694336,318
869.811707,310
869.929016,309
870.046326,313
870.163635,316
870.280945,319
870.398254,311
870.515564,316
870.632812,322
870.750183,319
870.867432,309
870.984741,326
871.102051,313
871.219299,325
871.336609,299
871.453918,321
871.571106,312
871.688416,316
871.805664,320
871.922852,326
872.040222,324
872.157471,311
872.274719,318
872.391968,317
872.509155,319
872.626465,328
872.743652,314
872.860962,311
872.978149,326
873.095337,333
873.212646,323
873.329834,310
873.44696,320
873.564209,297
873.681396,312
873.798645,324
873.915894,301
874.03302,307
874.150208,312
874.267456,316
874.384583,323
874.501831,321
874.618958,323
874.736145,323
874.853333,305
874.970459,334
875.087646,322
875.204834,322
875.32196,316
875.439148,312
875.556274,315
875.673401,321
875.790527,316
875.907715,332
876.024841,315
876.141968,335
876.259094,317
876.376282,322
876.493347,295
876.610474,330
876.7276,316
876.844727,322
876.961853,302
877.078918,305
877.195984,314
877.313171,311
877.430237,314
877.547302,319
877.664368,314
877.781433,326
877.898499,323
878.015625,317
878.13269,303
878.249695,314
878.366821,308
878.483887,318
878.600952,317
878.717957,312
878.834961,318
878.952087,328
879.069092,318
879.186157,307
879.303162,319
879.420227,319
879.537231,320
879.654236,331
879.77124,314
879.888306,311
880.005249,312
880.122314,305
880.239319,311
880.356323,324
880.473328,298
880.590271,318
880.707275,321
880.824341,326
880.941284,314
881.058228,315
881.175232,310
881.292236,319
881.40918,324
881.526123,328
881.643066,311
881.760071,329
881.877014,304
881.993958,324
882.11084,318
882.227783,310
882.344727,324
882.46167,316
882.578613,318
882.695618,322
882.812439,300
882.929382,312
883.046326,320
883.163208,326
883.280151,307
883.397034,323
883.513916,303
883.630798,339
883.747742,303
883.864563,310
883.981506,326
884.098389,324
884.21521,312
884.332153,330
884.448975,308
884.565796,309
884.682678,312
884.7995,310
884.916443,319
885.033264,324
885.150085,318
885.266968,332
885.383789,312
885.500671,329
885.617493,309
885.734314,322
885.851196,314
885.967896,328
886.084717,317
886.201599,322
886.318359,323
886.435181,310
886.552002,313
886.668762,322
886.785645,317
886.902344,330
887.019165,329
887.135925,320
887.252747,319
887.369446,329
887.486267,328
887.603027,327
887.719788,323
887.836548,329
887.953247,316
888.070068,333
888.186829,331
888.303528,322
888.420288,319
888.536987,329
888.653687,317
888.770447,329
888.887146,315
889.003967,322
889.120667,304
889.237305,316
889.354065,325
889.470703,316
889.587463,311
889.704163,320
889.820862,299
889.937561,320
890.054199,305
890.170837,317
890.287598,314
890.404236,312
890.520874,310
890.637634,329
890.754211,310
890.87085,306
890.987549,320
891.104187,323
891.220886,302
891.337463,316
891.454102,307
891.57074,328
891.687378,319
891.804077,328
891.920654,312
892.037231,317
892.15387,312
892.270447,326
892.387085,307
892.503723,338
892.6203,315
892.736877,311
892.853516,325
892.970032,323
893.08667,321
893.203186,310
893.319763,317
893.43634,311
893.552917,312
893.669556,322
893.786011,326
893.902588,314
894.019165,320
894.135681,307
894.252197,326
894.368835,319
894.485291,309
894.601868,308
894.718384,318
894.8349,322
894.951355,313
895.067932,312
895.184448,315
895.300964,316
895.417419,306
895.533936,328
895.650452,308
895.766907,324
895.883423,311
895.999878,327
896.116333,314
896.232849,323
896.349304,309
896.465759,311
896.582214,313
896.698669,313
896.815125,317
896.931641,323
897.048035,303
897.164551,324
897.280884,326
897.397339,325
897.513794,324
897.630249,319
897.746582,319
897.863098,308
897.979431,297
898.095886,316
898.212341,302
898.328674,321
898.445129,307
898.561462,315
898.677795,311
898.794312,318
898.910645,321
899.026978,315
899.143433,325
899.259766,312
899.37616,331
899.492493,322
899.608765,321
899.725159,312
899.841553,320
899.957947,326
900.07428,323
900.190552,317
900.306946,312
900.423157,317
900.53949,300
900.655884,318
900.772156,324
900.888489,317
901.004822,307
901.121033,320
901.237366,319
901.353699,316
901.46991,302
901.586304,306
901.702515,323
901.818787,312
901.93512,303
902.051331,327
902.167603,314
902.283875,318
902.400085,325
902.516418,321
902.632629,310
902.74884,320
902.865112,313
902.981384,317
903.097595,310
903.213867,330
903.330017,327
903.446289,322
903.5625,320
903.67865,331
903.794922,308
903.911072,324
904.027344,321
904.143494,320
904.259705,319
904.375916,327
904.492065,314
904.608215,324
904.724426,313
904.840576,313
904.956726,320
905.072876,324
905.189087,305
905.305176,312
905.421387,316
905.537537,317
905.653687,323
905.769775,317
905.885925,314
906.002014,315
906.118164,316
906.234314,314
906.350403,302
906.466492,313
906.582642,319
906.69873,326
906.814758,325
906.930908,314
907.046936,320
907.163086,332
907.279175,305
907.395264,316
907.511353,321
907.62738,299
907.743408,310
907.859497,313
907.975525,315
908.091553,309
908.207703,312
908.32373,326
908.439758,312
908.555786,310
908.671814,299
908.787842,326
908.90387,317
909.019775,320
909.135864,314
909.251892,307
909.367859,295
909.483826,311
909.599854,307
909.715881,325
909.831848,324
909.947815,327
910.063782,308
910.179749,315
910.295776,326
910.411743,323
910.527649,314
910.643616,326
910.759583,307
910.875488,321
910.991455,305
911.107361,318
911.223267,309
911.339294,315
911.4552,315
911.571106,316
911.687073,316
911.802979,313
911.918823,305
912.034729,322
912.150635,308
912.266602,311
912.382446,314
912.498352,306
912.614197,315
912.730103,317
912.846008,314
792.44574,321
792.56488,362
792.68396,398
792.80304,378
792.92218,332
793.041199,336
793.160339,316
793.279419,356
793.398499,331
793.517578,322
793.636658,319
793.755737,329
793.874817,352
793.993896,337
794.112976,322
794.232056,330
794.351074,324
794.470215,339
794.589233,337
794.708313,320
794.827393,349
794.946411,341
795.065552,331
795.18457,332
795.303589,334
795.422668,332
795.541687,337
795.660767,331
795.779846,319
795.898865,326
796.017883,338
796.136963,334
796.255981,334
796.375061,324
796.49408,318
796.613037,339
796.732117,320
796.851135,343
796.970154,341
797.089233,334
797.208191,326
797.327271,323
797.446228,325
797.565186,332
797.684265,324
797.803223,319
797.922241,346
798.04126,321
798.160278,330
798.279297,329
798.398315,337
798.517273,315
798.636292,341
798.75531,324
798.874268,326
798.993286,317
799.112244,334
799.231323,331
799.350281,332
799.469238,330
799.588257,329
799.707153,318
799.826111,321
799.945129,327
800.064087,303
800.183044,328
800.302063,335
800.421021,317
800.539978,336
800.658936,319
800.777893,318
800.896912,317
801.015747,316
801.134705,333
801.253723,330
801.37262,316
801.491638,341
801.610535,314
801.729492,319
801.84845,324
801.967407,331
802.086243,331
802.205261,316
802.324158,331
802.443115,315
802.562073,313
802.680969,322
802.799927,330
802.918762,329
803.037659,325
803.156677,317
803.275574,328
803.39447,322
803.513428,325
803.632263,327
803.751221,318
803.870117,316
803.989014,326
804.107971,320
804.226746,324
804.345642,328
804.4646,322
804.583496,320
804.702393,310
804.821228,325
804.940125,325
805.059021,318
805.177917,321
805.296814,320
805.415649,317
805.534546,333
805.653442,316
805.772278,310
805.891113,328
806.01001,320
806.128906,323
806.247742,311
806.366577,328
806.485413,324
806.604309,323
806.723145,311
806.84198,337
806.960876,306
807.079712,323
807.198486,328
807.317383,312
807.436218,325
807.554993,335
807.673889,319
807.792725,325
807.91156,317
808.030396,325
808.14917,320
808.268005,325
808.386841,325
808.505676,313
808.624451,319
808.743286,321
808.862122,322
808.980896,326
809.099731,318
809.218506,321
809.337341,327
809.456116,330
809.57489,311
809.693726,307
809.8125,332
809.931274,322
810.050049,337
810.168884,332
810.287659,325
810.406372,327
810.525269,316
810.643982,317
810.762756,328
810.881531,311
811.000305,321
811.11908,331
811.237854,333
811.356567,324
811.475403,317
811.594116,320
811.71283,320
811.831604,330
811.950378,326
812.069153,320
812.187927,326
812.30658,329
812.425415,316
812.544128,340
812.662781,319
812.781616,325
812.900269,314
813.019043,323
813.137756,310
813.256531,336
813.375244,307
813.493896,339
813.612671,316
813.731384,323
813.850037,306
813.96875,330
814.087524,328
814.206238,329
814.324951,316
814.443604,324
814.562256,309
814.68103,324
814.799683,332
814.918335,330
815.037109,316
815.155762,322
815.274475,314
815.393188,323
815.511841,325
815.630554,322
815.749146,324
815.867859,324
815.986572,329
816.105164,315
816.223877,331
816.342529,322
816.461182,323
816.579895,324
816.698486,322
816.817139,322
816.935791,320
817.054504,318
817.173096,311
817.291748,333
817.4104,320
817.529053,322
817.647644,320
817.766235,311
817.884949,320
818.00354,321
818.122192,319
818.240845,312
818.359436,322
818.478088,320
818.59668,318
818.715271,326
818.833923,318
818.952515,326
819.071106,312
819.189758,323
819.30835,316
819.426941,324
819.545532,317
819.664124,315
819.782715,310
819.901306,317
820.019897,324
820.138489,317
820.25708,313
820.375671,332
820.494202,302
820.612732,321
820.731384,314
820.849915,321
820.968506,322
821.087097,316
821.205627,312
821.324158,322
821.442749,311
821.561279,313
821.679871,320
821.798401,332
821.916931,322
822.035461,323
822.154053,323
822.272583,320
822.391174,312
822.509583,319
822.628174,323
822.746704,315
822.865234,331
822.983765,321
823.102295,299
823.220825,324
823.339294,305
823.457825,323
823.576355,319
823.694824,323
823.813354,334
823.931885,303
824.050354,330
824.168884,327
824.287354,321
824.405823,321
824.524353,315
824.642822,326
824.761353,319
824.879822,328
824.998291,330
825.116699,307
825.235291,317
825.353699,307
825.472168,325
825.590637,324
825.709106,319
825.827576,320
825.946045,321
826.064453,315
826.182983,317
826.301392,321
826.4198,313
826.53833,318
826.656738,312
826.775208,315
826.893677,313
827.012024,312
827.130493,321
827.248962,322
827.36731,314
827.485779,303
827.604248,329
827.722595,309
827.841064,317
827.959412,312
828.077942,302
828.196289,319
828.314636,317
828.433105,313
828.551514,311
828.669861,330
828.78833,319
828.906677,324
829.025085,326
829.143433,318
829.261841,314
829.38031,311
829.498657,315
829.617004,317
829.735413,305
829.85376,327
829.972107,310
830.090515,303
830.208862,296
830.327209,323
830.445557,311
830.563904,317
830.682312,321
830.800659,310
830.919006,320
831.037354,316
831.155701,327
831.274048,315
831.392395,323
831.51062,319
831.629028,320
831.747314,318
831.865662,313
831.984009,325
832.102356,317
832.220642,323
832.338928,319
832.457275,326
832.575623,319
832.693909,311
832.812134,326
832.930481,325
833.048828,322
833.167114,306
833.2854,310
833.403687,300
833.521973,325
833.640259,304
833.758545,313
833.876831,304
833.995056,327
834.113281,323
834.231628,320
834.349915,316
834.468201,320
834.586426,324
834.704651,326
834.822998,322
834.941162,311
835.059448,328
835.177673,319
835.295959,325
835.414246,325
835.53241,309
835.650635,315
835.768921,313
835.887146,310
836.005371,327
836.123596,322
836.241821,325
836.360046,308
836.478271,321
836.596497,308
836.714722,297
836.832886,301
836.95105,325
837.069336,308
837.1875,322
837.305725,323
837.423889,322
837.542053,315
837.660339,328
837.778503,311
837.896667,330
838.014832,328
838.132996,317
838.25116,320
838.369385,335
838.487488,308
838.605713,311
838.723877,319
838.84198,322
838.960205,313
839.078308,328
839.196472,316
839.314636,324
839.4328,321
839.550964,319
839.669067,326
839.787231,334
839.905396,317
840.023499,311
840.141602,325
840.259766,327
840.377869,308
840.495972,309
840.614136,322
840.732239,318
840.850342,325
840.968445,332
841.086548,307
841.204651,310
841.322754,312
841.440918,332
841.55896,317
841.677002,323
841.795166,332
841.913208,315
842.031311,333
842.149353,314
842.267456,327
842.385498,324
842.503601,321
842.621643,323
842.739746,310
842.857788,311
842.97583,323
843.093933,327
843.211975,311
843.330017,325
843.44812,314
843.566101,330
843.684204,314
843.802246,323
843.920227,322
844.038269,312
844.156311,328
844.274292,315
844.392395,315
844.510376,322
844.628357,316
844.74646,319
844.864441,319
844.982422,318
845.100403,309
845.218384,328
845.336426,310
845.454468,316
845.572449,312
845.69043,328
845.808411,314
845.926453,315
846.044373,317
846.162354,301
846.280396,318
846.398315,310
846.516296,316
846.634216,313
846.752197,311
846.870178,323
846.988098,318
847.106079,310
847.22406,325
847.34198,323
847.4599,316
847.577881,314
847.695801,322
847.813782,330
847.931641,309
848.049561,317
848.167603,310
848.285461,322
848.403381,307
848.521362,334
848.639221,317
848.75708,322
848.875,314
848.99292,329
849.110901,315
849.22876,310
849.34668,323
849.464539,314
849.582458,323
849.700317,325
849.818176,316
849.936096,324
850.053955,324
850.171875,314
850.289673,318
850.407593,307
850.525452,306
850.643311,313
850.761169,323
850.878967,302
850.996887,324
851.114746,319
851.232544,312
851.350403,315
851.468262,310
851.58606,325
851.703979,310
851.821777,314
851.939636,325
852.057434,327
852.175232,324
852.293091,325
852.410889,321
852.528687,319
852.646545,313
852.764343,326
852.88208,314
852.999939,317
853.117676,314
853.235535,317
853.353271,314
853.471069,318
853.588928,327
853.706604,331
853.824402,318
853.9422,323
854.059998,308
854.177734,324
854.295532,316
854.413269,326
854.531006,310
854.648804,322
854.766541,327
854.884277,313
855.002014,324
855.119751,320
855.237549,324
855.355225,328
855.473022,321
855.590698,315
855.708435,307
855.826172,310
855.943848,314
856.061646,310
856.179321,308
856.296997,320
856.414795,316
856.53241,329
856.650085,315
856.767822,301
856.885559,310
857.003174,322
857.120911,313
857.238586,309
857.356201,318
857.473938,316
857.591614,319
857.709351,323
857.826965,317
857.944641,318
858.062317,322
858.179993,318
858.297668,320
858.415283,317
858.532959,320
858.650574,336
858.768188,321
858.885803,318
859.003479,316
859.121094,315
859.23877,321
859.356384,315
859.473999,328
859.591675,309
859.709229,315
859.826843,315
859.944458,314
860.062012,325
860.179626,313
860.297302,321
860.414856,324
860.532471,319
860.650024,320
860.767639,333
860.885193,324
861.002808,314
861.120361,314
861.237976,313
861.35553,315
861.473022,315
861.590698,326
861.708191,317
861.825745,322
861.943298,328
862.060852,314
862.178406,324
862.295959,313
862.413513,327
862.531006,317
862.64856,320
862.766113,310
862.883667,309
863.00116,317
863.118713,331
863.236206,329
863.353699,308
863.471252,300
863.588745,333
863.706177,320
863.82373,322
863.941162,323
864.058716,325
864.176208,328
864.29364,328
864.411194,323
864.528687,323
864.646118,314
864.763611,328
864.881042,321
864.998535,322
865.116028,325
865.233459,309
865.350891,324
865.468384,315
865.585754,319
865.703308,330
865.820679,308
865.938171,316
866.055542,326
866.173035,312
866.290466,313
866.407837,314
866.52533,317
866.6427,315
866.760071,312
866.877563,328
866.994934,311
867.112305,321
867.229736,311
867.347107,320
867.464539,313
867.58197,318
867.699341,315
867.81665,314
867.934082,323
868.051453,322
868.168823,302
868.286194,316
868.403564,314
868.520935,300
868.638306,319
868.755676,325
868.872986,329
868.990295,318
869.107727,310
869.225037,333
869.342346,315
869.459717,308
869.577026,308
869.694336,327
869.811707,318
869.929016,325
870.046326,322
870.163635,311
870.280945,321
870.398254,322
870.515564,321
870.632812,317
870.750183,315
870.867432,324
870.984741,309
871.102051,331
871.219299,318
871.336609,313
871.453918,306
871.571106,318
871.688416,315
871.805664,326
871.922852,309
872.040222,322
872.157471,316
872.274719,318
872.391968,316
872.509155,323
872.626465,318
872.743652,312
872.860962,309
872.978149,319
873.095337,314
873.212646,311
873.329834,324
873.44696,313
873.564209,322
873.681396,328
873.798645,322
873.915894,316
874.03302,315
874.150208,318
874.267456,313
874.384583,306
874.501831,333
874.618958,323
874.736145,338
874.853333,318
874.970459,306
875.087646,323
875.204834,306
875.32196,336
875.439148,322
875.556274,316
875.673401,324
875.790527,312
875.907715,311
876.024841,312
876.141968,328
876.259094,324
876.376282,313
876.493347,326
876.610474,319
876.7276,312
876.844727,313
876.961853,319
877.078918,319
877.195984,321
877.313171,315
877.430237,333
877.547302,320
877.664368,320
877.781433,320
877.898499,313
878.015625,314
878.13269,319
878.249695,330
878.366821,327
878.483887,320
878.600952,336
878.717957,319
878.834961,321
878.952087,301
879.069092,321
879.186157,318
879.303162,320
879.420227,319
879.537231,317
879.654236,311
879.77124,313
879.888306,308
880.005249,319
880.122314,310
880.239319,325
880.356323,324
880.473328,319
880.590271,317
880.707275,307
880.824341,311
880.941284,317
881.058228,313
881.175232,324
881.292236,321
881.40918,323
881.526123,327
881.643066,312
881.760071,305
881.877014,306
881.993958,303
882.11084,318
882.227783,316
882.344727,324
882.46167,315
882.578613,316
882.695618,318
882.812439,317
882.929382,315
883.046326,310
883.163208,321
883.280151,328
883.397034,309
883.513916,318
883.630798,314
883.747742,316
883.864563,303
883.981506,309
884.098389,316
884.21521,313
884.332153,321
884.448975,313
884.565796,306
884.682678,335
884.7995,316
884.916443,312
885.033264,311
885.150085,317
885.266968,320
885.383789,321
885.500671,318
885.617493,318
885.734314,315
885.851196,325
885.967896,305
886.084717,327
886.201599,309
886.318359,320
886.435181,312
886.552002,327
886.668762,326
886.785645,310
886.902344,312
887.019165,331
887.135925,322
887.252747,321
887.369446,321
887.486267,313
887.603027,318
887.719788,303
887.836548,323
887.953247,316
888.070068,316
888.186829,330
888.303528,315
888.420288,319
888.536987,317
888.653687,313
888.770447,318
888.887146,326
889.003967,310
889.120667,318
889.237305,312
889.354065,319
889.470703,327
889.587463,317
889.704163,326
889.820862,322
889.937561,307
890.054199,319
890.170837,311
890.287598,314
890.404236,313
890.520874,333
890.637634,326
890.754211,323
890.87085,317
890.987549,295
891.104187,316
891.220886,310
891.337463,313
891.454102,323
891.57074,305
891.687378,320
891.804077,313
891.920654,309
892.037231,311
892.15387,328
892.270447,322
892.387085,320
892.503723,315
892.6203,318
892.736877,309
892.853516,319
892.970032,302
893.08667,316
893.203186,327
893.319763,315
893.43634,318
893.552917,318
893.669556,324
893.786011,326
893.902588,309
894.019165,323
894.135681,317
894.252197,319
894.368835,318
894.485291,321
894.601868,317
894.718384,314
894.8349,313
894.951355,309
895.067932,315
895.184448,324
895.300964,313
895.417419,315
895.533936,314
895.650452,316
895.766907,302
895.883423,324
895.999878,312
896.116333,313
896.232849,312
896.349304,319
896.465759,313
896.582214,313
896.698669,312
896.815125,318
896.931641,325
897.048035,330
897.164551,313
897.280884,332
897.397339,313
897.513794,328
897.630249,311
897.746582,312
897.863098,312
897.979431,331
898.095886,314
898.212341,313
898.328674,313
898.445129,312
898.561462,327
898.677795,315
898.794312,320
898.910645,318
899.026978,322
899.143433,315
899.259766,321
899.37616,307
899.492493,328
899.608765,309
899.725159,312
899.841553,330
899.957947,329
900.07428,315
900.190552,316
900.306946,319
900.423157,307
900.53949,319
900.655884,306
900.772156,320
900.888489,309
901.004822,335
901.121033,321
901.237366,329
901.353699,313
901.46991,311
901.586304,322
901.702515,315
901.818787,316
901.93512,314
902.051331,340
902.167603,319
902.283875,325
902.400085,317
902.516418,309
902.632629,318
902.74884,323
902.865112,317
902.981384,310
903.097595,327
903.213867,324
903.330017,327
903.446289,330
903.5625,318
903.67865,327
903.794922,328
903.911072,327
904.027344,317
904.143494,318
904.259705,315
904.375916,312
904.492065,327
904.608215,325
904.724426,320
904.840576,308
904.956726,317
905.072876,313
905.189087,319
905.305176,314
905.421387,311
905.537537,308
905.653687,329
905.769775,329
905.885925,316
906.002014,315
906.118164,302
906.234314,307
906.350403,314
906.466492,316
906.582642,328
906.69873,327
906.814758,319
906.930908,312
907.046936,316
907.163086,327
907.279175,322
907.395264,323
907.511353,317
907.62738,302
907.743408,318
907.859497,317
907.975525,311
908.091553,322
908.207703,324
908.32373,313
908.439758,319
908.555786,322
908.671814,325
908.787842,306
908.90387,319
909.019775,304
909.135864,326
909.251892,322
909.367859,315
909.483826,333
909.599854,313
909.715881,309
909.831848,326
909.947815,314
910.063782,315
910.179749,323
910.295776,325
910.411743,304
910.527649,314
910.643616,325
910.759583,320
910.875488,318
910.991455,316
911.107361,323
911.223267,308
911.339294,314
911.4552,316
911.571106,305
911.687073,314
911.802979,316
911.918823,303
912.034729,325
912.150635,331
912.266602,316
912.382446,319
912.498352,313
912.614197,323
912.730103,311
912.846008,324
792.44574,331
792.56488,353
792.68396,401
792.80304,385
792.92218,337
793.041199,316
793.160339,321
793.279419,345
793.398499,337
793.517578,318
793.636658,318
793.755737,338
793.874817,367
793.993896,343
794.112976,344
794.232056,335
794.351074,341
794.470215,343
794.589233,339
794.708313,328
794.827393,334
794.946411,334
795.065552,340
795.18457,329
795.303589,332
795.422668,322
795.541687,337
795.660767,318
795.779846,323
795.898865,326
796.017883,321
796.136963,327
796.255981,313
796.375061,340
796.49408,339
796.613037,342
796.732117,319
796.851135,334
796.970154,328
797.089233,338
797.208191,328
797.327271,326
797.446228,330
797.565186,337
797.684265,320
797.803223,323
797.922241,325
798.04126,332
798.160278,317
798.279297,333
798.398315,330
798.517273,323
798.636292,326
798.75531,319
798.874268,329
798.993286,320
799.112244,328
799.231323,331
799.350281,333
799.469238,313
799.588257,325
799.707153,330
799.826111,323
799.945129,315
800.064087,337
800.183044,323
800.302063,318
800.421021,315
800.539978,318
800.658936,330
800.777893,331
800.896912,327
801.015747,341
801.134705,312
801.253723,335
801.37262,329
801.491638,322
801.610535,327
801.729492,321
801.84845,325
801.967407,316
802.086243,317
802.205261,306
802.324158,310
802.443115,335
802.562073,322
802.680969,312
802.799927,324
802.918762,302
803.037659,323
803.156677,328
803.275574,306
803.39447,339
803.513428,324
803.632263,328
803.751221,303
803.870117,339
803.989014,314
804.107971,320
804.226746,319
804.345642,333
804.4646,318
804.583496,316
804.702393,335
804.821228,313
804.940125,327
805.059021,332
805.177917,324
805.296814,316
805.415649,338
805.534546,312
805.653442,311
805.772278,318
805.891113,321
806.01001,314
806.128906,322
806.247742,323
806.366577,329
806.485413,313
806.604309,328
806.723145,339
806.84198,332
806.960876,325
807.079712,335
807.198486,325
807.317383,320
807.436218,313
807.554993,309
807.673889,324
807.792725,329
807.91156,322
808.030396,313
808.14917,329
808.268005,312
808.386841,325
808.505676,323
808.624451,330
808.743286,329
808.862122,320
808.980896,314
809.099731,320
809.218506,333
809.337341,324
809.456116,325
809.57489,315
809.693726,331
809.8125,304
809.931274,322
810.050049,318
810.168884,325
810.287659,319
810.406372,319
810.525269,323
810.643982,322
810.762756,320
810.881531,314
811.000305,322
811.11908,333
811.237854,326
811.356567,333
811.475403,321
811.594116,313
811.71283,322
811.831604,328
811.950378,324
812.069153,314
812.187927,324
812.30658,318
812.425415,320
812.544128,330
812.662781,306
812.781616,316
812.900269,321
813.019043,327
813.137756,319
813.256531,312
813.375244,338
813.493896,317
813.612671,316
813.731384,323
813.850037,319
813.96875,323
814.087524,333
814.206238,318
814.324951,323
814.443604,318
814.562256,312
814.68103,310
814.799683,309
814.918335,327
815.037109,318
815.155762,315
815.274475,330
815.393188,324
815.511841,318
815.630554,315
815.749146,332
815.867859,322
815.986572,331
816.105164,322
816.223877,331
816.342529,320
816.461182,317
816.579895,330
816.698486,321
816.817139,321
816.935791,305
817.054504,312
817.173096,312
817.291748,312
817.4104,339
817.529053,324
817.647644,310
817.766235,327
817.884949,296
818.00354,316
818.122192,307
818.240845,337
818.359436,311
818.478088,319
818.59668,322
818.715271,327
818.833923,330
818.952515,316
819.071106,313
819.189758,315
819.30835,327
819.426941,311
819.545532,305
819.664124,320
819.782715,325
819.901306,307
820.019897,325
820.138489,312
820.25708,318
820.375671,328
820.494202,324
820.612732,331
820.731384,312
820.849915,320
820.968506,321
821.087097,318
821.205627,310
821.324158,329
821.442749,321
821.561279,320
821.679871,302
821.798401,321
821.916931,306
822.035461,324
822.154053,314
822.272583,315
822.391174,329
822.509583,319
822.628174,322
822.746704,304
822.865234,319
822.983765,312
823.102295,334
823.220825,325
823.339294,316
823.457825,319
823.576355,314
823.694824,321
823.813354,319
823.931885,318
824.050354,304
824.168884,319
824.287354,330
824.405823,312
824.524353,321
824.642822,316
824.761353,302
824.879822,316
824.998291,315
825.116699,315
825.235291,308
825.353699,310
825.472168,317
825.590637,314
825.709106,313
825.827576,326
825.946045,325
826.064453,327
826.182983,320
826.301392,323
826.4198,316
826.53833,326
826.656738,310
826.775208,310
826.893677,308
827.012024,305
827.130493,319
827.248962,320
827.36731,320
827.485779,328
827.604248,317
827.722595,319
827.841064,324
827.959412,331
828.077942,310
828.196289,314
828.314636,307
828.433105,312
828.551514,327
828.669861,323
828.78833,304
828.906677,314
829.025085,315
829.143433,321
829.261841,322
829.38031,338
829.498657,321
829.617004,316
829.735413,313
829.85376,329
829.972107,310
830.090515,313
830.208862,306
830.327209,314
830.445557,310
830.563904,324
830.682312,310
830.800659,326
830.919006,316
831.037354,329
831.155701,314
831.274048,317
831.392395,327
831.51062,307
831.629028,313
831.747314,323
831.865662,305
831.984009,316
832.102356,310
832.220642,321
832.338928,319
832.457275,310
832.575623,313
832.693909,323
832.812134,321
832.930481,328
833.048828,311
833.167114,324
833.2854,315
833.403687,309
833.521973,319
833.640259,314
833.758545,320
833.876831,325
833.995056,307
834.113281,309
834.231628,323
834.349915,316
834.468201,317
834.586426,317
834.704651,321
834.822998,325
834.941162,311
835.059448,325
835.177673,316
835.295959,322
835.414246,322
835.53241,318
835.650635,316
835.768921,329
835.887146,316
836.005371,322
836.123596,313
836.241821,311
836.360046,315
836.478271,319
836.596497,318
836.714722,322
836.832886,321
836.95105,330
837.069336,320
837.1875,326
837.305725,315
837.423889,322
837.542053,304
837.660339,324
837.778503,323
837.896667,297
838.014832,319
838.132996,323
838.25116,317
838.369385,309
838.487488,311
838.605713,318
838.723877,314
838.84198,309
838.960205,310
839.078308,321
839.196472,320
839.314636,315
839.4328,315
839.550964,318
839.669067,326
839.787231,325
839.905396,314
840.023499,330
840.141602,308
840.259766,312
840.377869,320
840.495972,310
840.614136,321
840.732239,312
840.850342,334
840.968445,317
841.086548,305
841.204651,312
841.322754,304
841.440918,324
841.55896,329
841.677002,331
841.795166,314
841.913208,312
842.031311,312
842.149353,323
842.267456,323
842.385498,315
842.503601,311
842.621643,330
842.739746,309
842.857788,330
842.97583,313
843.093933,310
843.211975,317
843.330017,326
843.44812,327
843.566101,316
843.684204,308
843.802246,320
843.920227,324
844.038269,326
844.156311,321
844.274292,311
844.392395,315
844.510376,317
844.628357,310
844.74646,313
844.864441,317
844.982422,323
845.100403,312
845.218384,325
845.336426,313
845.454468,317
845.572449,306
845.69043,323
845.808411,310
845.926453,322
846.044373,314
846.162354,302
846.280396,313
846.398315,320
846.516296,320
846.634216,306
846.752197,310
846.870178,326
846.988098,326
847.106079,316
847.22406,311
847.34198,315
847.4599,325
847.577881,307
847.695801,316
847.813782,315
847.931641,320
848.049561,329
848.167603,327
848.285461,319
848.403381,318
848.521362,322
848.639221,314
848.75708,322
848.875,321
848.99292,309
849.110901,312
849.22876,325
849.34668,307
849.464539,323
849.582458,316
849.700317,319
849.818176,334
849.936096,321
850.053955,314
850.171875,321
850.289673,324
850.407593,325
850.525452,318
850.643311,307
850.761169,299
850.878967,308
850.996887,310
851.114746,328
851.232544,318
851.350403,313
851.468262,323
851.58606,336
851.703979,317
851.821777,317
851.939636,314
852.057434,323
852.175232,308
852.293091,307
852.410889,327
852.528687,319
852.646545,317
852.764343,321
852.88208,332
852.999939,309
853.117676,316
853.235535,322
853.353271,325
853.471069,322
853.588928,310
853.706604,311
853.824402,314
853.9422,321
854.059998,320
854.177734,314
854.295532,314
854.413269,313
854.531006,320
854.648804,312
854.766541,300
854.884277,327
855.002014,310
855.119751,315
855.237549,310
855.355225,324
855.473022,322
855.590698,309
855.708435,315
855.826172,307
855.943848,313
856.061646,320
856.179321,329
856.296997,332
856.414795,332
856.53241,314
856.650085,302
856.767822,312
856.885559,323
857.003174,326
857.120911,310
857.238586,318
857.356201,325
857.473938,314
857.591614,325
857.709351,312
857.826965,322
857.944641,325
858.062317,304
858.179993,316
858.297668,312
858.415283,316
858.532959,326
858.650574,325
858.768188,305
858.885803,326
859.003479,319
859.121094,308
859.23877,313
859.356384,307
859.473999,329
859.591675,309
859.709229,317
859.826843,309
859.944458,309
860.062012,312
860.179626,318
860.297302,314
860.414856,321
860.532471,314
860.650024,304
860.767639,329
860.885193,323
861.002808,321
861.120361,326
861.237976,326
861.35553,315
861.473022,325
861.590698,313
861.708191,316
861.825745,304
861.943298,303
862.060852,310
862.178406,314
862.295959,318
862.413513,312
862.531006,322
862.64856,316
862.766113,312
862.883667,310
863.00116,316
863.118713,331
863.236206,319
863.353699,330
863.471252,306
863.588745,312
863.706177,327
863.82373,315
863.941162,320
864.058716,310
864.176208,312
864.29364,319
864.411194,318
864.528687,306
864.646118,315
864.763611,323
864.881042,309
864.998535,306
865.116028,321
865.233459,319
865.350891,305
865.468384,315
865.585754,309
865.703308,333
865.820679,316
865.938171,315
866.055542,314
866.173035,310
866.290466,311
866.407837,318
866.52533,320
866.6427,322
866.760071,326
866.877563,326
866.994934,308
867.112305,318
867.229736,320
867.347107,319
867.464539,310
867.58197,326
867.699341,318
867.81665,315
867.934082,311
868.051453,328
868.168823,317
868.286194,327
868.403564,315
868.520935,315
868.638306,318
868.755676,326
868.872986,312
868.990295,318
869.107727,309
869.225037,318
869.342346,314
869.459717,319
869.577026,325
869.694336,325
869.811707,325
869.929016,312
870.046326,310
870.163635,315
870.280945,304
870.398254,317
870.515564,314
870.632812,323
870.750183,322
870.867432,312
870.984741,314
871.102051,308
871.219299,309
871.336609,340
871.453918,323
871.571106,322
871.688416,315
871.805664,315
871.922852,321
872.040222,320
872.157471,331
872.274719,315
872.391968,322
872.509155,332
872.626465,314
872.743652,315
872.860962,324
872.978149,327
873.095337,308
873.212646,323
873.329834,325
873.44696,330
873.564209,310
873.681396,311
873.798645,318
873.915894,327
874.03302,315
874.150208,314
874.267456,312
874.384583,317
874.501831,324
874.618958,318
874.736145,320
874.853333,318
874.970459,309
875.087646,310
875.204834,306
875.32196,320
875.439148,317
875.556274,319
875.673401,312
875.790527,325
875.907715,320
876.024841,325
876.141968,321
876.259094,323
876.376282,315
876.493347,324
876.610474,314
876.7276,329
876.844727,321
876.961853,311
877.078918,323
877.195984,326
877.313171,314
877.430237,318
877.547302,316
877.664368,309
877.781433,307
877.898499,327
878.015625,313
878.13269,328
878.249695,307
878.366821,313
878.483887,309
878.600952,315
878.717957,316
878.834961,312
878.952087,316
879.069092,328
879.186157,310
879.303162,314
879.420227,305
879.537231,331
879.654236,311
879.77124,327
879.888306,304
880.005249,326
880.122314,311
880.239319,305
880.356323,324
880.473328,311
880.590271,315
880.707275,329
880.824341,313
880.941284,312
881.058228,315
881.175232,307
881.292236,320
881.40918,311
881.526123,304
881.643066,320
881.760071,309
881.877014,325
881.993958,318
882.11084,318
882.227783,326
882.344727,305
882.46167,307
882.578613,323
882.695618,322
882.812439,312
882.929382,314
883.046326,318
883.163208,315
883.280151,323
883.397034,324
883.513916,324
883.630798,315
883.747742,318
883.864563,309
883.981506,312
884.098389,300
884.21521,324
884.332153,301
884.448975,320
884.565796,317
884.682678,324
884.7995,322
884.916443,323
885.033264,321
885.150085,327
885.266968,326
885.383789,322
885.500671,324
885.617493,327
885.734314,323
885.851196,312
885.967896,331
886.084717,309
886.201599,327
886.318359,315
886.435181,309
886.552002,329
886.668762,314
886.785645,318
886.902344,324
887.019165,310
887.135925,302
887.252747,334
887.369446,319
887.486267,323
887.603027,317
887.719788,316
887.836548,311
887.953247,312
888.070068,322
888.186829,315
888.303528,322
888.420288,327
888.536987,300
888.653687,327
888.770447,317
888.887146,314
889.003967,308
889.120667,318
889.237305,300
889.354065,309
889.470703,318
889.587463,319
889.704163,302
889.820862,308
889.937561,309
890.054199,309
890.170837,312
890.287598,322
890.404236,314
890.520874,312
890.637634,303
890.754211,311
890.87085,313
890.987549,314
891.104187,321
891.220886,311
891.337463,310
891.454102,311
891.57074,316
891.687378,314
891.804077,314
891.920654,318
892.037231,313
892.15387,319
892.270447,321
892.387085,316
892.503723,304
892.6203,319
892.736877,320
892.853516,317
892.970032,308
893.08667,312
893.203186,310
893.319763,331
893.43634,315
893.552917,325
893.669556,312
893.786011,331
893.902588,315
894.019165,314
894.135681,328
894.252197,323
894.368835,328
894.485291,326
894.601868,315
894.718384,320
894.8349,316
894.951355,336
895.067932,312
895.184448,319
895.300964,309
895.417419,317
895.533936,323
895.650452,309
895.766907,308
895.883423,332
895.999878,314
896.116333,338
896.232849,315
896.349304,310
896.465759,314
896.582214,318
896.698669,315
896.815125,313
896.931641,297
897.048035,310
897.164551,316
897.280884,329
897.397339,312
897.513794,319
897.630249,309
897.746582,308
897.863098,313
897.979431,308
898.095886,304
898.212341,321
898.328674,317
898.445129,311
898.561462,310
898.677795,314
898.794312,327
898.910645,318
899.026978,338
899.143433,326
899.259766,301
899.37616,321
899.492493,300
899.608765,339
899.725159,320
899.841553,313
899.957947,304
900.07428,308
900.190552,320
900.306946,317
900.423157,320
900.53949,327
900.655884,321
900.772156,329
900.888489,307
901.004822,316
901.121033,330
901.237366,311
901.353699,322
901.46991,301
901.586304,320
901.702515,329
901.818787,309
901.93512,314
902.051331,320
902.167603,306
902.283875,324
902.400085,321
902.516418,319
902.632629,314
902.74884,311
902.865112,320
902.981384,315
903.097595,328
903.213867,315
903.330017,313
903.446289,315
903.5625,328
903.67865,318
903.794922,320
903.911072,322
904.027344,323
904.143494,307
904.259705,319
904.375916,305
904.492065,318
904.608215,327
904.724426,320
904.840576,312
904.956726,323
905.072876,321
905.189087,324
905.305176,316
905.421387,319
905.537537,315
905.653687,312
905.769775,311
905.885925,328
906.002014,320
906.118164,318
906.234314,320
906.350403,320
906.466492,322
906.582642,325
906.69873,315
906.814758,313
906.930908,312
907.046936,323
907.163086,314
907.279175,319
907.395264,309
907.511353,324
907.62738,296
907.743408,309
907.859497,326
907.975525,312
908.091553,313
908.207703,314
908.32373,318
908.439758,322
908.555786,309
908.671814,322
908.787842,300
908.90387,329
909.019775,315
909.135864,304
909.251892,324
909.367859,313
909.483826,320
909.599854,318
909.715881,312
909.831848,303
909.947815,309
910.063782,317
910.179749,306
910.295776,320
910.411743,320
910.527649,313
910.643616,323
910.759583,315
910.875488,324
910.991455,321
911.107361,324
911.223267,311
911.339294,321
911.4552,313
911.571106,309
911.687073,299
911.802979,321
911.918823,307
912.034729,312
912.150635,313
912.266602,312
912.382446,316
912.498352,310
912.614197,320
912.730103,319
912.846008,303
