792.44574,314
792.56488,344
792.68396,402
792.80304,391
792.92218,336
793.041199,315
793.160339,325
793.279419,348
793.398499,329
793.517578,332
793.636658,329
793.755737,332
793.874817,361
793.993896,338
794.112976,349
794.232056,325
794.351074,322
794.470215,334
794.589233,334
794.708313,323
794.827393,327
794.946411,322
795.065552,343
795.18457,338
795.303589,311
795.422668,335
795.541687,319
795.660767,328
795.779846,343
795.898865,332
796.017883,327
796.136963,337
796.255981,335
796.375061,326
796.49408,345
796.613037,322
796.732117,328
796.851135,325
796.970154,333
797.089233,324
797.208191,319
797.327271,341
797.446228,329
797.565186,343
797.684265,333
797.803223,337
797.922241,335
798.04126,321
798.160278,342
798.279297,324
798.398315,328
798.517273,334
798.636292,325
798.75531,334
798.874268,328
798.993286,319
799.112244,344
799.231323,330
799.350281,339
799.469238,321
799.588257,323
799.707153,321
799.826111,332
799.945129,321
800.064087,321
800.183044,327
800.302063,327
800.421021,319
800.539978,319
800.658936,322
800.777893,331
800.896912,313
801.015747,336
801.134705,331
801.253723,339
801.37262,325
801.491638,334
801.610535,325
801.729492,329
801.84845,324
801.967407,333
802.086243,322
802.205261,335
802.324158,330
802.443115,320
802.562073,326
802.680969,341
802.799927,323
802.918762,322
803.037659,333
803.156677,325
803.275574,312
803.39447,317
803.513428,325
803.632263,320
803.751221,325
803.870117,334
803.989014,330
804.107971,330
804.226746,323
804.345642,338
804.4646,329
804.583496,326
804.702393,333
804.821228,327
804.940125,322
805.059021,323
805.177917,344
805.296814,327
805.415649,326
805.534546,320
805.653442,318
805.772278,315
805.891113,317
806.01001,318
806.128906,346
806.247742,319
806.366577,327
806.485413,325
806.604309,319
806.723145,334
806.84198,339
806.960876,339
807.079712,330
807.198486,321
807.317383,313
807.436218,323
807.554993,342
807.673889,317
807.792725,318
807.91156,329
808.030396,334
808.14917,349
808.268005,328
808.386841,334
808.505676,337
808.624451,342
808.743286,339
808.862122,323
808.980896,316
809.099731,332
809.218506,337
809.337341,339
809.456116,321
809.57489,313
809.693726,325
809.8125,323
809.931274,329
810.050049,321
810.168884,323
810.287659,319
810.406372,326
810.525269,333
810.643982,333
810.762756,321
810.881531,345
811.000305,317
811.11908,341
811.237854,331
811.356567,338
811.475403,345
811.594116,329
811.71283,326
811.831604,323
811.950378,327
812.069153,338
812.187927,321
812.30658,335
812.425415,337
812.544128,338
812.662781,323
812.781616,323
812.900269,331
813.019043,319
813.137756,332
813.256531,321
813.375244,336
813.493896,339
813.612671,320
813.731384,337
813.850037,332
813.96875,340
814.087524,330
814.206238,333
814.324951,326
814.443604,341
814.562256,321
814.68103,340
814.799683,315
814.918335,339
815.037109,343
815.155762,314
815.274475,332
815.393188,327
815.511841,325
815.630554,324
815.749146,316
815.867859,330
815.986572,321
816.105164,327
816.223877,337
816.342529,325
816.461182,336
816.579895,325
816.698486,329
816.817139,321
816.935791,318
817.054504,328
817.173096,318
817.291748,326
817.4104,327
817.529053,335
817.647644,343
817.766235,319
817.884949,330
818.00354,310
818.122192,315
818.240845,323
818.359436,329
818.478088,322
818.59668,336
818.715271,336
818.833923,323
818.952515,312
819.071106,318
819.189758,325
819.30835,331
819.426941,327
819.545532,343
819.664124,328
819.782715,316
819.901306,336
820.019897,312
820.138489,332
820.25708,322
820.375671,327
820.494202,317
820.612732,333
820.731384,308
820.849915,317
820.968506,328
821.087097,330
821.205627,318
821.324158,319
821.442749,308
821.561279,320
821.679871,311
821.798401,323
821.916931,322
822.035461,325
822.154053,306
822.272583,322
822.391174,334
822.509583,328
822.628174,322
822.746704,313
822.865234,326
822.983765,322
823.102295,309
823.220825,317
823.339294,334
823.457825,312
823.576355,312
823.694824,326
823.813354,312
823.931885,317
824.050354,321
824.168884,329
824.287354,322
824.405823,315
824.524353,325
824.642822,317
824.761353,318
824.879822,321
824.998291,316
825.116699,324
825.235291,325
825.353699,312
825.472168,317
825.590637,326
825.709106,318
825.827576,338
825.946045,316
826.064453,310
826.182983,322
826.301392,321
826.4198,325
826.53833,320
826.656738,323
826.775208,328
826.893677,315
827.012024,310
827.130493,314
827.248962,323
827.36731,312
827.485779,323
827.604248,334
827.722595,314
827.841064,318
827.959412,307
828.077942,312
828.196289,322
828.314636,337
828.433105,320
828.551514,333
828.669861,319
828.78833,304
828.906677,319
829.025085,320
829.143433,323
829.261841,319
829.38031,316
829.498657,315
829.617004,332
829.735413,321
829.85376,323
829.972107,313
830.090515,340
830.208862,322
830.327209,325
830.445557,315
830.563904,323
830.682312,307
830.800659,328
830.919006,318
831.037354,317
831.155701,317
831.274048,328
831.392395,326
831.51062,327
831.629028,320
831.747314,317
831.865662,323
831.984009,316
832.102356,311
832.220642,318
832.338928,311
832.457275,326
832.575623,322
832.693909,324
832.812134,324
832.930481,321
833.048828,317
833.167114,316
833.2854,322
833.403687,327
833.521973,316
833.640259,324
833.758545,322
833.876831,303
833.995056,322
834.113281,303
834.231628,323
834.349915,317
834.468201,321
834.586426,324
834.704651,312
834.822998,312
834.941162,303
835.059448,320
835.177673,316
835.295959,325
835.414246,308
835.53241,316
835.650635,330
835.768921,323
835.887146,320
836.005371,328
836.123596,311
836.241821,318
836.360046,309
836.478271,321
836.596497,317
836.714722,321
836.832886,312
836.95105,321
837.069336,300
837.1875,327
837.305725,318
837.423889,317
837.542053,326
837.660339,312
837.778503,309
837.896667,333
838.014832,318
838.132996,330
838.25116,308
838.369385,321
838.487488,323
838.605713,320
838.723877,304
838.84198,314
838.960205,332
839.078308,309
839.196472,321
839.314636,319
839.4328,320
839.550964,333
839.669067,331
839.787231,320
839.905396,327
840.023499,317
840.141602,314
840.259766,314
840.377869,312
840.495972,321
840.614136,320
840.732239,316
840.850342,333
840.968445,316
841.086548,319
841.204651,320
841.322754,315
841.440918,321
841.55896,327
841.677002,329
841.795166,324
841.913208,310
842.031311,311
842.149353,327
842.267456,315
842.385498,323
842.503601,320
842.621643,295
842.739746,314
842.857788,322
842.97583,307
843.093933,315
843.211975,326
843.330017,319
843.44812,323
843.566101,328
843.684204,332
843.802246,315
843.920227,304
844.038269,324
844.156311,319
844.274292,331
844.392395,319
844.510376,321
844.628357,319
844.74646,319
844.864441,308
844.982422,316
845.100403,299
845.218384,318
845.336426,314
845.454468,321
845.572449,334
845.69043,332
845.808411,315
845.926453,318
846.044373,338
846.162354,307
846.280396,309
846.398315,320
846.516296,316
846.634216,323
846.752197,317
846.870178,313
846.988098,323
847.106079,318
847.22406,327
847.34198,321
847.4599,310
847.577881,310
847.695801,307
847.813782,319
847.931641,312
848.049561,322
848.167603,310
848.285461,324
848.403381,318
848.521362,324
848.639221,314
848.75708,326
848.875,332
848.99292,328
849.110901,320
849.22876,309
849.34668,320
849.464539,323
849.582458,319
849.700317,300
849.818176,319
849.936096,314
850.053955,310
850.171875,333
850.289673,316
850.407593,327
850.525452,314
850.643311,328
850.761169,319
850.878967,324
850.996887,315
851.114746,319
851.232544,315
851.350403,330
851.468262,316
851.58606,333
851.703979,306
851.821777,319
851.939636,308
852.057434,320
852.175232,323
852.293091,324
852.410889,317
852.528687,328
852.646545,330
852.764343,316
852.88208,313
852.999939,323
853.117676,324
853.235535,329
853.353271,315
853.471069,318
853.588928,318
853.706604,327
853.824402,313
853.9422,312
854.059998,323
854.177734,313
854.295532,324
854.413269,306
854.531006,327
854.648804,324
854.766541,326
854.884277,331
855.002014,332
855.119751,332
855.237549,311
855.355225,318
855.473022,330
855.590698,326
855.708435,330
855.826172,318
855.943848,311
856.061646,322
856.179321,317
856.296997,330
856.414795,310
856.53241,307
856.650085,323
856.767822,310
856.885559,313
857.003174,328
857.120911,319
857.238586,332
857.356201,318
857.473938,323
857.591614,316
857.709351,320
857.826965,319
857.944641,328
858.062317,312
858.179993,316
858.297668,313
858.415283,320
858.532959,312
858.650574,324
858.768188,304
858.885803,307
859.003479,322
859.121094,321
859.23877,335
859.356384,316
859.473999,314
859.591675,323
859.709229,316
859.826843,315
859.944458,323
860.062012,320
860.179626,321
860.297302,314
860.414856,329
860.532471,331
860.650024,312
860.767639,326
860.885193,310
861.002808,315
861.120361,323
861.237976,324
861.35553,329
861.473022,323
861.590698,319
861.708191,304
861.825745,323
861.943298,322
862.060852,336
862.178406,319
862.295959,313
862.413513,311
862.531006,324
862.64856,322
862.766113,316
862.883667,334
863.00116,314
863.118713,315
863.236206,317
863.353699,327
863.471252,319
863.588745,318
863.706177,319
863.82373,321
863.941162,308
864.058716,331
864.176208,315
864.29364,324
864.411194,323
864.528687,309
864.646118,332
864.763611,307
864.881042,325
864.998535,318
865.116028,327
865.233459,323
865.350891,317
865.468384,331
865.585754,303
865.703308,317
865.820679,311
865.938171,314
866.055542,319
866.173035,322
866.290466,316
866.407837,330
866.52533,321
866.6427,325
866.760071,316
866.877563,328
866.994934,315
867.112305,322
867.229736,319
867.347107,316
867.464539,311
867.58197,322
867.699341,315
867.81665,344
867.934082,313
868.051453,317
868.168823,331
868.286194,321
868.403564,315
868.520935,322
868.638306,321
868.755676,331
868.872986,325
868.990295,325
869.107727,314
869.225037,301
869.342346,311
869.459717,311
869.577026,322
869.694336,316
869.811707,316
869.929016,327
870.046326,326
870.163635,320
870.280945,298
870.398254,307
870.515564,310
870.632812,327
870.750183,318
870.867432,317
870.984741,325
871.102051,320
871.219299,312
871.336609,320
871.453918,323
871.571106,312
871.688416,303
871.805664,323
871.922852,320
872.040222,327
872.157471,312
872.274719,327
872.391968,321
872.509155,329
872.626465,329
872.743652,316
872.860962,321
872.978149,319
873.095337,310
873.212646,328
873.329834,310
873.44696,315
873.564209,310
873.681396,331
873.798645,311
873.915894,321
874.03302,316
874.150208,324
874.267456,311
874.384583,334
874.501831,316
874.618958,322
874.736145,311
874.853333,323
874.970459,315
875.087646,325
875.204834,324
875.32196,308
875.439148,315
875.556274,312
875.673401,328
875.790527,319
875.907715,319
876.024841,317
876.141968,313
876.259094,321
876.376282,315
876.493347,308
876.610474,303
876.7276,326
876.844727,323
876.961853,343
877.078918,319
877.195984,319
877.313171,310
877.430237,313
877.547302,317
877.664368,318
877.781433,318
877.898499,319
878.015625,313
878.13269,320
878.249695,313
878.366821,311
878.483887,316
878.600952,316
878.717957,311
878.834961,316
878.952087,323
879.069092,329
879.186157,312
879.303162,328
879.420227,313
879.537231,330
879.654236,329
879.77124,325
879.888306,313
880.005249,331
880.122314,309
880.239319,314
880.356323,312
880.473328,316
880.590271,312
880.707275,322
880.824341,319
880.941284,327
881.058228,321
881.175232,303
881.292236,306
881.40918,320
881.526123,318
881.643066,333
881.760071,306
881.877014,324
881.993958,316
882.11084,311
882.227783,328
882.344727,326
882.46167,322
882.578613,325
882.695618,313
882.812439,330
882.929382,309
883.046326,323
883.163208,299
883.280151,312
883.397034,339
883.513916,314
883.630798,340
883.747742,325
883.864563,300
883.981506,326
884.098389,320
884.21521,323
884.332153,328
884.448975,331
884.565796,314
884.682678,318
884.7995,326
884.916443,321
885.033264,319
885.150085,329
885.266968,309
885.383789,317
885.500671,315
885.617493,318
885.734314,323
885.851196,323
885.967896,309
886.084717,322
886.201599,318
886.318359,329
886.435181,322
886.552002,326
886.668762,306
886.785645,319
886.902344,331
887.019165,319
887.135925,308
887.252747,320
887.369446,313
887.486267,328
887.603027,333
887.719788,331
887.836548,313
887.953247,307
888.070068,300
888.186829,313
888.303528,315
888.420288,327
888.536987,314
888.653687,325
888.770447,329
888.887146,323
889.003967,315
889.120667,322
889.237305,316
889.354065,324
889.470703,307
889.587463,314
889.704163,309
889.820862,323
889.937561,316
890.054199,320
890.170837,317
890.287598,320
890.404236,317
890.520874,293
890.637634,326
890.754211,329
890.87085,298
890.987549,319
891.104187,325
891.220886,320
891.337463,323
891.454102,325
891.57074,309
891.687378,317
891.804077,319
891.920654,316
892.037231,315
892.15387,331
892.270447,320
892.387085,323
892.503723,314
892.6203,309
892.736877,320
892.853516,323
892.970032,311
893.08667,329
893.203186,327
893.319763,317
893.43634,315
893.552917,318
893.669556,313
893.786011,330
893.902588,320
894.019165,314
894.135681,326
894.252197,317
894.368835,314
894.485291,317
894.601868,320
894.718384,321
894.8349,324
894.951355,324
895.067932,309
895.184448,309
895.300964,320
895.417419,324
895.533936,316
895.650452,325
895.766907,318
895.883423,325
895.999878,313
896.116333,324
896.232849,306
896.349304,310
896.465759,327
896.582214,330
896.698669,329
896.815125,338
896.931641,311
897.048035,328
897.164551,330
897.280884,326
897.397339,320
897.513794,325
897.630249,321
897.746582,321
897.863098,319
897.979431,322
898.095886,314
898.212341,329
898.328674,322
898.445129,328
898.561462,322
898.677795,312
898.794312,318
898.910645,327
899.026978,319
899.143433,312
899.259766,309
899.37616,323
899.492493,322
899.608765,311
899.725159,330
899.841553,316
899.957947,308
900.07428,332
900.190552,314
900.306946,321
900.423157,314
900.53949,324
900.655884,314
900.772156,324
900.888489,338
901.004822,314
901.121033,323
901.237366,318
901.353699,320
901.46991,316
901.586304,319
901.702515,327
901.818787,324
901.93512,319
902.051331,324
902.167603,325
902.283875,313
902.400085,311
902.516418,321
902.632629,336
902.74884,308
902.865112,318
902.981384,320
903.097595,323
903.213867,317
903.330017,325
903.446289,309
903.5625,323
903.67865,317
903.794922,320
903.911072,318
904.027344,321
904.143494,321
904.259705,320
904.375916,312
904.492065,326
904.608215,323
904.724426,324
904.840576,319
904.956726,341
905.072876,320
905.189087,330
905.305176,314
905.421387,326
905.537537,311
905.653687,321
905.769775,317
905.885925,326
906.002014,310
906.118164,332
906.234314,304
906.350403,328
906.466492,301
906.582642,329
906.69873,320
906.814758,318
906.930908,318
907.046936,319
907.163086,322
907.279175,332
907.395264,319
907.511353,318
907.62738,319
907.743408,320
907.859497,313
907.975525,324
908.091553,323
908.207703,318
908.32373,321
908.439758,317
908.555786,321
908.671814,318
908.787842,326
908.90387,329
909.019775,328
909.135864,316
909.251892,319
909.367859,326
909.483826,315
909.599854,321
909.715881,306
909.831848,328
909.947815,315
910.063782,321
910.179749,332
910.295776,321
910.411743,314
910.527649,327
910.643616,320
910.759583,326
910.875488,301
910.991455,321
911.107361,309
911.223267,325
911.339294,325
911.4552,318
911.571106,324
911.687073,321
911.802979,312
911.918823,318
912.034729,317
912.150635,328
912.266602,327
912.382446,322
912.498352,320
912.614197,311
912.730103,310
912.846008,319
792.44574,313
792.56488,352
792.68396,409
792.80304,382
792.92218,337
793.041199,330
793.160339,336
793.279419,325
793.398499,330
793.517578,317
793.636658,332
793.755737,337
793.874817,355
793.993896,341
794.112976,336
794.232056,323
794.351074,326
794.470215,332
794.589233,333
794.708313,315
794.827393,345
794.946411,332
795.065552,323
795.18457,331
795.303589,328
795.422668,318
795.541687,336
795.660767,325
795.779846,340
795.898865,319
796.017883,333
796.136963,316
796.255981,340
796.375061,337
796.49408,337
796.613037,336
796.732117,330
796.851135,342
796.970154,331
797.089233,320
797.208191,330
797.327271,322
797.446228,339
797.565186,335
797.684265,319
797.803223,326
797.922241,334
798.04126,321
798.160278,333
798.279297,317
798.398315,312
798.517273,323
798.636292,335
798.75531,325
798.874268,326
798.993286,324
799.112244,312
799.231323,336
799.350281,335
799.469238,326
799.588257,322
799.707153,334
799.826111,333
799.945129,328
800.064087,332
800.183044,323
800.302063,333
800.421021,323
800.539978,331
800.658936,326
800.777893,330
800.896912,318
801.015747,335
801.134705,334
801.253723,311
801.37262,318
801.491638,331
801.610535,328
801.729492,327
801.84845,325
801.967407,316
802.086243,336
802.205261,337
802.324158,330
802.443115,309
802.562073,333
802.680969,314
802.799927,317
802.918762,340
803.037659,327
803.156677,325
803.275574,326
803.39447,312
803.513428,323
803.632263,336
803.751221,324
803.870117,338
803.989014,328
804.107971,334
804.226746,332
804.345642,337
804.4646,324
804.583496,328
804.702393,318
804.821228,322
804.940125,322
805.059021,334
805.177917,337
805.296814,342
805.415649,327
805.534546,326
805.653442,316
805.772278,332
805.891113,337
806.01001,333
806.128906,326
806.247742,321
806.366577,344
806.485413,324
806.604309,329
806.723145,331
806.84198,315
806.960876,322
807.079712,323
807.198486,321
807.317383,321
807.436218,334
807.554993,313
807.673889,343
807.792725,313
807.91156,333
808.030396,322
808.14917,336
808.268005,333
808.386841,312
808.505676,322
808.624451,331
808.743286,329
808.862122,327
808.980896,330
809.099731,322
809.218506,315
809.337341,323
809.456116,333
809.57489,321
809.693726,327
809.8125,326
809.931274,321
810.050049,344
810.168884,346
810.287659,323
810.406372,329
810.525269,334
810.643982,325
810.762756,344
810.881531,337
811.000305,314
811.11908,327
811.237854,333
811.356567,329
811.475403,333
811.594116,329
811.71283,348
811.831604,324
811.950378,332
812.069153,336
812.187927,326
812.30658,332
812.425415,331
812.544128,331
812.662781,334
812.781616,325
812.900269,324
813.019043,333
813.137756,333
813.256531,330
813.375244,332
813.493896,340
813.612671,328
813.731384,330
813.850037,326
813.96875,324
814.087524,320
814.206238,335
814.324951,325
814.443604,322
814.562256,330
814.68103,324
814.799683,351
814.918335,322
815.037109,340
815.155762,321
815.274475,337
815.393188,327
815.511841,330
815.630554,334
815.749146,342
815.867859,326
815.986572,328
816.105164,326
816.223877,340
816.342529,317
816.461182,332
816.579895,327
816.698486,327
816.817139,325
816.935791,341
817.054504,326
817.173096,328
817.291748,321
817.4104,334
817.529053,331
817.647644,335
817.766235,337
817.884949,325
818.00354,321
818.122192,317
818.240845,306
818.359436,322
818.478088,315
818.59668,330
818.715271,314
818.833923,337
818.952515,330
819.071106,319
819.189758,318
819.30835,324
819.426941,315
819.545532,344
819.664124,324
819.782715,328
819.901306,317
820.019897,314
820.138489,322
820.25708,324
820.375671,314
820.494202,334
820.612732,322
820.731384,335
820.849915,310
820.968506,318
821.087097,304
821.205627,324
821.324158,323
821.442749,314
821.561279,334
821.679871,313
821.798401,319
821.916931,314
822.035461,318
822.154053,325
822.272583,304
822.391174,320
822.509583,325
822.628174,319
822.746704,309
822.865234,321
822.983765,334
823.102295,327
823.220825,317
823.339294,306
823.457825,324
823.576355,325
823.694824,305
823.813354,316
823.931885,313
824.050354,327
824.168884,324
824.287354,322
824.405823,320
824.524353,314
824.642822,316
824.761353,326
824.879822,306
824.998291,320
825.116699,331
825.235291,312
825.353699,324
825.472168,313
825.590637,316
825.709106,327
825.827576,314
825.946045,316
826.064453,311
826.182983,316
826.301392,330
826.4198,322
826.53833,314
826.656738,313
826.775208,324
826.893677,317
827.012024,313
827.130493,327
827.248962,312
827.36731,320
827.485779,306
827.604248,320
827.722595,319
827.841064,326
827.959412,317
828.077942,321
828.196289,327
828.314636,324
828.433105,314
828.551514,333
828.669861,318
828.78833,315
828.906677,330
829.025085,309
829.143433,328
829.261841,326
829.38031,309
829.498657,324
829.617004,319
829.735413,316
829.85376,324
829.972107,316
830.090515,303
830.208862,324
830.327209,320
830.445557,318
830.563904,314
830.682312,316
830.800659,312
830.919006,319
831.037354,313
831.155701,320
831.274048,326
831.392395,302
831.51062,324
831.629028,315
831.747314,321
831.865662,320
831.984009,321
832.102356,318
832.220642,313
832.338928,317
832.457275,315
832.575623,317
832.693909,314
832.812134,327
832.930481,328
833.048828,310
833.167114,324
833.2854,310
833.403687,317
833.521973,317
833.640259,311
833.758545,327
833.876831,309
833.995056,304
834.113281,319
834.231628,329
834.349915,317
834.468201,326
834.586426,317
834.704651,310
834.822998,319
834.941162,308
835.059448,313
835.177673,321
835.295959,302
835.414246,319
835.53241,306
835.650635,312
835.768921,315
835.887146,318
836.005371,314
836.123596,323
836.241821,313
836.360046,316
836.478271,315
836.596497,320
836.714722,310
836.832886,332
836.95105,318
837.069336,313
837.1875,313
837.305725,330
837.423889,314
837.542053,322
837.660339,318
837.778503,327
837.896667,320
838.014832,310
838.132996,310
838.25116,327
838.369385,304
838.487488,326
838.605713,322
838.723877,328
838.84198,318
838.960205,331
839.078308,328
839.196472,309
839.314636,313
839.4328,308
839.550964,323
839.669067,323
839.787231,311
839.905396,318
840.023499,321
840.141602,329
840.259766,317
840.377869,304
840.495972,307
840.614136,322
840.732239,313
840.850342,318
840.968445,322
841.086548,324
841.204651,327
841.322754,328
841.440918,325
841.55896,327
841.677002,323
841.795166,322
841.913208,311
842.031311,324
842.149353,315
842.267456,316
842.385498,317
842.503601,319
842.621643,313
842.739746,320
842.857788,317
842.97583,324
843.093933,310
843.211975,304
843.330017,309
843.44812,313
843.566101,316
843.684204,308
843.802246,319
843.920227,325
844.038269,320
844.156311,320
844.274292,306
844.392395,318
844.510376,308
844.628357,316
844.74646,308
844.864441,317
844.982422,321
845.100403,320
845.218384,317
845.336426,323
845.454468,315
845.572449,326
845.69043,298
845.808411,319
845.926453,325
846.044373,330
846.162354,312
846.280396,318
846.398315,315
846.516296,308
846.634216,323
846.752197,317
846.870178,312
846.988098,320
847.106079,316
847.22406,320
847.34198,312
847.4599,313
847.577881,325
847.695801,320
847.813782,315
847.931641,317
848.049561,309
848.167603,328
848.285461,305
848.403381,326
848.521362,315
848.639221,302
848.75708,322
848.875,314
848.99292,324
849.110901,312
849.22876,297
849.34668,316
849.464539,306
849.582458,300
849.700317,313
849.818176,333
849.936096,316
850.053955,311
850.171875,332
850.289673,324
850.407593,315
850.525452,314
850.643311,304
850.761169,326
850.878967,326
850.996887,308
851.114746,320
851.232544,312
851.350403,323
851.468262,323
851.58606,318
851.703979,318
851.821777,317
851.939636,323
852.057434,312
852.175232,299
852.293091,324
852.410889,313
852.528687,314
852.646545,308
852.764343,308
852.88208,307
852.999939,309
853.117676,326
853.235535,312
853.353271,313
853.471069,325
853.588928,328
853.706604,326
853.824402,314
853.9422,317
854.059998,329
854.177734,317
854.295532,314
854.413269,309
854.531006,317
854.648804,297
854.766541,325
854.884277,313
855.002014,324
855.119751,317
855.237549,318
855.355225,315
855.473022,318
855.590698,295
855.708435,326
855.826172,327
855.943848,322
856.061646,325
856.179321,315
856.296997,335
856.414795,325
856.53241,310
856.650085,311
856.767822,323
856.885559,314
857.003174,326
857.120911,302
857.238586,318
857.356201,326
857.473938,312
857.591614,319
857.709351,326
857.826965,339
857.944641,311
858.062317,322
858.179993,308
858.297668,316
858.415283,307
858.532959,317
858.650574,320
858.768188,306
858.885803,311
859.003479,347
859.121094,324
859.23877,324
859.356384,308
859.473999,316
859.591675,338
859.709229,326
859.826843,318
859.944458,328
860.062012,310
860.179626,324
860.297302,308
860.414856,311
860.532471,317
860.650024,322
860.767639,297
860.885193,313
861.002808,316
861.120361,323
861.237976,314
861.35553,315
861.473022,318
861.590698,327
861.708191,304
861.825745,313
861.943298,325
862.060852,328
862.178406,315
862.295959,316
862.413513,301
862.531006,327
862.64856,315
862.766113,321
862.883667,312
863.00116,304
863.118713,318
863.236206,330
863.353699,318
863.471252,318
863.588745,319
863.706177,325
863.82373,317
863.941162,324
864.058716,321
864.176208,322
864.29364,314
864.411194,333
864.528687,312
864.646118,317
864.763611,322
864.881042,334
864.998535,305
865.116028,315
865.233459,312
865.350891,313
865.468384,313
865.585754,315
865.703308,315
865.820679,319
865.938171,325
866.055542,326
866.173035,317
866.290466,329
866.407837,315
866.52533,323
866.6427,317
866.760071,335
866.877563,320
866.994934,333
867.112305,302
867.229736,329
867.347107,315
867.464539,318
867.58197,318
867.699341,310
867.81665,323
867.934082,322
868.051453,327
868.168823,337
868.286194,307
868.403564,322
868.520935,308
868.638306,320
868.755676,310
868.872986,322
868.990295,322
869.107727,323
869.225037,316
869.342346,330
869.459717,322
869.577026,327
869.694336,313
869.811707,325
869.929016,306
870.046326,330
870.163635,311
870.280945,329
870.398254,317
870.515564,315
870.632812,311
870.750183,321
870.867432,310
870.984741,325
871.102051,318
871.219299,321
871.336609,312
871.453918,324
871.571106,309
871.688416,313
871.805664,316
871.922852,325
872.040222,307
872.157471,308
872.274719,321
872.391968,326
872.509155,324
872.626465,318
872.743652,304
872.860962,318
872.978149,312
873.095337,313
873.212646,319
873.329834,313
873.44696,315
873.564209,322
873.681396,319
873.798645,324
873.915894,307
874.03302,319
874.150208,323
874.267456,324
874.384583,308
874.501831,317
874.618958,298
874.736145,313
874.853333,319
874.970459,323
875.087646,323
875.204834,327
875.32196,308
875.439148,308
875.556274,320
875.673401,316
875.790527,317
875.907715,316
876.024841,326
876.141968,317
876.259094,307
876.376282,321
876.493347,305
876.610474,323
876.7276,312
876.844727,322
876.961853,323
877.078918,313
877.195984,320
877.313171,320
877.430237,320
877.547302,321
877.664368,313
877.781433,329
877.898499,319
878.015625,327
878.13269,321
878.249695,317
878.366821,325
878.483887,329
878.600952,309
878.717957,319
878.834961,319
878.952087,324
879.069092,315
879.186157,319
879.303162,311
879.420227,307
879.537231,312
879.654236,314
879.77124,299
879.888306,323
880.005249,319
880.122314,327
880.239319,313
880.356323,319
880.473328,309
880.590271,322
880.707275,323
880.824341,313
880.941284,301
881.058228,345
881.175232,316
881.292236,316
881.40918,310
881.526123,318
881.643066,331
881.760071,314
881.877014,324
881.993958,315
882.11084,312
882.227783,324
882.344727,316
882.46167,329
882.578613,317
882.695618,309
882.812439,317
882.929382,307
883.046326,311
883.163208,308
883.280151,298
883.397034,325
883.513916,312
883.630798,328
883.747742,314
883.864563,320
883.981506,305
884.098389,334
884.21521,323
884.332153,313
884.448975,327
884.565796,320
884.682678,311
884.7995,324
884.916443,324
885.033264,320
885.150085,317
885.266968,318
885.383789,319
885.500671,331
885.617493,318
885.734314,328
885.851196,319
885.967896,331
886.084717,321
886.201599,329
886.318359,311
886.435181,323
886.552002,316
886.668762,318
886.785645,307
886.902344,326
887.019165,312
887.135925,315
887.252747,309
887.369446,311
887.486267,308
887.603027,323
887.719788,328
887.836548,324
887.953247,323
888.070068,320
888.186829,310
888.303528,331
888.420288,307
888.536987,322
888.653687,312
888.770447,315
888.887146,313
889.003967,327
889.120667,318
889.237305,314
889.354065,320
889.470703,329
889.587463,319
889.704163,326
889.820862,320
889.937561,308
890.054199,318
890.170837,334
890.287598,327
890.404236,327
890.520874,309
890.637634,321
890.754211,315
890.87085,322
890.987549,315
891.104187,321
891.220886,324
891.337463,309
891.454102,313
891.57074,331
891.687378,320
891.804077,323
891.920654,324
892.037231,319
892.15387,323
892.270447,315
892.387085,299
892.503723,318
892.6203,313
892.736877,321
892.853516,327
892.970032,323
893.08667,325
893.203186,322
893.319763,309
893.43634,327
893.552917,321
893.669556,327
893.786011,322
893.902588,327
894.019165,329
894.135681,319
894.252197,326
894.368835,320
894.485291,313
894.601868,314
894.718384,320
894.8349,316
894.951355,308
895.067932,316
895.184448,320
895.300964,318
895.417419,320
895.533936,317
895.650452,311
895.766907,320
895.883423,323
895.999878,327
896.116333,315
896.232849,332
896.349304,309
896.465759,334
896.582214,314
896.698669,315
896.815125,315
896.931641,315
897.048035,299
897.164551,325
897.280884,317
897.397339,317
897.513794,312
897.630249,319
897.746582,318
897.863098,314
897.979431,315
898.095886,322
898.212341,318
898.328674,326
898.445129,322
898.561462,323
898.677795,314
898.794312,321
898.910645,330
899.026978,318
899.143433,331
899.259766,320
899.37616,308
899.492493,310
899.608765,322
899.725159,314
899.841553,315
899.957947,323
900.07428,319
900.190552,324
900.306946,294
900.423157,325
900.53949,324
900.655884,310
900.772156,318
900.888489,325
901.004822,304
901.121033,306
901.237366,319
901.353699,319
901.46991,312
901.586304,323
901.702515,319
901.818787,317
901.93512,311
902.051331,325
902.167603,320
902.283875,330
902.400085,317
902.516418,322
902.632629,330
902.74884,329
902.865112,309
902.981384,313
903.097595,308
903.213867,335
903.330017,332
903.446289,322
903.5625,315
903.67865,314
903.794922,315
903.911072,320
904.027344,309
904.143494,324
904.259705,322
904.375916,316
904.492065,308
904.608215,314
904.724426,307
904.840576,322
904.956726,309
905.072876,328
905.189087,329
905.305176,316
905.421387,308
905.537537,325
905.653687,321
905.769775,320
905.885925,318
906.002014,320
906.118164,307
906.234314,311
906.350403,324
906.466492,325
906.582642,318
906.69873,316
906.814758,330
906.930908,321
907.046936,321
907.163086,323
907.279175,307
907.395264,321
907.511353,322
907.62738,332
907.743408,324
907.859497,327
907.975525,317
908.091553,324
908.207703,316
908.32373,318
908.439758,316
908.555786,314
908.671814,327
908.787842,317
908.90387,316
909.019775,328
909.135864,318
909.251892,325
909.367859,314
909.483826,322
909.599854,323
909.715881,322
909.831848,319
909.947815,314
910.063782,314
910.179749,314
910.295776,320
910.411743,328
910.527649,329
910.643616,324
910.759583,316
910.875488,330
910.991455,322
911.107361,325
911.223267,324
911.339294,314
911.4552,312
911.571106,324
911.687073,314
911.802979,310
911.918823,326
912.034729,320
912.150635,322
912.266602,323
912.382446,319
912.498352,337
912.614197,317
912.730103,306
912.846008,309
792.44574,310
792.56488,362
792.68396,389
792.80304,378
792.92218,348
793.041199,315
793.160339,325
793.279419,345
793.398499,333
793.517578,305
793.636658,323
793.755737,333
793.874817,340
793.993896,341
794.112976,334
794.232056,321
794.351074,329
794.470215,332
794.589233,333
794.708313,331
794.827393,330
794.946411,337
795.065552,334
795.18457,346
795.303589,326
795.422668,342
795.541687,321
795.660767,339
795.779846,323
795.898865,326
796.017883,322
796.136963,325
796.255981,336
796.375061,330
796.49408,320
796.613037,327
796.732117,341
796.851135,342
796.970154,322
797.089233,327
797.208191,324
797.327271,324
797.446228,334
797.565186,331
797.684265,322
797.803223,333
797.922241,341
798.04126,335
798.160278,321
798.279297,335
798.398315,327
798.517273,316
798.636292,320
798.75531,338
798.874268,323
798.993286,316
799.112244,332
799.231323,338
799.350281,325
799.469238,338
799.588257,335
799.707153,319
799.826111,321
799.945129,326
800.064087,332
800.183044,328
800.302063,325
800.421021,321
800.539978,343
800.658936,338
800.777893,327
800.896912,333
801.015747,327
801.134705,335
801.253723,329
801.37262,325
801.491638,316
801.610535,316
801.729492,323
801.84845,328
801.967407,329
802.086243,316
802.205261,320
802.324158,327
802.443115,320
802.562073,332
802.680969,332
802.799927,321
802.918762,336
803.037659,319
803.156677,327
803.275574,326
803.39447,332
803.513428,335
803.632263,323
803.751221,322
803.870117,318
803.989014,324
804.107971,331
804.226746,344
804.345642,325
804.4646,325
804.583496,323
804.702393,317
804.821228,325
804.940125,335
805.059021,326
805.177917,327
805.296814,335
805.415649,331
805.534546,327
805.653442,320
805.772278,319
805.891113,336
806.01001,334
806.128906,322
806.247742,334
806.366577,322
806.485413,325
806.604309,331
806.723145,339
806.84198,327
806.960876,317
807.079712,332
807.198486,335
807.317383,325
807.436218,324
807.554993,308
807.673889,328
807.792725,341
807.91156,327
808.030396,333
808.14917,325
808.268005,317
808.386841,324
808.505676,325
808.624451,338
808.743286,330
808.862122,326
808.980896,320
809.099731,329
809.218506,315
809.337341,339
809.456116,333
809.57489,319
809.693726,327
809.8125,321
809.931274,325
810.050049,344
810.168884,311
810.287659,320
810.406372,322
810.525269,313
810.643982,334
810.762756,325
810.881531,336
811.000305,337
811.11908,321
811.237854,334
811.356567,329
811.475403,314
811.594116,327
811.71283,344
811.831604,323
811.950378,336
812.069153,340
812.187927,341
812.30658,325
812.425415,328
812.544128,317
812.662781,340
812.781616,331
812.900269,320
813.019043,319
813.137756,331
813.256531,317
813.375244,331
813.493896,332
813.612671,336
813.731384,332
813.850037,312
813.96875,326
814.087524,329
814.206238,318
814.324951,331
814.443604,329
814.562256,321
814.68103,321
814.799683,332
814.918335,317
815.037109,333
815.155762,319
815.274475,345
815.393188,327
815.511841,322
815.630554,331
815.749146,329
815.867859,323
815.986572,316
816.105164,330
816.223877,322
816.342529,327
816.461182,323
816.579895,331
816.698486,324
816.817139,326
816.935791,324
817.054504,320
817.173096,329
817.291748,330
817.4104,319
817.529053,336
817.647644,329
817.766235,318
817.884949,324
818.00354,309
818.122192,334
818.240845,310
818.359436,346
818.478088,328
818.59668,320
818.715271,334
818.833923,321
818.952515,317
819.071106,343
819.189758,311
819.30835,309
819.426941,307
819.545532,334
819.664124,309
819.782715,319
819.901306,305
820.019897,323
820.138489,313
820.25708,324
820.375671,309
820.494202,323
820.612732,310
820.731384,318
820.849915,323
820.968506,309
821.087097,310
821.205627,330
821.324158,316
821.442749,326
821.561279,313
821.679871,323
821.798401,317
821.916931,329
822.035461,323
822.154053,325
822.272583,320
822.391174,327
822.509583,319
822.628174,320
822.746704,321
822.865234,325
822.983765,305
823.102295,314
823.220825,320
823.339294,317
823.457825,320
823.576355,326
823.694824,320
823.813354,333
823.931885,304
824.050354,321
824.168884,302
824.287354,316
824.405823,311
824.524353,330
824.642822,331
824.761353,314
824.879822,315
824.998291,329
825.116699,310
825.235291,317
825.353699,325
825.472168,315
825.590637,315
825.709106,323
825.827576,325
825.946045,322
826.064453,328
826.182983,313
826.301392,324
826.4198,313
826.53833,320
826.656738,317
826.775208,320
826.893677,319
827.012024,335
827.130493,323
827.248962,308
827.36731,329
827.485779,311
827.604248,334
827.722595,305
827.841064,327
827.959412,318
828.077942,323
828.196289,316
828.314636,305
828.433105,316
828.551514,314
828.669861,311
828.78833,316
828.906677,314
829.025085,328
829.143433,316
829.261841,316
829.38031,316
829.498657,315
829.617004,319
829.735413,321
829.85376,316
829.972107,318
830.090515,318
830.208862,317
830.327209,317
830.445557,321
830.563904,310
830.682312,317
830.800659,312
830.919006,327
831.037354,316
831.155701,319
831.274048,312
831.392395,315
831.51062,311
831.629028,309
831.747314,320
831.865662,315
831.984009,302
832.102356,313
832.220642,314
832.338928,315
832.457275,314
832.575623,318
832.693909,320
832.812134,319
832.930481,301
833.048828,319
833.167114,316
833.2854,319
833.403687,317
833.521973,316
833.640259,310
833.758545,325
833.876831,316
833.995056,325
834.113281,322
834.231628,310
834.349915,317
834.468201,323
834.586426,310
834.704651,328
834.822998,304
834.941162,339
835.059448,313
835.177673,308
835.295959,320
835.414246,327
835.53241,304
835.650635,317
835.768921,311
835.887146,328
836.005371,313
836.123596,303
836.241821,310
836.360046,323
836.478271,309
836.596497,320
836.714722,311
836.832886,329
836.95105,321
837.069336,323
837.1875,311
837.305725,324
837.423889,323
837.542053,310
837.660339,323
837.778503,334
837.896667,321
838.014832,318
838.132996,317
838.25116,316
838.369385,302
838.487488,300
838.605713,320
838.723877,316
838.84198,324
838.960205,307
839.078308,316
839.196472,322
839.314636,316
839.4328,325
839.550964,325
839.669067,322
839.787231,311
839.905396,323
840.023499,312
840.141602,307
840.259766,314
840.377869,318
840.495972,323
840.614136,319
840.732239,301
840.850342,318
840.968445,324
841.086548,307
841.204651,316
841.322754,311
841.440918,309
841.55896,319
841.677002,317
841.795166,322
841.913208,316
842.031311,318
842.149353,319
842.267456,313
842.385498,318
842.503601,329
842.621643,311
842.739746,308
842.857788,313
842.97583,332
843.093933,313
843.211975,304
843.330017,308
843.44812,308
843.566101,321
843.684204,318
843.802246,324
843.920227,324
844.038269,306
844.156311,329
844.274292,302
844.392395,319
844.510376,312
844.628357,315
844.74646,309
844.864441,329
844.982422,318
845.100403,320
845.218384,323
845.336426,309
845.454468,330
845.572449,315
845.69043,311
845.808411,322
845.926453,312
846.044373,322
846.162354,314
846.280396,317
846.398315,309
846.516296,326
846.634216,315
846.752197,325
846.870178,308
846.988098,319
847.106079,324
847.22406,322
847.34198,320
847.4599,326
847.577881,306
847.695801,321
847.813782,316
847.931641,307
848.049561,315
848.167603,303
848.285461,319
848.403381,323
848.521362,316
848.639221,337
848.75708,305
848.875,324
848.99292,316
849.110901,329
849.22876,316
849.34668,318
849.464539,306
849.582458,314
849.700317,326
849.818176,328
849.936096,312
850.053955,328
850.171875,317
850.289673,309
850.407593,306
850.525452,299
850.643311,321
850.761169,316
850.878967,312
850.996887,337
851.114746,323
851.232544,313
851.350403,321
851.468262,307
851.58606,311
851.703979,309
851.821777,330
851.939636,320
852.057434,332
852.175232,330
852.293091,288
852.410889,323
852.528687,314
852.646545,316
852.764343,311
852.88208,315
852.999939,326
853.117676,326
853.235535,305
853.353271,322
853.471069,319
853.588928,312
853.706604,308
853.824402,323
853.9422,313
854.059998,312
854.177734,316
854.295532,314
854.413269,318
854.531006,323
854.648804,305
854.766541,325
854.884277,304
855.002014,313
855.119751,317
855.237549,307
855.355225,308
855.473022,308
855.590698,329
855.708435,326
855.826172,312
855.943848,323
856.061646,308
856.179321,320
856.296997,322
856.414795,321
856.53241,320
856.650085,324
856.767822,313
856.885559,325
857.003174,313
857.120911,314
857.238586,322
857.356201,318
857.473938,311
857.591614,318
857.709351,326
857.826965,305
857.944641,316
858.062317,314
858.179993,313
858.297668,331
858.415283,319
858.532959,328
858.650574,300
858.768188,318
858.885803,305
859.003479,310
859.121094,310
859.23877,303
859.356384,314
859.473999,325
859.591675,304
859.709229,333
859.826843,317
859.944458,326
860.062012,310
860.179626,310
860.297302,318
860.414856,329
860.532471,307
860.650024,316
860.767639,317
860.885193,328
861.002808,329
861.120361,321
861.237976,308
861.35553,314
861.473022,319
861.590698,306
861.708191,311
861.825745,315
861.943298,321
862.060852,324
862.178406,317
862.295959,324
862.413513,324
862.531006,326
862.64856,322
862.766113,323
862.883667,320
863.00116,320
863.118713,308
863.236206,310
863.353699,309
863.471252,303
863.588745,309
863.706177,322
863.82373,319
863.941162,310
864.058716,317
864.176208,323
864.29364,311
864.411194,322
864.528687,309
864.646118,322
864.763611,317
864.881042,313
864.998535,315
865.116028,315
865.233459,315
865.350891,309
865.468384,310
865.585754,330
865.703308,319
865.820679,328
865.938171,315
866.055542,320
866.173035,325
866.290466,333
866.407837,322
866.52533,321
866.6427,309
866.760071,304
866.877563,306
866.994934,323
867.112305,316
867.229736,326
867.347107,322
867.464539,335
867.58197,311
867.699341,316
867.81665,318
867.934082,322
868.051453,303
868.168823,320
868.286194,308
868.403564,313
868.520935,321
868.638306,324
868.755676,304
868.872986,328
868.990295,320
869.107727,316
869.225037,319
869.342346,327
869.459717,316
869.577026,310
869.694336,331
869.811707,321
869.929016,320
870.046326,310
870.163635,308
870.280945,314
870.398254,320
870.515564,313
870.632812,318
870.750183,323
870.867432,326
870.984741,323
871.102051,303
871.219299,328
871.336609,308
871.453918,321
871.571106,314
871.688416,320
871.805664,321
871.922852,328
872.040222,309
872.157471,327
872.274719,315
872.391968,322
872.509155,304
872.626465,319
872.743652,322
872.860962,317
872.978149,317
873.095337,319
873.212646,312
873.329834,325
873.44696,319
873.564209,330
873.681396,318
873.798645,322
873.915894,310
874.03302,316
874.150208,304
874.267456,314
874.384583,324
874.501831,319
874.618958,317
874.736145,307
874.853333,316
874.970459,325
875.087646,318
875.204834,316
875.32196,323
875.439148,314
875.556274,318
875.673401,328
875.790527,327
875.907715,322
876.024841,300
876.141968,317
876.259094,308
876.376282,321
876.493347,309
876.610474,326
876.7276,303
876.844727,322
876.961853,316
877.078918,301
877.195984,315
877.313171,325
877.430237,317
877.547302,316
877.664368,316
877.781433,320
877.898499,332
878.015625,328
878.13269,309
878.249695,319
878.366821,315
878.483887,329
878.600952,329
878.717957,315
878.834961,329
878.952087,315
879.069092,312
879.186157,326
879.303162,316
879.420227,325
879.537231,326
879.654236,325
879.77124,310
879.888306,311
880.005249,323
880.122314,308
880.239319,320
880.356323,314
880.473328,308
880.590271,320
880.707275,314
880.824341,324
880.941284,319
881.058228,315
881.175232,317
881.292236,318
881.40918,309
881.526123,323
881.643066,311
881.760071,328
881.877014,315
881.993958,323
882.11084,326
882.227783,322
882.344727,314
882.46167,311
882.578613,317
882.695618,314
882.812439,316
882.929382,334
883.046326,312
883.163208,320
883.280151,312
883.397034,314
883.513916,316
883.630798,321
883.747742,328
883.864563,322
883.981506,308
884.098389,318
884.21521,320
884.332153,324
884.448975,316
884.565796,319
884.682678,319
884.7995,322
884.916443,322
885.033264,326
885.150085,325
885.266968,319
885.383789,320
885.500671,314
885.617493,335
885.734314,329
885.851196,314
885.967896,319
886.084717,326
886.201599,319
886.318359,310
886.435181,319
886.552002,309
886.668762,316
886.785645,334
886.902344,320
887.019165,317
887.135925,318
887.252747,314
887.369446,333
887.486267,308
887.603027,320
887.719788,312
887.836548,315
887.953247,321
888.070068,324
888.186829,322
888.303528,317
888.420288,318
888.536987,303
888.653687,309
888.770447,326
888.887146,312
889.003967,325
889.120667,317
889.237305,328
889.354065,309
889.470703,320
889.587463,308
889.704163,332
889.820862,310
889.937561,331
890.054199,301
890.170837,322
890.287598,315
890.404236,323
890.520874,311
890.637634,326
890.754211,309
890.87085,321
890.987549,317
891.104187,339
891.220886,308
891.337463,336
891.454102,322
891.57074,322
891.687378,328
891.804077,319
891.920654,328
892.037231,332
892.15387,317
892.270447,304
892.387085,316
892.503723,321
892.6203,310
892.736877,323
892.853516,321
892.970032,321
893.08667,319
893.203186,320
893.319763,320
893.43634,320
893.552917,314
893.669556,319
893.786011,325
893.902588,305
894.019165,317
894.135681,330
894.252197,312
894.368835,334
894.485291,318
894.601868,310
894.718384,315
894.8349,309
894.951355,314
895.067932,319
895.184448,312
895.300964,312
895.417419,324
895.533936,319
895.650452,320
895.766907,330
895.883423,317
895.999878,318
896.116333,326
896.232849,324
896.349304,309
896.465759,320
896.582214,324
896.698669,322
896.815125,315
896.931641,333
897.048035,319
897.164551,322
897.280884,313
897.397339,333
897.513794,317
897.630249,313
897.746582,320
897.863098,326
897.979431,314
898.095886,311
898.212341,316
898.328674,324
898.445129,317
898.561462,329
898.677795,322
898.794312,322
898.910645,305
899.026978,307
899.143433,322
899.259766,331
899.37616,321
899.492493,320
899.608765,310
899.725159,322
899.841553,315
899.957947,314
900.07428,328
900.190552,315
900.306946,325
900.423157,307
900.53949,318
900.655884,329
900.772156,308
900.888489,330
901.004822,323
901.121033,319
901.237366,320
901.353699,322
901.46991,324
901.586304,323
901.702515,314
901.818787,332
901.93512,316
902.051331,318
902.167603,323
902.283875,323
902.400085,302
902.516418,323
902.632629,316
902.74884,330
902.865112,317
902.981384,321
903.097595,323
903.213867,316
903.330017,320
903.446289,328
903.5625,320
903.67865,334
903.794922,325
903.911072,314
904.027344,318
904.143494,328
904.259705,322
904.375916,318
904.492065,321
904.608215,316
904.724426,311
904.840576,338
904.956726,313
905.072876,322
905.189087,338
905.305176,312
905.421387,310
905.537537,334
905.653687,316
905.769775,320
905.885925,300
906.002014,318
906.118164,319
906.234314,326
906.350403,315
906.466492,339
906.582642,315
906.69873,309
906.814758,315
906.930908,325
907.046936,315
907.163086,322
907.279175,312
907.395264,313
907.511353,316
907.62738,316
907.743408,321
907.859497,330
907.975525,330
908.091553,320
908.207703,308
908.32373,327
908.439758,326
908.555786,318
908.671814,321
908.787842,328
908.90387,325
909.019775,326
909.135864,329
909.251892,323
909.367859,323
909.483826,315
909.599854,308
909.715881,312
909.831848,322
909.947815,341
910.063782,321
910.179749,336
910.295776,324
910.411743,311
910.527649,323
910.643616,310
910.759583,311
910.875488,322
910.991455,324
911.107361,316
911.223267,321
911.339294,319
911.4552,332
911.571106,326
911.687073,309
911.802979,322
911.918823,314
912.034729,313
912.150635,320
912.266602,322
912.382446,314
912.498352,311
912.614197,317
912.730103,324
912.846008,317
