792.44574,309
792.56488,343
792.68396,381
792.80304,374
792.92218,333
793.041199,307
793.160339,311
793.279419,328
793.398499,317
793.517578,311
793.636658,314
793.755737,326
793.874817,334
793.993896,340
794.112976,316
794.232056,312
794.351074,320
794.470215,311
794.589233,329
794.708313,329
794.827393,313
794.946411,329
795.065552,328
795.18457,323
795.303589,319
795.422668,311
795.541687,324
795.660767,330
795.779846,321
795.898865,312
796.017883,322
796.136963,321
796.255981,323
796.375061,323
796.49408,317
796.613037,320
796.732117,326
796.851135,317
796.970154,299
797.089233,323
797.208191,312
797.327271,319
797.446228,325
797.565186,329
797.684265,305
797.803223,326
797.922241,326
798.04126,319
798.160278,328
798.279297,316
798.398315,320
798.517273,324
798.636292,333
798.75531,329
798.874268,324
798.993286,310
799.112244,319
799.231323,318
799.350281,320
799.469238,317
799.588257,332
799.707153,307
799.826111,327
799.945129,322
800.064087,318
800.183044,314
800.302063,315
800.421021,320
800.539978,339
800.658936,319
800.777893,319
800.896912,321
801.015747,326
801.134705,307
801.253723,319
801.37262,322
801.491638,319
801.610535,317
801.729492,321
801.84845,327
801.967407,320
802.086243,327
802.205261,306
802.324158,323
802.443115,324
802.562073,320
802.680969,320
802.799927,322
802.918762,327
803.037659,321
803.156677,315
803.275574,317
803.39447,307
803.513428,319
803.632263,316
803.751221,328
803.870117,317
803.989014,315
804.107971,321
804.226746,326
804.345642,320
804.4646,317
804.583496,335
804.702393,315
804.821228,315
804.940125,315
805.059021,323
805.177917,314
805.296814,329
805.415649,320
805.534546,307
805.653442,322
805.772278,320
805.891113,309
806.01001,315
806.128906,307
806.247742,316
806.366577,325
806.485413,323
806.604309,315
806.723145,322
806.84198,336
806.960876,307
807.079712,329
807.198486,292
807.317383,322
807.436218,314
807.554993,321
807.673889,330
807.792725,314
807.91156,324
808.030396,327
808.14917,313
808.268005,317
808.386841,315
808.505676,324
808.624451,315
808.743286,324
808.862122,326
808.980896,316
809.099731,311
809.218506,318
809.337341,325
809.456116,311
809.57489,328
809.693726,313
809.8125,311
809.931274,322
810.050049,312
810.168884,322
810.287659,317
810.406372,306
810.525269,318
810.643982,306
810.762756,313
810.881531,308
811.000305,322
811.11908,323
811.237854,315
811.356567,315
811.475403,306
811.594116,327
811.71283,314
811.831604,326
811.950378,315
812.069153,310
812.187927,309
812.30658,324
812.425415,309
812.544128,332
812.662781,316
812.781616,313
812.900269,321
813.019043,313
813.137756,316
813.256531,310
813.375244,328
813.493896,316
813.612671,333
813.731384,327
813.850037,322
813.96875,326
814.087524,309
814.206238,336
814.324951,304
814.443604,316
814.562256,328
814.68103,334
814.799683,317
814.918335,315
815.037109,315
815.155762,333
815.274475,309
815.393188,306
815.511841,323
815.630554,321
815.749146,303
815.867859,320
815.986572,307
816.105164,321
816.223877,322
816.342529,315
816.461182,329
816.579895,315
816.698486,317
816.817139,316
816.935791,322
817.054504,320
817.173096,321
817.291748,315
817.4104,331
817.529053,318
817.647644,314
817.766235,328
817.884949,317
818.00354,315
818.122192,321
818.240845,315
818.359436,308
818.478088,311
818.59668,310
818.715271,329
818.833923,315
818.952515,314
819.071106,320
819.189758,318
819.30835,315
819.426941,312
819.545532,331
819.664124,314
819.782715,323
819.901306,350
820.019897,315
820.138489,326
820.25708,328
820.375671,308
820.494202,324
820.612732,319
820.731384,313
820.849915,311
820.968506,316
821.087097,320
821.205627,312
821.324158,319
821.442749,320
821.561279,318
821.679871,319
821.798401,310
821.916931,319
822.035461,315
822.154053,313
822.272583,322
822.391174,311
822.509583,309
822.628174,317
822.746704,320
822.865234,307
822.983765,319
823.102295,319
823.220825,322
823.339294,328
823.457825,322
823.576355,329
823.694824,310
823.813354,321
823.931885,308
824.050354,309
824.168884,314
824.287354,325
824.405823,316
824.524353,316
824.642822,330
824.761353,317
824.879822,305
824.998291,320
825.116699,312
825.235291,321
825.353699,319
825.472168,307
825.590637,315
825.709106,317
825.827576,315
825.946045,332
826.064453,295
826.182983,333
826.301392,311
826.4198,316
826.53833,317
826.656738,312
826.775208,309
826.893677,314
827.012024,321
827.130493,314
827.248962,308
827.36731,319
827.485779,316
827.604248,312
827.722595,322
827.841064,316
827.959412,318
828.077942,305
828.196289,303
828.314636,321
828.433105,323
828.551514,321
828.669861,320
828.78833,305
828.906677,317
829.025085,301
829.143433,315
829.261841,327
829.38031,318
829.498657,301
829.617004,300
829.735413,313
829.85376,312
829.972107,311
830.090515,318
830.208862,309
830.327209,319
830.445557,317
830.563904,319
830.682312,304
830.800659,325
830.919006,306
831.037354,312
831.155701,309
831.274048,318
831.392395,316
831.51062,293
831.629028,311
831.747314,338
831.865662,311
831.984009,311
832.102356,309
832.220642,313
832.338928,312
832.457275,322
832.575623,309
832.693909,317
832.812134,317
832.930481,316
833.048828,311
833.167114,320
833.2854,309
833.403687,311
833.521973,307
833.640259,326
833.758545,309
833.876831,316
833.995056,315
834.113281,308
834.231628,323
834.349915,309
834.468201,317
834.586426,321
834.704651,311
834.822998,303
834.941162,307
835.059448,314
835.177673,307
835.295959,313
835.414246,320
835.53241,310
835.650635,309
835.768921,325
835.887146,323
836.005371,312
836.123596,311
836.241821,321
836.360046,320
836.478271,322
836.596497,321
836.714722,310
836.832886,315
836.95105,326
837.069336,310
837.1875,314
837.305725,305
837.423889,310
837.542053,319
837.660339,331
837.778503,322
837.896667,313
838.014832,314
838.132996,322
838.25116,309
838.369385,313
838.487488,316
838.605713,317
838.723877,322
838.84198,317
838.960205,308
839.078308,314
839.196472,313
839.314636,321
839.4328,316
839.550964,320
839.669067,325
839.787231,308
839.905396,318
840.023499,318
840.141602,316
840.259766,308
840.377869,322
840.495972,322
840.614136,323
840.732239,325
840.850342,316
840.968445,309
841.086548,316
841.204651,311
841.322754,322
841.440918,321
841.55896,308
841.677002,324
841.795166,316
841.913208,319
842.031311,310
842.149353,318
842.267456,324
842.385498,314
842.503601,310
842.621643,318
842.739746,309
842.857788,314
842.97583,323
843.093933,310
843.211975,308
843.330017,319
843.44812,308
843.566101,311
843.684204,306
843.802246,299
843.920227,308
844.038269,315
844.156311,315
844.274292,302
844.392395,306
844.510376,315
844.628357,321
844.74646,317
844.864441,313
844.982422,324
845.100403,303
845.218384,311
845.336426,324
845.454468,326
845.572449,303
845.69043,315
845.808411,317
845.926453,325
846.044373,307
846.162354,309
846.280396,318
846.398315,311
846.516296,319
846.634216,311
846.752197,308
846.870178,306
846.988098,316
847.106079,312
847.22406,325
847.34198,321
847.4599,311
847.577881,308
847.695801,310
847.813782,321
847.931641,319
848.049561,317
848.167603,295
848.285461,323
848.403381,317
848.521362,308
848.639221,320
848.75708,310
848.875,314
848.99292,324
849.110901,314
849.22876,309
849.34668,305
849.464539,315
849.582458,319
849.700317,315
849.818176,322
849.936096,318
850.053955,316
850.171875,325
850.289673,304
850.407593,316
850.525452,321
850.643311,312
850.761169,313
850.878967,303
850.996887,314
851.114746,313
851.232544,310
851.350403,316
851.468262,322
851.58606,324
851.703979,312
851.821777,321
851.939636,311
852.057434,312
852.175232,312
852.293091,313
852.410889,315
852.528687,317
852.646545,304
852.764343,311
852.88208,313
852.999939,310
853.117676,311
853.235535,312
853.353271,314
853.471069,325
853.588928,301
853.706604,307
853.824402,309
853.9422,318
854.059998,289
854.177734,313
854.295532,320
854.413269,316
854.531006,307
854.648804,309
854.766541,319
854.884277,310
855.002014,309
855.119751,308
855.237549,306
855.355225,315
855.473022,304
855.590698,314
855.708435,318
855.826172,320
855.943848,332
856.061646,313
856.179321,304
856.296997,327
856.414795,307
856.53241,331
856.650085,325
856.767822,311
856.885559,323
857.003174,319
857.120911,313
857.238586,308
857.356201,322
857.473938,324
857.591614,311
857.709351,307
857.826965,310
857.944641,311
858.062317,309
858.179993,310
858.297668,316
858.415283,316
858.532959,318
858.650574,315
858.768188,328
858.885803,327
859.003479,316
859.121094,317
859.23877,310
859.356384,319
859.473999,307
859.591675,318
859.709229,314
859.826843,314
859.944458,293
860.062012,326
860.179626,320
860.297302,308
860.414856,328
860.532471,302
860.650024,312
860.767639,319
860.885193,315
861.002808,319
861.120361,321
861.237976,324
861.35553,307
861.473022,316
861.590698,322
861.708191,321
861.825745,310
861.943298,320
862.060852,320
862.178406,318
862.295959,313
862.413513,314
862.531006,301
862.64856,304
862.766113,310
862.883667,324
863.00116,308
863.118713,328
863.236206,325
863.353699,343
863.471252,314
863.588745,327
863.706177,318
863.82373,311
863.941162,314
864.058716,309
864.176208,313
864.29364,311
864.411194,328
864.528687,333
864.646118,302
864.763611,330
864.881042,318
864.998535,320
865.116028,317
865.233459,316
865.350891,306
865.468384,314
865.585754,298
865.703308,317
865.820679,317
865.938171,315
866.055542,317
866.173035,299
866.290466,319
866.407837,315
866.52533,307
866.6427,318
866.760071,315
866.877563,307
866.994934,298
867.112305,316
867.229736,325
867.347107,312
867.464539,316
867.58197,315
867.699341,328
867.81665,318
867.934082,306
868.051453,313
868.168823,296
868.286194,319
868.403564,298
868.520935,308
868.638306,314
868.755676,310
868.872986,313
868.990295,307
869.107727,323
869.225037,311
869.342346,302
869.459717,311
869.577026,316
869.694336,306
869.811707,319
869.929016,307
870.046326,314
870.163635,320
870.280945,304
870.398254,323
870.515564,311
870.632812,306
870.750183,301
870.867432,325
870.984741,310
871.102051,307
871.219299,311
871.336609,316
871.453918,307
871.571106,313
871.688416,315
871.805664,321
871.922852,317
872.040222,311
872.157471,303
872.274719,305
872.391968,308
872.509155,319
872.626465,321
872.743652,314
872.860962,321
872.978149,333
873.095337,311
873.212646,315
873.329834,314
873.44696,328
873.564209,322
873.681396,312
873.798645,306
873.915894,315
874.03302,317
874.150208,312
874.267456,312
874.384583,307
874.501831,308
874.618958,314
874.736145,312
874.853333,328
874.970459,307
875.087646,313
875.204834,301
875.32196,326
875.439148,329
875.556274,318
875.673401,309
875.790527,325
875.907715,315
876.024841,314
876.141968,325
876.259094,317
876.376282,308
876.493347,318
876.610474,309
876.7276,308
876.844727,317
876.961853,320
877.078918,315
877.195984,328
877.313171,320
877.430237,314
877.547302,302
877.664368,314
877.781433,318
877.898499,301
878.015625,324
878.13269,322
878.249695,306
878.366821,305
878.483887,296
878.600952,318
878.717957,314
878.834961,322
878.952087,317
879.069092,311
879.186157,314
879.303162,320
879.420227,323
879.537231,307
879.654236,311
879.77124,322
879.888306,296
880.005249,320
880.122314,306
880.239319,304
880.356323,322
880.473328,322
880.590271,313
880.707275,328
880.824341,311
880.941284,334
881.058228,312
881.175232,309
881.292236,317
881.40918,305
881.526123,322
881.643066,317
881.760071,322
881.877014,320
881.993958,307
882.11084,323
882.227783,315
882.344727,332
882.46167,308
882.578613,334
882.695618,317
882.812439,318
882.929382,324
883.046326,310
883.163208,313
883.280151,316
883.397034,309
883.513916,322
883.630798,325
883.747742,312
883.864563,308
883.981506,321
884.098389,322
884.21521,340
884.332153,314
884.448975,302
884.565796,319
884.682678,328
884.7995,313
884.916443,308
885.033264,308
885.150085,320
885.266968,302
885.383789,316
885.500671,317
885.617493,304
885.734314,307
885.851196,316
885.967896,316
886.084717,318
886.201599,309
886.318359,316
886.435181,318
886.552002,323
886.668762,324
886.785645,320
886.902344,311
887.019165,309
887.135925,322
887.252747,313
887.369446,318
887.486267,310
887.603027,314
887.719788,318
887.836548,305
887.953247,324
888.070068,321
888.186829,318
888.303528,311
888.420288,325
888.536987,327
888.653687,315
888.770447,307
888.887146,321
889.003967,320
889.120667,321
889.237305,309
889.354065,315
889.470703,306
889.587463,320
889.704163,315
889.820862,321
889.937561,310
890.054199,316
890.170837,306
890.287598,328
890.404236,305
890.520874,315
890.637634,315
890.754211,320
890.87085,313
890.987549,318
891.104187,321
891.220886,332
891.337463,317
891.454102,321
891.57074,322
891.687378,322
891.804077,322
891.920654,314
892.037231,308
892.15387,322
892.270447,320
892.387085,324
892.503723,321
892.6203,327
892.736877,301
892.853516,325
892.970032,323
893.08667,320
893.203186,309
893.319763,311
893.43634,328
893.552917,323
893.669556,320
893.786011,319
893.902588,318
894.019165,312
894.135681,313
894.252197,317
894.368835,302
894.485291,327
894.601868,320
894.718384,327
894.8349,321
894.951355,309
895.067932,314
895.184448,305
895.300964,327
895.417419,298
895.533936,317
895.650452,308
895.766907,319
895.883423,310
895.999878,308
896.116333,324
896.232849,308
896.349304,309
896.465759,322
896.582214,318
896.698669,311
896.815125,335
896.931641,314
897.048035,304
897.164551,308
897.280884,327
897.397339,322
897.513794,310
897.630249,311
897.746582,309
897.863098,313
897.979431,319
898.095886,311
898.212341,309
898.328674,315
898.445129,317
898.561462,314
898.677795,328
898.794312,324
898.910645,306
899.026978,321
899.143433,310
899.259766,317
899.37616,324
899.492493,315
899.608765,336
899.725159,313
899.841553,313
899.957947,316
900.07428,319
900.190552,313
900.306946,312
900.423157,332
900.53949,319
900.655884,321
900.772156,316
900.888489,305
901.004822,316
901.121033,315
901.237366,311
901.353699,317
901.46991,317
901.586304,318
901.702515,310
901.818787,300
901.93512,320
902.051331,314
902.167603,323
902.283875,327
902.400085,318
902.516418,316
902.632629,310
902.74884,323
902.865112,316
902.981384,307
903.097595,324
903.213867,316
903.330017,331
903.446289,313
903.5625,324
903.67865,317
903.794922,331
903.911072,324
904.027344,324
904.143494,320
904.259705,311
904.375916,308
904.492065,307
904.608215,311
904.724426,305
904.840576,317
904.956726,322
905.072876,326
905.189087,310
905.305176,309
905.421387,315
905.537537,313
905.653687,317
905.769775,323
905.885925,309
906.002014,316
906.118164,325
906.234314,315
906.350403,319
906.466492,324
906.582642,317
906.69873,312
906.814758,314
906.930908,316
907.046936,312
907.163086,305
907.279175,320
907.395264,318
907.511353,320
907.62738,305
907.743408,310
907.859497,311
907.975525,310
908.091553,313
908.207703,310
908.32373,309
908.439758,319
908.555786,317
908.671814,325
908.787842,310
908.90387,322
909.019775,318
909.135864,323
909.251892,330
909.367859,330
909.483826,322
909.599854,322
909.715881,319
909.831848,333
909.947815,303
910.063782,327
910.179749,326
910.295776,327
910.411743,311
910.527649,322
910.643616,315
910.759583,317
910.875488,327
910.991455,321
911.107361,310
911.223267,321
911.339294,320
911.4552,323
911.571106,325
911.687073,310
911.802979,319
911.918823,305
912.034729,310
912.150635,315
912.266602,329
912.382446,327
912.498352,319
912.614197,314
912.730103,315
912.846008,308
792.44574,302
792.56488,330
792.68396,391
792.80304,369
792.92218,341
793.041199,299
793.160339,328
793.279419,323
793.398499,333
793.517578,301
793.636658,300
793.755737,333
793.874817,338
793.993896,360
794.112976,328
794.232056,312
794.351074,336
794.470215,333
794.589233,324
794.708313,316
794.827393,324
794.946411,328
795.065552,323
795.18457,334
795.303589,315
795.422668,305
795.541687,329
795.660767,333
795.779846,313
795.898865,324
796.017883,322
796.136963,315
796.255981,320
796.375061,327
796.49408,325
796.613037,318
796.732117,323
796.851135,319
796.970154,322
797.089233,314
797.208191,320
797.327271,323
797.446228,320
797.565186,326
797.684265,337
797.803223,328
797.922241,321
798.04126,330
798.160278,335
798.279297,323
798.398315,325
798.517273,317
798.636292,331
798.75531,330
798.874268,320
798.993286,319
799.112244,315
799.231323,337
799.350281,321
799.469238,321
799.588257,307
799.707153,312
799.826111,330
799.945129,314
800.064087,321
800.183044,323
800.302063,314
800.421021,319
800.539978,313
800.658936,327
800.777893,318
800.896912,311
801.015747,330
801.134705,323
801.253723,315
801.37262,322
801.491638,330
801.610535,320
801.729492,312
801.84845,314
801.967407,316
802.086243,311
802.205261,323
802.324158,319
802.443115,325
802.562073,318
802.680969,324
802.799927,323
802.918762,329
803.037659,321
803.156677,321
803.275574,324
803.39447,320
803.513428,320
803.632263,319
803.751221,335
803.870117,317
803.989014,327
804.107971,318
804.226746,310
804.345642,324
804.4646,314
804.583496,326
804.702393,313
804.821228,319
804.940125,315
805.059021,319
805.177917,328
805.296814,318
805.415649,313
805.534546,318
805.653442,317
805.772278,328
805.891113,320
806.01001,318
806.128906,321
806.247742,310
806.366577,317
806.485413,327
806.604309,309
806.723145,319
806.84198,329
806.960876,317
807.079712,313
807.198486,316
807.317383,330
807.436218,306
807.554993,315
807.673889,315
807.792725,319
807.91156,322
808.030396,334
808.14917,326
808.268005,323
808.386841,315
808.505676,324
808.624451,331
808.743286,322
808.862122,310
808.980896,335
809.099731,304
809.218506,321
809.337341,322
809.456116,312
809.57489,333
809.693726,315
809.8125,320
809.931274,303
810.050049,327
810.168884,316
810.287659,313
810.406372,319
810.525269,310
810.643982,315
810.762756,329
810.881531,329
811.000305,308
811.11908,309
811.237854,323
811.356567,326
811.475403,315
811.594116,310
811.71283,318
811.831604,318
811.950378,332
812.069153,331
812.187927,315
812.30658,320
812.425415,324
812.544128,320
812.662781,322
812.781616,325
812.900269,301
813.019043,330
813.137756,320
813.256531,309
813.375244,329
813.493896,311
813.612671,314
813.731384,309
813.850037,313
813.96875,324
814.087524,317
814.206238,326
814.324951,307
814.443604,326
814.562256,312
814.68103,319
814.799683,329
814.918335,306
815.037109,314
815.155762,324
815.274475,325
815.393188,324
815.511841,328
815.630554,309
815.749146,310
815.867859,318
815.986572,316
816.105164,317
816.223877,315
816.342529,313
816.461182,321
816.579895,327
816.698486,308
816.817139,308
816.935791,310
817.054504,305
817.173096,314
817.291748,331
817.4104,319
817.529053,314
817.647644,325
817.766235,324
817.884949,323
818.00354,314
818.122192,317
818.240845,304
818.359436,321
818.478088,316
818.59668,306
818.715271,307
818.833923,316
818.952515,319
819.071106,321
819.189758,322
819.30835,307
819.426941,323
819.545532,326
819.664124,329
819.782715,302
819.901306,316
820.019897,317
820.138489,307
820.25708,317
820.375671,322
820.494202,312
820.612732,321
820.731384,311
820.849915,324
820.968506,316
821.087097,319
821.205627,316
821.324158,323
821.442749,322
821.561279,324
821.679871,317
821.798401,326
821.916931,320
822.035461,315
822.154053,318
822.272583,313
822.391174,311
822.509583,329
822.628174,309
822.746704,311
822.865234,316
822.983765,311
823.102295,319
823.220825,312
823.339294,310
823.457825,305
823.576355,301
823.694824,305
823.813354,323
823.931885,317
824.050354,327
824.168884,320
824.287354,316
824.405823,308
824.524353,310
824.642822,318
824.761353,324
824.879822,315
824.998291,311
825.116699,310
825.235291,311
825.353699,314
825.472168,312
825.590637,323
825.709106,321
825.827576,317
825.946045,319
826.064453,313
826.182983,327
826.301392,313
826.4198,330
826.53833,318
826.656738,310
826.775208,315
826.893677,312
827.012024,312
827.130493,309
827.248962,323
827.36731,326
827.485779,320
827.604248,316
827.722595,309
827.841064,322
827.959412,309
828.077942,316
828.196289,299
828.314636,314
828.433105,326
828.551514,321
828.669861,318
828.78833,323
828.906677,319
829.025085,312
829.143433,319
829.261841,316
829.38031,317
829.498657,321
829.617004,316
829.735413,322
829.85376,300
829.972107,323
830.090515,320
830.208862,316
830.327209,305
830.445557,319
830.563904,317
830.682312,304
830.800659,324
830.919006,320
831.037354,305
831.155701,313
831.274048,325
831.392395,321
831.51062,317
831.629028,303
831.747314,322
831.865662,318
831.984009,319
832.102356,312
832.220642,316
832.338928,313
832.457275,313
832.575623,312
832.693909,318
832.812134,311
832.930481,319
833.048828,323
833.167114,325
833.2854,319
833.403687,311
833.521973,316
833.640259,301
833.758545,322
833.876831,306
833.995056,315
834.113281,316
834.231628,310
834.349915,319
834.468201,307
834.586426,324
834.704651,328
834.822998,319
834.941162,319
835.059448,329
835.177673,317
835.295959,320
835.414246,317
835.53241,313
835.650635,323
835.768921,305
835.887146,318
836.005371,318
836.123596,303
836.241821,324
836.360046,315
836.478271,315
836.596497,322
836.714722,317
836.832886,313
836.95105,320
837.069336,319
837.1875,326
837.305725,311
837.423889,304
837.542053,329
837.660339,326
837.778503,304
837.896667,304
838.014832,319
838.132996,303
838.25116,319
838.369385,315
838.487488,303
838.605713,314
838.723877,306
838.84198,314
838.960205,315
839.078308,316
839.196472,308
839.314636,307
839.4328,323
839.550964,315
839.669067,312
839.787231,313
839.905396,309
840.023499,314
840.141602,307
840.259766,316
840.377869,311
840.495972,298
840.614136,307
840.732239,311
840.850342,311
840.968445,319
841.086548,330
841.204651,312
841.322754,310
841.440918,322
841.55896,317
841.677002,325
841.795166,303
841.913208,327
842.031311,306
842.149353,306
842.267456,308
842.385498,306
842.503601,325
842.621643,310
842.739746,309
842.857788,312
842.97583,319
843.093933,304
843.211975,298
843.330017,318
843.44812,328
843.566101,325
843.684204,318
843.802246,324
843.920227,317
844.038269,306
844.156311,310
844.274292,325
844.392395,323
844.510376,324
844.628357,317
844.74646,321
844.864441,313
844.982422,321
845.100403,311
845.218384,303
845.336426,316
845.454468,314
845.572449,331
845.69043,309
845.808411,326
845.926453,319
846.044373,306
846.162354,327
846.280396,313
846.398315,323
846.516296,306
846.634216,307
846.752197,310
846.870178,315
846.988098,299
847.106079,319
847.22406,311
847.34198,312
847.4599,312
847.577881,309
847.695801,319
847.813782,317
847.931641,322
848.049561,308
848.167603,320
848.285461,321
848.403381,318
848.521362,323
848.639221,301
848.75708,312
848.875,308
848.99292,311
849.110901,307
849.22876,326
849.34668,314
849.464539,308
849.582458,310
849.700317,312
849.818176,323
849.936096,307
850.053955,298
850.171875,318
850.289673,319
850.407593,300
850.525452,317
850.643311,305
850.761169,321
850.878967,301
850.996887,313
851.114746,305
851.232544,310
851.350403,320
851.468262,316
851.58606,314
851.703979,322
851.821777,314
851.939636,326
852.057434,329
852.175232,306
852.293091,310
852.410889,311
852.528687,315
852.646545,312
852.764343,323
852.88208,311
852.999939,326
853.117676,308
853.235535,316
853.353271,305
853.471069,328
853.588928,318
853.706604,322
853.824402,324
853.9422,328
854.059998,307
854.177734,306
854.295532,318
854.413269,321
854.531006,318
854.648804,323
854.766541,307
854.884277,327
855.002014,314
855.119751,310
855.237549,314
855.355225,312
855.473022,311
855.590698,321
855.708435,334
855.826172,318
855.943848,308
856.061646,310
856.179321,307
856.296997,322
856.414795,322
856.53241,313
856.650085,310
856.767822,328
856.885559,307
857.003174,325
857.120911,312
857.238586,304
857.356201,329
857.473938,312
857.591614,299
857.709351,313
857.826965,303
857.944641,321
858.062317,302
858.179993,316
858.297668,314
858.415283,302
858.532959,316
858.650574,312
858.768188,308
858.885803,319
859.003479,303
859.121094,311
859.23877,316
859.356384,320
859.473999,320
859.591675,314
859.709229,316
859.826843,310
859.944458,313
860.062012,318
860.179626,320
860.297302,316
860.414856,316
860.532471,312
860.650024,320
860.767639,306
860.885193,326
861.002808,307
861.120361,309
861.237976,320
861.35553,326
861.473022,303
861.590698,314
861.708191,307
861.825745,305
861.943298,317
862.060852,324
862.178406,319
862.295959,305
862.413513,323
862.531006,320
862.64856,307
862.766113,326
862.883667,306
863.00116,315
863.118713,321
863.236206,317
863.353699,316
863.471252,308
863.588745,315
863.706177,309
863.82373,317
863.941162,297
864.058716,319
864.176208,313
864.29364,321
864.411194,312
864.528687,324
864.646118,294
864.763611,311
864.881042,306
864.998535,313
865.116028,309
865.233459,323
865.350891,317
865.468384,309
865.585754,316
865.703308,318
865.820679,311
865.938171,321
866.055542,306
866.173035,313
866.290466,311
866.407837,307
866.52533,315
866.6427,303
866.760071,317
866.877563,337
866.994934,315
867.112305,320
867.229736,310
867.347107,306
867.464539,314
867.58197,308
867.699341,316
867.81665,307
867.934082,325
868.051453,320
868.168823,317
868.286194,313
868.403564,316
868.520935,324
868.638306,313
868.755676,326
868.872986,303
868.990295,311
869.107727,310
869.225037,320
869.342346,320
869.459717,327
869.577026,312
869.694336,317
869.811707,320
869.929016,310
870.046326,325
870.163635,315
870.280945,322
870.398254,311
870.515564,315
870.632812,320
870.750183,323
870.867432,323
870.984741,310
871.102051,322
871.219299,318
871.336609,332
871.453918,321
871.571106,316
871.688416,319
871.805664,331
871.922852,313
872.040222,317
872.157471,308
872.274719,323
872.391968,314
872.509155,312
872.626465,317
872.743652,328
872.860962,302
872.978149,294
873.095337,313
873.212646,304
873.329834,322
873.44696,307
873.564209,322
873.681396,293
873.798645,317
873.915894,323
874.03302,324
874.150208,307
874.267456,318
874.384583,325
874.501831,316
874.618958,293
874.736145,319
874.853333,303
874.970459,305
875.087646,311
875.204834,309
875.32196,318
875.439148,303
875.556274,322
875.673401,312
875.790527,318
875.907715,317
876.024841,306
876.141968,324
876.259094,325
876.376282,317
876.493347,314
876.610474,316
876.7276,316
876.844727,319
876.961853,314
877.078918,310
877.195984,318
877.313171,315
877.430237,312
877.547302,313
877.664368,318
877.781433,304
877.898499,316
878.015625,319
878.13269,303
878.249695,319
878.366821,321
878.483887,314
878.600952,305
878.717957,331
878.834961,321
878.952087,310
879.069092,320
879.186157,307
879.303162,309
879.420227,322
879.537231,323
879.654236,307
879.77124,298
879.888306,304
880.005249,312
880.122314,309
880.239319,319
880.356323,305
880.473328,308
880.590271,327
880.707275,304
880.824341,314
880.941284,316
881.058228,311
881.175232,318
881.292236,306
881.40918,322
881.526123,311
881.643066,317
881.760071,322
881.877014,317
881.993958,310
882.11084,303
882.227783,314
882.344727,306
882.46167,297
882.578613,311
882.695618,302
882.812439,314
882.929382,322
883.046326,315
883.163208,327
883.280151,322
883.397034,311
883.513916,339
883.630798,312
883.747742,312
883.864563,310
883.981506,324
884.098389,318
884.21521,319
884.332153,303
884.448975,319
884.565796,311
884.682678,311
884.7995,312
884.916443,319
885.033264,300
885.150085,322
885.266968,307
885.383789,313
885.500671,326
885.617493,329
885.734314,315
885.851196,316
885.967896,318
886.084717,319
886.201599,326
886.318359,307
886.435181,317
886.552002,327
886.668762,328
886.785645,325
886.902344,308
887.019165,325
887.135925,313
887.252747,319
887.369446,311
887.486267,311
887.603027,319
887.719788,319
887.836548,320
887.953247,318
888.070068,311
888.186829,315
888.303528,307
888.420288,325
888.536987,327
888.653687,312
888.770447,319
888.887146,314
889.003967,329
889.120667,320
889.237305,299
889.354065,317
889.470703,304
889.587463,317
889.704163,324
889.820862,299
889.937561,314
890.054199,325
890.170837,315
890.287598,328
890.404236,307
890.520874,327
890.637634,305
890.754211,333
890.87085,330
890.987549,315
891.104187,315
891.220886,321
891.337463,314
891.454102,317
891.57074,307
891.687378,307
891.804077,311
891.920654,308
892.037231,315
892.15387,303
892.270447,313
892.387085,308
892.503723,309
892.6203,322
892.736877,311
892.853516,328
892.970032,314
893.08667,325
893.203186,306
893.319763,327
893.43634,319
893.552917,304
893.669556,311
893.786011,315
893.902588,297
894.019165,317
894.135681,328
894.252197,308
894.368835,323
894.485291,327
894.601868,311
894.718384,316
894.8349,310
894.951355,316
895.067932,323
895.184448,313
895.300964,309
895.417419,319
895.533936,316
895.650452,324
895.766907,314
895.883423,314
895.999878,309
896.116333,306
896.232849,312
896.349304,308
896.465759,311
896.582214,317
896.698669,315
896.815125,318
896.931641,328
897.048035,321
897.164551,327
897.280884,314
897.397339,310
897.513794,319
897.630249,317
897.746582,318
897.863098,304
897.979431,317
898.095886,311
898.212341,319
898.328674,317
898.445129,335
898.561462,315
898.677795,319
898.794312,311
898.910645,317
899.026978,303
899.143433,309
899.259766,328
899.37616,321
899.492493,314
899.608765,316
899.725159,309
899.841553,323
899.957947,299
900.07428,337
900.190552,313
900.306946,325
900.423157,318
900.53949,309
900.655884,313
900.772156,326
900.888489,318
901.004822,325
901.121033,326
901.237366,320
901.353699,316
901.46991,319
901.586304,320
901.702515,327
901.818787,315
901.93512,325
902.051331,308
902.167603,326
902.283875,311
902.400085,318
902.516418,313
902.632629,320
902.74884,312
902.865112,301
902.981384,304
903.097595,314
903.213867,333
903.330017,327
903.446289,315
903.5625,321
903.67865,314
903.794922,322
903.911072,326
904.027344,315
904.143494,322
904.259705,334
904.375916,304
904.492065,318
904.608215,298
904.724426,324
904.840576,316
904.956726,324
905.072876,321
905.189087,330
905.305176,317
905.421387,320
905.537537,308
905.653687,315
905.769775,309
905.885925,311
906.002014,315
906.118164,326
906.234314,324
906.350403,313
906.466492,318
906.582642,329
906.69873,308
906.814758,317
906.930908,306
907.046936,327
907.163086,311
907.279175,317
907.395264,309
907.511353,319
907.62738,311
907.743408,324
907.859497,327
907.975525,329
908.091553,307
908.207703,309
908.32373,321
908.439758,311
908.555786,313
908.671814,300
908.787842,328
908.90387,330
909.019775,309
909.135864,322
909.251892,323
909.367859,314
909.483826,307
909.599854,329
909.715881,321
909.831848,328
909.947815,311
910.063782,327
910.179749,319
910.295776,311
910.411743,308
910.527649,312
910.643616,326
910.759583,329
910.875488,314
910.991455,325
911.107361,321
911.223267,319
911.339294,315
911.4552,327
911.571106,307
911.687073,301
911.802979,310
911.918823,319
912.034729,335
912.150635,320
912.266602,319
912.382446,309
912.498352,324
912.614197,322
912.730103,319
912.846008,314
792.44574,311
792.56488,339
792.68396,379
792.80304,371
792.92218,331
793.041199,310
793.160339,306
793.279419,328
793.398499,324
793.517578,300
793.636658,309
793.755737,331
793.874817,341
793.993896,328
794.112976,330
794.232056,315
794.351074,305
794.470215,322
794.589233,312
794.708313,332
794.827393,319
794.946411,324
795.065552,327
795.18457,321
795.303589,325
795.422668,325
795.541687,333
795.660767,326
795.779846,320
795.898865,325
796.017883,325
796.136963,333
796.255981,323
796.375061,325
796.49408,319
796.613037,332
796.732117,331
796.851135,320
796.970154,329
797.089233,316
797.208191,320
797.327271,308
797.446228,332
797.565186,324
797.684265,319
797.803223,320
797.922241,327
798.04126,318
798.160278,317
798.279297,323
798.398315,334
798.517273,338
798.636292,312
798.75531,334
798.874268,316
798.993286,316
799.112244,336
799.231323,320
799.350281,309
799.469238,310
799.588257,310
799.707153,309
799.826111,326
799.945129,328
800.064087,317
800.183044,322
800.302063,336
800.421021,324
800.539978,322
800.658936,320
800.777893,329
800.896912,327
801.015747,313
801.134705,317
801.253723,320
801.37262,319
801.491638,334
801.610535,323
801.729492,315
801.84845,333
801.967407,332
802.086243,327
802.205261,330
802.324158,317
802.443115,331
802.562073,323
802.680969,311
802.799927,321
802.918762,315
803.037659,319
803.156677,318
803.275574,319
803.39447,334
803.513428,321
803.632263,332
803.751221,327
803.870117,328
803.989014,311
804.107971,332
804.226746,323
804.345642,319
804.4646,336
804.583496,311
804.702393,312
804.821228,324
804.940125,326
805.059021,326
805.177917,328
805.296814,317
805.415649,315
805.534546,322
805.653442,327
805.772278,322
805.891113,320
806.01001,336
806.128906,322
806.247742,322
806.366577,309
806.485413,318
806.604309,323
806.723145,312
806.84198,325
806.960876,316
807.079712,321
807.198486,330
807.317383,322
807.436218,325
807.554993,311
807.673889,321
807.792725,329
807.91156,314
808.030396,325
808.14917,321
808.268005,323
808.386841,319
808.505676,317
808.624451,332
808.743286,304
808.862122,328
808.980896,334
809.099731,317
809.218506,317
809.337341,328
809.456116,317
809.57489,339
809.693726,322
809.8125,324
809.931274,319
810.050049,331
810.168884,310
810.287659,319
810.406372,316
810.525269,319
810.643982,332
810.762756,316
810.881531,300
811.000305,304
811.11908,324
811.237854,328
811.356567,322
811.475403,307
811.594116,334
811.71283,316
811.831604,329
811.950378,314
812.069153,321
812.187927,321
812.30658,319
812.425415,327
812.544128,314
812.662781,308
812.781616,320
812.900269,312
813.019043,324
813.137756,303
813.256531,324
813.375244,317
813.493896,317
813.612671,335
813.731384,316
813.850037,314
813.96875,306
814.087524,326
814.206238,316
814.324951,321
814.443604,326
814.562256,300
814.68103,314
814.799683,313
814.918335,331
815.037109,315
815.155762,307
815.274475,310
815.393188,329
815.511841,301
815.630554,319
815.749146,315
815.867859,317
815.986572,318
816.105164,323
816.223877,314
816.342529,320
816.461182,330
816.579895,311
816.698486,310
816.817139,327
816.935791,306
817.054504,313
817.173096,318
817.291748,305
817.4104,308
817.529053,318
817.647644,307
817.766235,324
817.884949,321
818.00354,308
818.122192,332
818.240845,327
818.359436,326
818.478088,307
818.59668,327
818.715271,308
818.833923,322
818.952515,319
819.071106,319
819.189758,323
819.30835,327
819.426941,315
819.545532,312
819.664124,327
819.782715,309
819.901306,327
820.019897,326
820.138489,311
820.25708,313
820.375671,320
820.494202,332
820.612732,308
820.731384,324
820.849915,315
820.968506,315
821.087097,320
821.205627,314
821.324158,329
821.442749,327
821.561279,315
821.679871,319
821.798401,325
821.916931,328
822.035461,310
822.154053,325
822.272583,317
822.391174,309
822.509583,314
822.628174,313
822.746704,327
822.865234,323
822.983765,318
823.102295,317
823.220825,307
823.339294,316
823.457825,312
823.576355,314
823.694824,312
823.813354,303
823.931885,328
824.050354,320
824.168884,306
824.287354,315
824.405823,322
824.524353,320
824.642822,312
824.761353,306
824.879822,325
824.998291,329
825.116699,317
825.235291,312
825.353699,308
825.472168,327
825.590637,320
825.709106,309
825.827576,299
825.946045,321
826.064453,317
826.182983,305
826.301392,335
826.4198,315
826.53833,309
826.656738,310
826.775208,312
826.893677,318
827.012024,314
827.130493,316
827.248962,320
827.36731,304
827.485779,315
827.604248,319
827.722595,318
827.841064,321
827.959412,318
828.077942,312
828.196289,327
828.314636,306
828.433105,322
828.551514,316
828.669861,308
828.78833,320
828.906677,331
829.025085,320
829.143433,317
829.261841,316
829.38031,317
829.498657,317
829.617004,308
829.735413,313
829.85376,332
829.972107,312
830.090515,318
830.208862,312
830.327209,321
830.445557,326
830.563904,314
830.682312,309
830.800659,325
830.919006,312
831.037354,334
831.155701,312
831.274048,316
831.392395,309
831.51062,320
831.629028,324
831.747314,330
831.865662,307
831.984009,325
832.102356,317
832.220642,312
832.338928,318
832.457275,314
832.575623,315
832.693909,321
832.812134,321
832.930481,307
833.048828,324
833.167114,312
833.2854,309
833.403687,313
833.521973,319
833.640259,324
833.758545,314
833.876831,317
833.995056,317
834.113281,321
834.231628,308
834.349915,321
834.468201,313
834.586426,316
834.704651,305
834.822998,317
834.941162,315
835.059448,324
835.177673,316
835.295959,315
835.414246,317
835.53241,318
835.650635,305
835.768921,327
835.887146,311
836.005371,311
836.123596,315
836.241821,312
836.360046,329
836.478271,324
836.596497,296
836.714722,295
836.832886,322
836.95105,315
837.069336,326
837.1875,301
837.305725,315
837.423889,319
837.542053,309
837.660339,322
837.778503,320
837.896667,316
838.014832,327
838.132996,319
838.25116,309
838.369385,305
838.487488,315
838.605713,321
838.723877,322
838.84198,321
838.960205,313
839.078308,319
839.196472,314
839.314636,313
839.4328,330
839.550964,318
839.669067,314
839.787231,323
839.905396,321
840.023499,320
840.141602,316
840.259766,308
840.377869,323
840.495972,326
840.614136,301
840.732239,314
840.850342,310
840.968445,327
841.086548,329
841.204651,330
841.322754,306
841.440918,329
841.55896,308
841.677002,316
841.795166,318
841.913208,310
842.031311,321
842.149353,311
842.267456,308
842.385498,322
842.503601,317
842.621643,310
842.739746,326
842.857788,314
842.97583,313
843.093933,313
843.211975,331
843.330017,309
843.44812,319
843.566101,311
843.684204,297
843.802246,312
843.920227,313
844.038269,308
844.156311,303
844.274292,320
844.392395,317
844.510376,311
844.628357,308
844.74646,311
844.864441,316
844.982422,322
845.100403,324
845.218384,320
845.336426,312
845.454468,321
845.572449,336
845.69043,314
845.808411,307
845.926453,306
846.044373,308
846.162354,319
846.280396,311
846.398315,314
846.516296,312
846.634216,305
846.752197,305
846.870178,327
846.988098,314
847.106079,309
847.22406,319
847.34198,319
847.4599,307
847.577881,335
847.695801,297
847.813782,321
847.931641,317
848.049561,300
848.167603,315
848.285461,318
848.403381,309
848.521362,318
848.639221,326
848.75708,312
848.875,321
848.99292,312
849.110901,315
849.22876,318
849.34668,305
849.464539,310
849.582458,310
849.700317,321
849.818176,311
849.936096,324
850.053955,310
850.171875,328
850.289673,329
850.407593,306
850.525452,309
850.643311,325
850.761169,328
850.878967,316
850.996887,316
851.114746,326
851.232544,310
851.350403,316
851.468262,316
851.58606,324
851.703979,310
851.821777,329
851.939636,321
852.057434,314
852.175232,313
852.293091,310
852.410889,320
852.528687,317
852.646545,312
852.764343,330
852.88208,323
852.999939,319
853.117676,305
853.235535,321
853.353271,313
853.471069,300
853.588928,326
853.706604,319
853.824402,321
853.9422,320
854.059998,310
854.177734,315
854.295532,298
854.413269,301
854.531006,312
854.648804,298
854.766541,320
854.884277,309
855.002014,310
855.119751,318
855.237549,321
855.355225,318
855.473022,305
855.590698,318
855.708435,318
855.826172,335
855.943848,312
856.061646,312
856.179321,319
856.296997,321
856.414795,306
856.53241,316
856.650085,319
856.767822,334
856.885559,327
857.003174,322
857.120911,308
857.238586,320
857.356201,315
857.473938,313
857.591614,313
857.709351,326
857.826965,299
857.944641,317
858.062317,317
858.179993,330
858.297668,315
858.415283,328
858.532959,316
858.650574,324
858.768188,325
858.885803,313
859.003479,309
859.121094,319
859.23877,321
859.356384,320
859.473999,321
859.591675,325
859.709229,320
859.826843,312
859.944458,311
860.062012,318
860.179626,298
860.297302,318
860.414856,319
860.532471,317
860.650024,318
860.767639,310
860.885193,326
861.002808,311
861.120361,325
861.237976,321
861.35553,322
861.473022,316
861.590698,312
861.708191,317
861.825745,312
861.943298,322
862.060852,309
862.178406,329
862.295959,305
862.413513,324
862.531006,320
862.64856,315
862.766113,329
862.883667,314
863.00116,314
863.118713,323
863.236206,315
863.353699,321
863.471252,306
863.588745,325
863.706177,298
863.82373,313
863.941162,317
864.058716,316
864.176208,317
864.29364,320
864.411194,307
864.528687,316
864.646118,332
864.763611,302
864.881042,318
864.998535,322
865.116028,303
865.233459,320
865.350891,319
865.468384,314
865.585754,314
865.703308,316
865.820679,301
865.938171,334
866.055542,309
866.173035,309
866.290466,315
866.407837,325
866.52533,315
866.6427,328
866.760071,322
866.877563,306
866.994934,317
867.112305,311
867.229736,300
867.347107,308
867.464539,314
867.58197,316
867.699341,300
867.81665,326
867.934082,320
868.051453,308
868.168823,307
868.286194,304
868.403564,317
868.520935,314
868.638306,306
868.755676,329
868.872986,322
868.990295,325
869.107727,303
869.225037,324
869.342346,313
869.459717,318
869.577026,318
869.694336,320
869.811707,318
869.929016,327
870.046326,328
870.163635,318
870.280945,315
870.398254,313
870.515564,316
870.632812,320
870.750183,308
870.867432,317
870.984741,300
871.102051,320
871.219299,318
871.336609,315
871.453918,327
871.571106,325
871.688416,307
871.805664,308
871.922852,320
872.040222,322
872.157471,319
872.274719,319
872.391968,321
872.509155,321
872.626465,309
872.743652,310
872.860962,323
872.978149,325
873.095337,304
873.212646,318
873.329834,312
873.44696,316
873.564209,316
873.681396,320
873.798645,305
873.915894,321
874.03302,320
874.150208,319
874.267456,316
874.384583,310
874.501831,309
874.618958,324
874.736145,318
874.853333,321
874.970459,316
875.087646,315
875.204834,311
875.32196,317
875.439148,313
875.556274,313
875.673401,296
875.790527,323
875.907715,316
876.024841,317
876.141968,304
876.259094,309
876.376282,321
876.493347,317
876.610474,306
876.7276,306
876.844727,311
876.961853,321
877.078918,319
877.195984,320
877.313171,322
877.430237,320
877.547302,323
877.664368,316
877.781433,315
877.898499,330
878.015625,313
878.13269,326
878.249695,306
878.366821,317
878.483887,308
878.600952,325
878.717957,315
878.834961,321
878.952087,311
879.069092,324
879.186157,312
879.303162,310
879.420227,306
879.537231,316
879.654236,322
879.77124,315
879.888306,313
880.005249,321
880.122314,314
880.239319,315
880.356323,305
880.473328,325
880.590271,320
880.707275,313
880.824341,314
880.941284,323
881.058228,310
881.175232,323
881.292236,314
881.40918,316
881.526123,331
881.643066,312
881.760071,325
881.877014,316
881.993958,305
882.11084,303
882.227783,321
882.344727,327
882.46167,316
882.578613,323
882.695618,321
882.812439,325
882.929382,318
883.046326,318
883.163208,312
883.280151,316
883.397034,322
883.513916,315
883.630798,316
883.747742,315
883.864563,308
883.981506,317
884.098389,309
884.21521,304
884.332153,308
884.448975,307
884.565796,321
884.682678,315
884.7995,320
884.916443,321
885.033264,314
885.150085,302
885.266968,311
885.383789,315
885.500671,313
885.617493,323
885.734314,324
885.851196,312
885.967896,313
886.084717,309
886.201599,314
886.318359,317
886.435181,301
886.552002,318
886.668762,318
886.785645,307
886.902344,321
887.019165,310
887.135925,321
887.252747,317
887.369446,321
887.486267,316
887.603027,330
887.719788,315
887.836548,313
887.953247,326
888.070068,317
888.186829,309
888.303528,318
888.420288,309
888.536987,318
888.653687,323
888.770447,313
888.887146,313
889.003967,318
889.120667,316
889.237305,318
889.354065,323
889.470703,311
889.587463,310
889.704163,329
889.820862,310
889.937561,322
890.054199,322
890.170837,320
890.287598,324
890.404236,311
890.520874,321
890.637634,309
890.754211,310
890.87085,302
890.987549,321
891.104187,328
891.220886,313
891.337463,322
891.454102,316
891.57074,323
891.687378,331
891.804077,310
891.920654,316
892.037231,304
892.15387,304
892.270447,331
892.387085,331
892.503723,322
892.6203,326
892.736877,314
892.853516,316
892.970032,309
893.08667,314
893.203186,318
893.319763,324
893.43634,313
893.552917,313
893.669556,314
893.786011,318
893.902588,315
894.019165,327
894.135681,319
894.252197,309
894.368835,320
894.485291,305
894.601868,320
894.718384,313
894.8349,304
894.951355,329
895.067932,313
895.184448,316
895.300964,320
895.417419,326
895.533936,303
895.650452,328
895.766907,316
895.883423,313
895.999878,305
896.116333,316
896.232849,331
896.349304,316
896.465759,302
896.582214,330
896.698669,313
896.815125,329
896.931641,313
897.048035,318
897.164551,316
897.280884,315
897.397339,314
897.513794,308
897.630249,322
897.746582,314
897.863098,323
897.979431,320
898.095886,320
898.212341,314
898.328674,318
898.445129,318
898.561462,316
898.677795,325
898.794312,325
898.910645,318
899.026978,318
899.143433,304
899.259766,318
899.37616,321
899.492493,314
899.608765,305
899.725159,316
899.841553,318
899.957947,311
900.07428,313
900.190552,316
900.306946,307
900.423157,316
900.53949,322
900.655884,326
900.772156,317
900.888489,323
901.004822,314
901.121033,315
901.237366,318
901.353699,312
901.46991,330
901.586304,317
901.702515,315
901.818787,322
901.93512,325
902.051331,321
902.167603,320
902.283875,324
902.400085,319
902.516418,318
902.632629,317
902.74884,305
902.865112,321
902.981384,313
903.097595,319
903.213867,313
903.330017,322
903.446289,325
903.5625,312
903.67865,312
903.794922,320
903.911072,325
904.027344,309
904.143494,316
904.259705,316
904.375916,330
904.492065,320
904.608215,312
904.724426,334
904.840576,307
904.956726,322
905.072876,306
905.189087,317
905.305176,317
905.421387,319
905.537537,328
905.653687,331
905.769775,317
905.885925,321
906.002014,298
906.118164,327
906.234314,320
906.350403,333
906.466492,320
906.582642,313
906.69873,313
906.814758,335
906.930908,319
907.046936,316
907.163086,304
907.279175,323
907.395264,321
907.511353,323
907.62738,320
907.743408,309
907.859497,314
907.975525,315
908.091553,324
908.207703,315
908.32373,301
908.439758,322
908.555786,322
908.671814,325
908.787842,334
908.90387,308
909.019775,321
909.135864,328
909.251892,316
909.367859,314
909.483826,295
909.599854,322
909.715881,328
909.831848,318
909.947815,313
910.063782,333
910.179749,313
910.295776,327
910.411743,313
910.527649,319
910.643616,307
910.759583,324
910.875488,321
910.991455,325
911.107361,324
911.223267,318
911.339294,327
911.4552,310
911.571106,316
911.687073,321
911.802979,324
911.918823,325
912.034729,317
912.150635,324
912.266602,326
912.382446,308
912.498352,313
912.614197,337
912.730103,315
912.846008,310
