792.44574,303
792.56488,364
792.68396,391
792.80304,376
792.92218,322
793.041199,312
793.160339,326
793.279419,344
793.398499,321
793.517578,306
793.636658,324
793.755737,328
793.874817,340
793.993896,342
794.112976,341
794.232056,320
794.351074,326
794.470215,328
794.589233,332
794.708313,337
794.827393,329
794.946411,331
795.065552,324
795.18457,343
795.303589,336
795.422668,335
795.541687,340
795.660767,324
795.779846,339
795.898865,325
796.017883,336
796.136963,319
796.255981,341
796.375061,330
796.49408,336
796.613037,319
796.732117,320
796.851135,327
796.970154,327
797.089233,318
797.208191,338
797.327271,329
797.446228,330
797.565186,328
797.684265,327
797.803223,332
797.922241,315
798.04126,337
798.160278,347
798.279297,317
798.398315,328
798.517273,330
798.636292,332
798.75531,323
798.874268,317
798.993286,319
799.112244,319
799.231323,342
799.350281,331
799.469238,328
799.588257,333
799.707153,342
799.826111,320
799.945129,326
800.064087,324
800.183044,333
800.302063,325
800.421021,321
800.539978,339
800.658936,313
800.777893,338
800.896912,319
801.015747,336
801.134705,314
801.253723,323
801.37262,336
801.491638,319
801.610535,321
801.729492,330
801.84845,325
801.967407,343
802.086243,324
802.205261,328
802.324158,336
802.443115,338
802.562073,317
802.680969,339
802.799927,326
802.918762,326
803.037659,329
803.156677,341
803.275574,318
803.39447,335
803.513428,330
803.632263,353
803.751221,315
803.870117,326
803.989014,322
804.107971,311
804.226746,341
804.345642,325
804.4646,340
804.583496,337
804.702393,315
804.821228,328
804.940125,336
805.059021,342
805.177917,321
805.296814,319
805.415649,332
805.534546,337
805.653442,333
805.772278,325
805.891113,327
806.01001,332
806.128906,336
806.247742,336
806.366577,344
806.485413,319
806.604309,326
806.723145,346
806.84198,326
806.960876,341
807.079712,314
807.198486,327
807.317383,335
807.436218,339
807.554993,328
807.673889,343
807.792725,336
807.91156,335
808.030396,341
808.14917,324
808.268005,329
808.386841,337
808.505676,328
808.624451,316
808.743286,318
808.862122,333
808.980896,336
809.099731,328
809.218506,320
809.337341,342
809.456116,340
809.57489,333
809.693726,340
809.8125,337
809.931274,333
810.050049,334
810.168884,330
810.287659,347
810.406372,336
810.525269,324
810.643982,331
810.762756,318
810.881531,311
811.000305,340
811.11908,348
811.237854,332
811.356567,341
811.475403,346
811.594116,324
811.71283,343
811.831604,338
811.950378,332
812.069153,339
812.187927,317
812.30658,342
812.425415,341
812.544128,328
812.662781,335
812.781616,334
812.900269,336
813.019043,329
813.137756,344
813.256531,518
813.375244,8047
813.493896,6087
813.612671,523
813.731384,322
813.850037,332
813.96875,333
814.087524,342
814.206238,337
814.324951,336
814.443604,324
814.562256,335
814.68103,330
814.799683,338
814.918335,337
815.037109,322
815.155762,328
815.274475,337
815.393188,343
815.511841,335
815.630554,329
815.749146,339
815.867859,333
815.986572,327
816.105164,325
816.223877,338
816.342529,334
816.461182,331
816.579895,324
816.698486,318
816.817139,327
816.935791,342
817.054504,321
817.173096,319
817.291748,326
817.4104,333
817.529053,338
817.647644,336
817.766235,316
817.884949,332
818.00354,318
818.122192,341
818.240845,327
818.359436,327
818.478088,328
818.59668,322
818.715271,321
818.833923,334
818.952515,316
819.071106,328
819.189758,306
819.30835,322
819.426941,323
819.545532,328
819.664124,307
819.782715,330
819.901306,312
820.019897,322
820.138489,303
820.25708,326
820.375671,314
820.494202,318
820.612732,315
820.731384,324
820.849915,322
820.968506,319
821.087097,319
821.205627,311
821.324158,321
821.442749,316
821.561279,325
821.679871,314
821.798401,312
821.916931,323
822.035461,318
822.154053,326
822.272583,327
822.391174,317
822.509583,328
822.628174,327
822.746704,323
822.865234,309
822.983765,314
823.102295,322
823.220825,307
823.339294,320
823.457825,317
823.576355,318
823.694824,323
823.813354,332
823.931885,319
824.050354,319
824.168884,321
824.287354,321
824.405823,318
824.524353,328
824.642822,320
824.761353,319
824.879822,310
824.998291,328
825.116699,309
825.235291,317
825.353699,322
825.472168,314
825.590637,314
825.709106,324
825.827576,315
825.946045,328
826.064453,313
826.182983,318
826.301392,329
826.4198,318
826.53833,313
826.656738,318
826.775208,313
826.893677,325
827.012024,320
827.130493,317
827.248962,316
827.36731,311
827.485779,320
827.604248,320
827.722595,320
827.841064,324
827.959412,312
828.077942,314
828.196289,307
828.314636,325
828.433105,307
828.551514,333
828.669861,324
828.78833,321
828.906677,317
829.025085,314
829.143433,308
829.261841,323
829.38031,311
829.498657,325
829.617004,305
829.735413,318
829.85376,307
829.972107,327
830.090515,318
830.208862,316
830.327209,309
830.445557,317
830.563904,304
830.682312,317
830.800659,325
830.919006,311
831.037354,311
831.155701,333
831.274048,313
831.392395,314
831.51062,324
831.629028,316
831.747314,320
831.865662,306
831.984009,311
832.102356,303
832.220642,316
832.338928,306
832.457275,323
832.575623,318
832.693909,316
832.812134,308
832.930481,328
833.048828,322
833.167114,314
833.2854,323
833.403687,307
833.521973,322
833.640259,320
833.758545,318
833.876831,310
833.995056,325
834.113281,316
834.231628,328
834.349915,314
834.468201,311
834.586426,313
834.704651,322
834.822998,310
834.941162,322
835.059448,312
835.177673,319
835.295959,317
835.414246,326
835.53241,316
835.650635,311
835.768921,322
835.887146,320
836.005371,323
836.123596,328
836.241821,322
836.360046,317
836.478271,323
836.596497,325
836.714722,305
836.832886,322
836.95105,313
837.069336,313
837.1875,314
837.305725,314
837.423889,315
837.542053,330
837.660339,313
837.778503,311
837.896667,324
838.014832,314
838.132996,310
838.25116,337
838.369385,310
838.487488,320
838.605713,312
838.723877,321
838.84198,314
838.960205,328
839.078308,324
839.196472,310
839.314636,317
839.4328,316
839.550964,313
839.669067,319
839.787231,319
839.905396,320
840.023499,314
840.141602,315
840.259766,313
840.377869,322
840.495972,326
840.614136,322
840.732239,306
840.850342,330
840.968445,314
841.086548,324
841.204651,322
841.322754,316
841.440918,311
841.55896,325
841.677002,321
841.795166,326
841.913208,323
842.031311,321
842.149353,327
842.267456,324
842.385498,306
842.503601,320
842.621643,319
842.739746,316
842.857788,305
842.97583,320
843.093933,319
843.211975,310
843.330017,321
843.44812,325
843.566101,317
843.684204,313
843.802246,309
843.920227,332
844.038269,317
844.156311,318
844.274292,310
844.392395,313
844.510376,308
844.628357,317
844.74646,315
844.864441,309
844.982422,308
845.100403,334
845.218384,295
845.336426,327
845.454468,330
845.572449,320
845.69043,298
845.808411,332
845.926453,311
846.044373,305
846.162354,314
846.280396,329
846.398315,304
846.516296,335
846.634216,309
846.752197,320
846.870178,318
846.988098,320
847.106079,308
847.22406,321
847.34198,301
847.4599,315
847.577881,310
847.695801,311
847.813782,316
847.931641,321
848.049561,322
848.167603,311
848.285461,318
848.403381,313
848.521362,318
848.639221,316
848.75708,308
848.875,323
848.99292,319
849.110901,317
849.22876,327
849.34668,314
849.464539,308
849.582458,320
849.700317,318
849.818176,316
849.936096,307
850.053955,311
850.171875,313
850.289673,326
850.407593,307
850.525452,313
850.643311,306
850.761169,324
850.878967,309
850.996887,320
851.114746,311
851.232544,319
851.350403,313
851.468262,313
851.58606,298
851.703979,320
851.821777,310
851.939636,321
852.057434,312
852.175232,326
852.293091,317
852.410889,321
852.528687,298
852.646545,328
852.764343,308
852.88208,326
852.999939,301
853.117676,324
853.235535,322
853.353271,314
853.471069,307
853.588928,310
853.706604,309
853.824402,309
853.9422,310
854.059998,321
854.177734,330
854.295532,319
854.413269,316
854.531006,327
854.648804,309
854.766541,317
854.884277,317
855.002014,314
855.119751,324
855.237549,336
855.355225,319
855.473022,315
855.590698,305
855.708435,320
855.826172,325
855.943848,323
856.061646,298
856.179321,327
856.296997,308
856.414795,308
856.53241,319
856.650085,313
856.767822,319
856.885559,314
857.003174,317
857.120911,316
857.238586,319
857.356201,319
857.473938,326
857.591614,322
857.709351,326
857.826965,318
857.944641,310
858.062317,322
858.179993,315
858.297668,334
858.415283,311
858.532959,325
858.650574,312
858.768188,320
858.885803,318
859.003479,320
859.121094,309
859.23877,321
859.356384,305
859.473999,310
859.591675,320
859.709229,326
859.826843,310
859.944458,331
860.062012,324
860.179626,304
860.297302,322
860.414856,313
860.532471,320
860.650024,313
860.767639,317
860.885193,321
861.002808,309
861.120361,317
861.237976,312
861.35553,319
861.473022,312
861.590698,324
861.708191,318
861.825745,325
861.943298,326
862.060852,320
862.178406,331
862.295959,324
862.413513,315
862.531006,313
862.64856,309
862.766113,321
862.883667,307
863.00116,318
863.118713,328
863.236206,324
863.353699,328
863.471252,315
863.588745,307
863.706177,316
863.82373,316
863.941162,321
864.058716,314
864.176208,321
864.29364,294
864.411194,321
864.528687,307
864.646118,324
864.763611,320
864.881042,317
864.998535,319
865.116028,315
865.233459,311
865.350891,327
865.468384,312
865.585754,324
865.703308,305
865.820679,320
865.938171,323
866.055542,327
866.173035,317
866.290466,318
866.407837,327
866.52533,315
866.6427,311
866.760071,320
866.877563,316
866.994934,315
867.112305,301
867.229736,313
867.347107,320
867.464539,310
867.58197,329
867.699341,326
867.81665,318
867.934082,330
868.051453,313
868.168823,312
868.286194,317
868.403564,313
868.520935,339
868.638306,317
868.755676,320
868.872986,316
868.990295,321
869.107727,326
869.225037,309
869.342346,319
869.459717,324
869.577026,317
869.694336,306
869.811707,320
869.929016,308
870.046326,325
870.163635,301
870.280945,317
870.398254,312
870.515564,310
870.632812,315
870.750183,314
870.867432,320
870.984741,308
871.102051,323
871.219299,329
871.336609,301
871.453918,315
871.571106,309
871.688416,322
871.805664,302
871.922852,318
872.040222,314
872.157471,317
872.274719,313
872.391968,326
872.509155,315
872.626465,330
872.743652,310
872.860962,327
872.978149,309
873.095337,311
873.212646,317
873.329834,318
873.44696,313
873.564209,326
873.681396,311
873.798645,325
873.915894,309
874.03302,328
874.150208,321
874.267456,307
874.384583,323
874.501831,323
874.618958,314
874.736145,324
874.853333,289
874.970459,312
875.087646,330
875.204834,319
875.32196,313
875.439148,320
875.556274,312
875.673401,312
875.790527,324
875.907715,335
876.024841,313
876.141968,321
876.259094,322
876.376282,324
876.493347,314
876.610474,306
876.7276,311
876.844727,323
876.961853,310
877.078918,325
877.195984,319
877.313171,321
877.430237,315
877.547302,326
877.664368,318
877.781433,312
877.898499,316
878.015625,325
878.13269,316
878.249695,332
878.366821,315
878.483887,319
878.600952,324
878.717957,317
878.834961,315
878.952087,318
879.069092,319
879.186157,315
879.303162,304
879.420227,328
879.537231,312
879.654236,320
879.77124,316
879.888306,315
880.005249,320
880.122314,312
880.239319,314
880.356323,325
880.473328,317
880.590271,319
880.707275,314
880.824341,311
880.941284,326
881.058228,328
881.175232,320
881.292236,329
881.40918,318
881.526123,323
881.643066,310
881.760071,310
881.877014,325
881.993958,316
882.11084,307
882.227783,330
882.344727,325
882.46167,315
882.578613,294
882.695618,310
882.812439,313
882.929382,318
883.046326,322
883.163208,320
883.280151,311
883.397034,311
883.513916,308
883.630798,314
883.747742,311
883.864563,323
883.981506,317
884.098389,316
884.21521,307
884.332153,315
884.448975,317
884.565796,314
884.682678,317
884.7995,306
884.916443,316
885.033264,328
885.150085,325
885.266968,325
885.383789,314
885.500671,308
885.617493,310
885.734314,321
885.851196,330
885.967896,318
886.084717,316
886.201599,323
886.318359,313
886.435181,317
886.552002,317
886.668762,321
886.785645,309
886.902344,333
887.019165,315
887.135925,316
887.252747,318
887.369446,312
887.486267,321
887.603027,326
887.719788,307
887.836548,330
887.953247,310
888.070068,316
888.186829,309
888.303528,322
888.420288,328
888.536987,317
888.653687,314
888.770447,327
888.887146,325
889.003967,312
889.120667,303
889.237305,316
889.354065,324
889.470703,327
889.587463,309
889.704163,326
889.820862,314
889.937561,326
890.054199,308
890.170837,318
890.287598,310
890.404236,323
890.520874,327
890.637634,329
890.754211,319
890.87085,334
890.987549,320
891.104187,310
891.220886,313
891.337463,308
891.454102,306
891.57074,319
891.687378,312
891.804077,314
891.920654,317
892.037231,312
892.15387,292
892.270447,326
892.387085,313
892.503723,321
892.6203,317
892.736877,326
892.853516,309
892.970032,320
893.08667,310
893.203186,312
893.319763,324
893.43634,317
893.552917,309
893.669556,321
893.786011,311
893.902588,326
894.019165,309
894.135681,320
894.252197,322
894.368835,314
894.485291,307
894.601868,323
894.718384,315
894.8349,321
894.951355,311
895.067932,326
895.184448,324
895.300964,324
895.417419,324
895.533936,323
895.650452,319
895.766907,320
895.883423,317
895.999878,316
896.116333,325
896.232849,331
896.349304,311
896.465759,312
896.582214,322
896.698669,310
896.815125,322
896.931641,322
897.048035,326
897.164551,327
897.280884,293
897.397339,316
897.513794,326
897.630249,320
897.746582,316
897.863098,320
897.979431,317
898.095886,326
898.212341,320
898.328674,335
898.445129,310
898.561462,328
898.677795,305
898.794312,322
898.910645,307
899.026978,321
899.143433,317
899.259766,310
899.37616,305
899.492493,318
899.608765,316
899.725159,322
899.841553,314
899.957947,326
900.07428,319
900.190552,316
900.306946,308
900.423157,319
900.53949,300
900.655884,320
900.772156,321
900.888489,318
901.004822,330
901.121033,327
901.237366,316
901.353699,319
901.46991,318
901.586304,327
901.702515,313
901.818787,332
901.93512,306
902.051331,322
902.167603,324
902.283875,317
902.400085,334
902.516418,329
902.632629,321
902.74884,311
902.865112,320
902.981384,312
903.097595,328
903.213867,331
903.330017,315
903.446289,319
903.5625,317
903.67865,309
903.794922,321
903.911072,331
904.027344,306
904.143494,317
904.259705,308
904.375916,333
904.492065,320
904.608215,326
904.724426,312
904.840576,315
904.956726,308
905.072876,330
905.189087,324
905.305176,334
905.421387,316
905.537537,330
905.653687,311
905.769775,313
905.885925,317
906.002014,325
906.118164,316
906.234314,310
906.350403,316
906.466492,324
906.582642,317
906.69873,309
906.814758,327
906.930908,326
907.046936,308
907.163086,321
907.279175,324
907.395264,321
907.511353,319
907.62738,319
907.743408,312
907.859497,318
907.975525,326
908.091553,319
908.207703,316
908.32373,326
908.439758,301
908.555786,324
908.671814,306
908.787842,327
908.90387,309
909.019775,317
909.135864,316
909.251892,320
909.367859,320
909.483826,320
909.599854,320
909.715881,318
909.831848,313
909.947815,326
910.063782,313
910.179749,328
910.295776,306
910.411743,317
910.527649,322
910.643616,330
910.759583,324
910.875488,315
910.991455,306
911.107361,318
911.223267,317
911.339294,318
911.4552,320
911.571106,311
911.687073,340
911.802979,324
911.918823,316
912.034729,321
912.150635,315
912.266602,307
912.382446,295
912.498352,317
912.614197,304
912.730103,323
912.846008,323
792.44574,319
792.56488,342
792.68396,399
792.80304,391
792.92218,341
793.041199,325
793.160339,332
793.279419,346
793.398499,309
793.517578,327
793.636658,314
793.755737,336
793.874817,351
793.993896,341
794.112976,323
794.232056,314
794.351074,340
794.470215,327
794.589233,349
794.708313,327
794.827393,330
794.946411,338
795.065552,334
795.18457,336
795.303589,320
795.422668,324
795.541687,323
795.660767,330
795.779846,325
795.898865,333
796.017883,333
796.136963,334
796.255981,342
796.375061,326
796.49408,332
796.613037,330
796.732117,322
796.851135,329
796.970154,328
797.089233,334
797.208191,314
797.327271,333
797.446228,332
797.565186,316
797.684265,326
797.803223,326
797.922241,334
798.04126,316
798.160278,323
798.279297,324
798.398315,333
798.517273,334
798.636292,325
798.75531,330
798.874268,327
798.993286,345
799.112244,325
799.231323,324
799.350281,324
799.469238,317
799.588257,330
799.707153,342
799.826111,340
799.945129,327
800.064087,333
800.183044,335
800.302063,340
800.421021,338
800.539978,317
800.658936,332
800.777893,324
800.896912,338
801.015747,333
801.134705,329
801.253723,338
801.37262,323
801.491638,342
801.610535,333
801.729492,322
801.84845,337
801.967407,315
802.086243,331
802.205261,336
802.324158,335
802.443115,337
802.562073,315
802.680969,323
802.799927,331
802.918762,330
803.037659,322
803.156677,336
803.275574,338
803.39447,325
803.513428,331
803.632263,333
803.751221,351
803.870117,329
803.989014,331
804.107971,320
804.226746,335
804.345642,305
804.4646,337
804.583496,331
804.702393,334
804.821228,326
804.940125,333
805.059021,330
805.177917,328
805.296814,315
805.415649,341
805.534546,328
805.653442,328
805.772278,352
805.891113,319
806.01001,337
806.128906,333
806.247742,333
806.366577,329
806.485413,329
806.604309,324
806.723145,338
806.84198,342
806.960876,344
807.079712,341
807.198486,337
807.317383,327
807.436218,330
807.554993,322
807.673889,323
807.792725,336
807.91156,324
808.030396,336
808.14917,325
808.268005,334
808.386841,345
808.505676,338
808.624451,327
808.743286,336
808.862122,335
808.980896,345
809.099731,332
809.218506,338
809.337341,327
809.456116,333
809.57489,320
809.693726,330
809.8125,330
809.931274,334
810.050049,329
810.168884,327
810.287659,322
810.406372,324
810.525269,342
810.643982,329
810.762756,341
810.881531,323
811.000305,332
811.11908,335
811.237854,325
811.356567,325
811.475403,332
811.594116,341
811.71283,340
811.831604,327
811.950378,338
812.069153,330
812.187927,335
812.30658,341
812.425415,319
812.544128,335
812.662781,323
812.781616,336
812.900269,318
813.019043,343
813.137756,321
813.256531,357
813.375244,323
813.493896,332
813.612671,326
813.731384,350
813.850037,327
813.96875,337
814.087524,333
814.206238,349
814.324951,329
814.443604,332
814.562256,341
814.68103,338
814.799683,325
814.918335,333
815.037109,332
815.155762,336
815.274475,319
815.393188,328
815.511841,330
815.630554,324
815.749146,332
815.867859,324
815.986572,323
816.105164,335
816.223877,330
816.342529,327
816.461182,330
816.579895,337
816.698486,343
816.817139,336
816.935791,334
817.054504,338
817.173096,330
817.291748,342
817.4104,324
817.529053,324
817.647644,329
817.766235,335
817.884949,328
818.00354,321
818.122192,340
818.240845,334
818.359436,313
818.478088,331
818.59668,319
818.715271,333
818.833923,306
818.952515,319
819.071106,326
819.189758,319
819.30835,327
819.426941,330
819.545532,322
819.664124,325
819.782715,331
819.901306,327
820.019897,315
820.138489,322
820.25708,307
820.375671,320
820.494202,318
820.612732,320
820.731384,318
820.849915,324
820.968506,331
821.087097,310
821.205627,320
821.324158,324
821.442749,315
821.561279,320
821.679871,321
821.798401,316
821.916931,320
822.035461,308
822.154053,328
822.272583,334
822.391174,318
822.509583,317
822.628174,343
822.746704,320
822.865234,296
822.983765,317
823.102295,321
823.220825,332
823.339294,319
823.457825,329
823.576355,311
823.694824,326
823.813354,330
823.931885,336
824.050354,319
824.168884,328
824.287354,316
824.405823,313
824.524353,312
824.642822,305
824.761353,311
824.879822,317
824.998291,324
825.116699,319
825.235291,327
825.353699,323
825.472168,320
825.590637,322
825.709106,324
825.827576,311
825.946045,323
826.064453,314
826.182983,329
826.301392,301
826.4198,328
826.53833,324
826.656738,320
826.775208,313
826.893677,322
827.012024,327
827.130493,314
827.248962,314
827.36731,322
827.485779,325
827.604248,329
827.722595,314
827.841064,318
827.959412,319
828.077942,309
828.196289,311
828.314636,316
828.433105,316
828.551514,310
828.669861,328
828.78833,335
828.906677,322
829.025085,310
829.143433,323
829.261841,323
829.38031,324
829.498657,318
829.617004,326
829.735413,304
829.85376,332
829.972107,310
830.090515,328
830.208862,314
830.327209,319
830.445557,331
830.563904,327
830.682312,309
830.800659,318
830.919006,323
831.037354,327
831.155701,299
831.274048,326
831.392395,317
831.51062,328
831.629028,311
831.747314,318
831.865662,301
831.984009,317
832.102356,316
832.220642,314
832.338928,316
832.457275,309
832.575623,308
832.693909,320
832.812134,320
832.930481,313
833.048828,319
833.167114,323
833.2854,307
833.403687,318
833.521973,313
833.640259,321
833.758545,314
833.876831,329
833.995056,316
834.113281,325
834.231628,319
834.349915,311
834.468201,320
834.586426,320
834.704651,320
834.822998,316
834.941162,314
835.059448,327
835.177673,316
835.295959,327
835.414246,330
835.53241,320
835.650635,334
835.768921,312
835.887146,321
836.005371,329
836.123596,313
836.241821,312
836.360046,303
836.478271,308
836.596497,311
836.714722,320
836.832886,320
836.95105,310
837.069336,328
837.1875,326
837.305725,304
837.423889,328
837.542053,329
837.660339,328
837.778503,307
837.896667,313
838.014832,321
838.132996,320
838.25116,322
838.369385,319
838.487488,319
838.605713,314
838.723877,318
838.84198,319
838.960205,308
839.078308,316
839.196472,309
839.314636,327
839.4328,320
839.550964,309
839.669067,307
839.787231,314
839.905396,320
840.023499,310
840.141602,323
840.259766,312
840.377869,315
840.495972,329
840.614136,313
840.732239,340
840.850342,312
840.968445,309
841.086548,330
841.204651,303
841.322754,333
841.440918,345
841.55896,322
841.677002,318
841.795166,317
841.913208,318
842.031311,302
842.149353,320
842.267456,319
842.385498,320
842.503601,314
842.621643,329
842.739746,324
842.857788,321
842.97583,322
843.093933,325
843.211975,319
843.330017,306
843.44812,309
843.566101,322
843.684204,322
843.802246,312
843.920227,320
844.038269,315
844.156311,315
844.274292,311
844.392395,316
844.510376,320
844.628357,309
844.74646,314
844.864441,308
844.982422,305
845.100403,310
845.218384,315
845.336426,321
845.454468,320
845.572449,308
845.69043,325
845.808411,321
845.926453,318
846.044373,311
846.162354,310
846.280396,324
846.398315,313
846.516296,316
846.634216,310
846.752197,315
846.870178,323
846.988098,313
847.106079,319
847.22406,324
847.34198,327
847.4599,321
847.577881,326
847.695801,318
847.813782,319
847.931641,309
848.049561,319
848.167603,319
848.285461,311
848.403381,319
848.521362,307
848.639221,316
848.75708,320
848.875,324
848.99292,318
849.110901,313
849.22876,319
849.34668,306
849.464539,318
849.582458,314
849.700317,321
849.818176,308
849.936096,329
850.053955,323
850.171875,313
850.289673,319
850.407593,305
850.525452,312
850.643311,321
850.761169,318
850.878967,310
850.996887,324
851.114746,333
851.232544,317
851.350403,324
851.468262,318
851.58606,316
851.703979,316
851.821777,331
851.939636,304
852.057434,308
852.175232,318
852.293091,315
852.410889,314
852.528687,332
852.646545,318
852.764343,307
852.88208,306
852.999939,331
853.117676,320
853.235535,293
853.353271,315
853.471069,313
853.588928,326
853.706604,317
853.824402,316
853.9422,331
854.059998,299
854.177734,323
854.295532,310
854.413269,300
854.531006,301
854.648804,318
854.766541,306
854.884277,307
855.002014,322
855.119751,325
855.237549,322
855.355225,332
855.473022,309
855.590698,311
855.708435,306
855.826172,312
855.943848,321
856.061646,306
856.179321,307
856.296997,317
856.414795,304
856.53241,317
856.650085,310
856.767822,306
856.885559,323
857.003174,310
857.120911,319
857.238586,317
857.356201,314
857.473938,313
857.591614,314
857.709351,311
857.826965,313
857.944641,313
858.062317,306
858.179993,323
858.297668,309
858.415283,321
858.532959,304
858.650574,324
858.768188,319
858.885803,327
859.003479,311
859.121094,324
859.23877,325
859.356384,308
859.473999,309
859.591675,321
859.709229,315
859.826843,322
859.944458,326
860.062012,313
860.179626,317
860.297302,309
860.414856,313
860.532471,323
860.650024,311
860.767639,325
860.885193,313
861.002808,307
861.120361,316
861.237976,328
861.35553,317
861.473022,314
861.590698,316
861.708191,322
861.825745,318
861.943298,317
862.060852,312
862.178406,335
862.295959,301
862.413513,318
862.531006,302
862.64856,309
862.766113,331
862.883667,313
863.00116,322
863.118713,321
863.236206,324
863.353699,311
863.471252,325
863.588745,331
863.706177,312
863.82373,321
863.941162,332
864.058716,315
864.176208,318
864.29364,315
864.411194,317
864.528687,311
864.646118,314
864.763611,317
864.881042,304
864.998535,329
865.116028,306
865.233459,324
865.350891,319
865.468384,318
865.585754,324
865.703308,321
865.820679,304
865.938171,319
866.055542,314
866.173035,331
866.290466,312
866.407837,320
866.52533,314
866.6427,315
866.760071,320
866.877563,317
866.994934,310
867.112305,318
867.229736,308
867.347107,307
867.464539,310
867.58197,317
867.699341,314
867.81665,311
867.934082,318
868.051453,318
868.168823,315
868.286194,320
868.403564,305
868.520935,328
868.638306,306
868.755676,321
868.872986,312
868.990295,307
869.107727,304
869.225037,320
869.342346,304
869.459717,323
869.577026,308
869.694336,307
869.811707,320
869.929016,307
870.046326,319
870.163635,331
870.280945,315
870.398254,316
870.515564,315
870.632812,316
870.750183,303
870.867432,324
870.984741,330
871.102051,320
871.219299,319
871.336609,305
871.453918,317
871.571106,315
871.688416,331
871.805664,324
871.922852,310
872.040222,319
872.157471,325
872.274719,327
872.391968,321
872.509155,313
872.626465,310
872.743652,308
872.860962,317
872.978149,307
873.095337,322
873.212646,316
873.329834,313
873.44696,321
873.564209,326
873.681396,336
873.798645,318
873.915894,317
874.03302,318
874.150208,329
874.267456,311
874.384583,312
874.501831,316
874.618958,321
874.736145,319
874.853333,318
874.970459,312
875.087646,311
875.204834,317
875.32196,315
875.439148,310
875.556274,319
875.673401,325
875.790527,314
875.907715,314
876.024841,312
876.141968,310
876.259094,311
876.376282,322
876.493347,324
876.610474,328
876.7276,310
876.844727,317
876.961853,323
877.078918,308
877.195984,320
877.313171,310
877.430237,331
877.547302,311
877.664368,301
877.781433,311
877.898499,326
878.015625,316
878.13269,325
878.249695,320
878.366821,325
878.483887,312
878.600952,325
878.717957,320
878.834961,327
878.952087,323
879.069092,328
879.186157,310
879.303162,329
879.420227,316
879.537231,333
879.654236,307
879.77124,320
879.888306,327
880.005249,320
880.122314,308
880.239319,318
880.356323,323
880.473328,321
880.590271,308
880.707275,318
880.824341,312
880.941284,325
881.058228,326
881.175232,319
881.292236,317
881.40918,322
881.526123,304
881.643066,305
881.760071,315
881.877014,314
881.993958,324
882.11084,324
882.227783,314
882.344727,312
882.46167,328
882.578613,325
882.695618,311
882.812439,325
882.929382,322
883.046326,320
883.163208,307
883.280151,331
883.397034,319
883.513916,325
883.630798,320
883.747742,313
883.864563,302
883.981506,303
884.098389,316
884.21521,344
884.332153,302
884.448975,327
884.565796,308
884.682678,316
884.7995,315
884.916443,321
885.033264,324
885.150085,321
885.266968,329
885.383789,318
885.500671,313
885.617493,326
885.734314,320
885.851196,326
885.967896,316
886.084717,321
886.201599,326
886.318359,319
886.435181,317
886.552002,317
886.668762,318
886.785645,318
886.902344,317
887.019165,328
887.135925,323
887.252747,327
887.369446,309
887.486267,310
887.603027,315
887.719788,323
887.836548,311
887.953247,315
888.070068,313
888.186829,317
888.303528,309
888.420288,317
888.536987,310
888.653687,314
888.770447,317
888.887146,314
889.003967,311
889.120667,326
889.237305,307
889.354065,322
889.470703,314
889.587463,325
889.704163,321
889.820862,317
889.937561,315
890.054199,323
890.170837,325
890.287598,336
890.404236,303
890.520874,327
890.637634,306
890.754211,301
890.87085,316
890.987549,323
891.104187,308
891.220886,294
891.337463,322
891.454102,325
891.57074,309
891.687378,317
891.804077,324
891.920654,317
892.037231,321
892.15387,324
892.270447,314
892.387085,317
892.503723,316
892.6203,322
892.736877,318
892.853516,315
892.970032,324
893.08667,319
893.203186,316
893.319763,319
893.43634,324
893.552917,319
893.669556,311
893.786011,320
893.902588,316
894.019165,321
894.135681,309
894.252197,315
894.368835,317
894.485291,313
894.601868,323
894.718384,314
894.8349,306
894.951355,314
895.067932,317
895.184448,319
895.300964,323
895.417419,329
895.533936,324
895.650452,308
895.766907,319
895.883423,312
895.999878,329
896.116333,320
896.232849,299
896.349304,336
896.465759,310
896.582214,325
896.698669,297
896.815125,332
896.931641,326
897.048035,328
897.164551,305
897.280884,328
897.397339,322
897.513794,324
897.630249,321
897.746582,326
897.863098,316
897.979431,335
898.095886,317
898.212341,333
898.328674,309
898.445129,323
898.561462,312
898.677795,316
898.794312,327
898.910645,325
899.026978,325
899.143433,318
899.259766,314
899.37616,340
899.492493,314
899.608765,316
899.725159,304
899.841553,314
899.957947,313
900.07428,320
900.190552,314
900.306946,316
900.423157,317
900.53949,320
900.655884,322
900.772156,326
900.888489,315
901.004822,325
901.121033,317
901.237366,321
901.353699,331
901.46991,323
901.586304,322
901.702515,325
901.818787,319
901.93512,321
902.051331,316
902.167603,317
902.283875,310
902.400085,311
902.516418,327
902.632629,318
902.74884,309
902.865112,326
902.981384,322
903.097595,330
903.213867,307
903.330017,320
903.446289,314
903.5625,323
903.67865,312
903.794922,318
903.911072,304
904.027344,331
904.143494,320
904.259705,308
904.375916,310
904.492065,321
904.608215,326
904.724426,325
904.840576,328
904.956726,312
905.072876,320
905.189087,320
905.305176,318
905.421387,313
905.537537,322
905.653687,309
905.769775,313
905.885925,320
906.002014,319
906.118164,309
906.234314,328
906.350403,330
906.466492,302
906.582642,316
906.69873,314
906.814758,323
906.930908,309
907.046936,319
907.163086,320
907.279175,311
907.395264,325
907.511353,325
907.62738,316
907.743408,322
907.859497,311
907.975525,327
908.091553,322
908.207703,317
908.32373,333
908.439758,307
908.555786,316
908.671814,330
908.787842,319
908.90387,319
909.019775,316
909.135864,328
909.251892,316
909.367859,321
909.483826,316
909.599854,314
909.715881,312
909.831848,320
909.947815,325
910.063782,308
910.179749,313
910.295776,325
910.411743,316
910.527649,313
910.643616,332
910.759583,328
910.875488,327
910.991455,330
911.107361,312
911.223267,309
911.339294,315
911.4552,325
911.571106,314
911.687073,324
911.802979,323
911.918823,324
912.034729,316
912.150635,319
912.266602,310
912.382446,315
912.498352,314
912.614197,318
912.730103,316
912.846008,319
792.44574,308
792.56488,354
792.68396,399
792.80304,382
792.92218,331
793.041199,317
793.160339,322
793.279419,345
793.398499,338
793.517578,327
793.636658,316
793.755737,329
793.874817,358
793.993896,352
794.112976,336
794.232056,313
794.351074,338
794.470215,333
794.589233,333
794.708313,331
794.827393,341
794.946411,344
795.065552,336
795.18457,351
795.303589,325
795.422668,329
795.541687,336
795.660767,332
795.779846,325
795.898865,333
796.017883,340
796.136963,325
796.255981,350
796.375061,336
796.49408,332
796.613037,322
796.732117,333
796.851135,326
796.970154,330
797.089233,315
797.208191,329
797.327271,327
797.446228,330
797.565186,317
797.684265,333
797.803223,311
797.922241,333
798.04126,325
798.160278,335
798.279297,337
798.398315,334
798.517273,325
798.636292,335
798.75531,338
798.874268,333
798.993286,332
799.112244,318
799.231323,335
799.350281,314
799.469238,338
799.588257,325
799.707153,328
799.826111,338
799.945129,343
800.064087,324
800.183044,333
800.302063,329
800.421021,331
800.539978,338
800.658936,327
800.777893,337
800.896912,317
801.015747,343
801.134705,326
801.253723,329
801.37262,338
801.491638,334
801.610535,327
801.729492,331
801.84845,347
801.967407,321
802.086243,349
802.205261,327
802.324158,340
802.443115,324
802.562073,334
802.680969,345
802.799927,324
802.918762,347
803.037659,337
803.156677,322
803.275574,322
803.39447,329
803.513428,329
803.632263,334
803.751221,324
803.870117,324
803.989014,324
804.107971,335
804.226746,333
804.345642,327
804.4646,321
804.583496,323
804.702393,338
804.821228,343
804.940125,327
805.059021,335
805.177917,335
805.296814,328
805.415649,336
805.534546,328
805.653442,325
805.772278,326
805.891113,343
806.01001,330
806.128906,343
806.247742,329
806.366577,356
806.485413,322
806.604309,326
806.723145,334
806.84198,329
806.960876,339
807.079712,330
807.198486,347
807.317383,333
807.436218,329
807.554993,331
807.673889,333
807.792725,335
807.91156,332
808.030396,333
808.14917,329
808.268005,346
808.386841,326
808.505676,323
808.624451,343
808.743286,335
808.862122,330
808.980896,351
809.099731,327
809.218506,338
809.337341,327
809.456116,331
809.57489,337
809.693726,331
809.8125,340
809.931274,332
810.050049,336
810.168884,343
810.287659,329
810.406372,326
810.525269,345
810.643982,332
810.762756,331
810.881531,320
811.000305,333
811.11908,330
811.237854,343
811.356567,335
811.475403,334
811.594116,332
811.71283,332
811.831604,339
811.950378,338
812.069153,341
812.187927,329
812.30658,325
812.425415,323
812.544128,331
812.662781,334
812.781616,333
812.900269,334
813.019043,329
813.137756,350
813.256531,330
813.375244,349
813.493896,340
813.612671,346
813.731384,340
813.850037,335
813.96875,336
814.087524,335
814.206238,340
814.324951,324
814.443604,328
814.562256,329
814.68103,336
814.799683,340
814.918335,336
815.037109,339
815.155762,318
815.274475,338
815.393188,344
815.511841,337
815.630554,339
815.749146,348
815.867859,324
815.986572,335
816.105164,335
816.223877,329
816.342529,343
816.461182,338
816.579895,327
816.698486,337
816.817139,327
816.935791,320
817.054504,318
817.173096,355
817.291748,341
817.4104,336
817.529053,339
817.647644,320
817.766235,322
817.884949,319
818.00354,326
818.122192,326
818.240845,337
818.359436,323
818.478088,327
818.59668,319
818.715271,317
818.833923,328
818.952515,320
819.071106,331
819.189758,325
819.30835,337
819.426941,315
819.545532,336
819.664124,320
819.782715,321
819.901306,328
820.019897,333
820.138489,315
820.25708,327
820.375671,314
820.494202,325
820.612732,329
820.731384,327
820.849915,325
820.968506,309
821.087097,313
821.205627,317
821.324158,338
821.442749,312
821.561279,330
821.679871,317
821.798401,323
821.916931,316
822.035461,322
822.154053,326
822.272583,324
822.391174,330
822.509583,325
822.628174,324
822.746704,311
822.865234,319
822.983765,319
823.102295,322
823.220825,322
823.339294,313
823.457825,319
823.576355,322
823.694824,330
823.813354,325
823.931885,317
824.050354,322
824.168884,326
824.287354,307
824.405823,333
824.524353,319
824.642822,318
824.761353,324
824.879822,324
824.998291,309
825.116699,319
825.235291,314
825.353699,320
825.472168,321
825.590637,316
825.709106,325
825.827576,310
825.946045,320
826.064453,325
826.182983,314
826.301392,313
826.4198,312
826.53833,307
826.656738,325
826.775208,311
826.893677,308
827.012024,321
827.130493,328
827.248962,317
827.36731,321
827.485779,306
827.604248,310
827.722595,316
827.841064,304
827.959412,328
828.077942,310
828.196289,312
828.314636,327
828.433105,326
828.551514,334
828.669861,309
828.78833,317
828.906677,318
829.025085,322
829.143433,330
829.261841,317
829.38031,305
829.498657,324
829.617004,325
829.735413,334
829.85376,310
829.972107,321
830.090515,315
830.208862,327
830.327209,309
830.445557,316
830.563904,312
830.682312,309
830.800659,318
830.919006,301
831.037354,321
831.155701,321
831.274048,311
831.392395,321
831.51062,320
831.629028,311
831.747314,320
831.865662,313
831.984009,323
832.102356,306
832.220642,316
832.338928,304
832.457275,317
832.575623,305
832.693909,309
832.812134,306
832.930481,320
833.048828,320
833.167114,315
833.2854,319
833.403687,321
833.521973,317
833.640259,323
833.758545,311
833.876831,315
833.995056,309
834.113281,331
834.231628,312
834.349915,313
834.468201,312
834.586426,328
834.704651,316
834.822998,321
834.941162,323
835.059448,327
835.177673,314
835.295959,316
835.414246,320
835.53241,325
835.650635,321
835.768921,315
835.887146,320
836.005371,323
836.123596,312
836.241821,305
836.360046,323
836.478271,319
836.596497,317
836.714722,324
836.832886,319
836.95105,315
837.069336,310
837.1875,321
837.305725,329
837.423889,322
837.542053,314
837.660339,333
837.778503,309
837.896667,329
838.014832,318
838.132996,330
838.25116,323
838.369385,323
838.487488,323
838.605713,314
838.723877,308
838.84198,324
838.960205,328
839.078308,320
839.196472,323
839.314636,324
839.4328,311
839.550964,324
839.669067,318
839.787231,322
839.905396,304
840.023499,312
840.141602,309
840.259766,313
840.377869,323
840.495972,311
840.614136,316
840.732239,324
840.850342,319
840.968445,331
841.086548,311
841.204651,314
841.322754,317
841.440918,322
841.55896,319
841.677002,330
841.795166,314
841.913208,321
842.031311,326
842.149353,325
842.267456,315
842.385498,315
842.503601,308
842.621643,330
842.739746,302
842.857788,318
842.97583,314
843.093933,318
843.211975,322
843.330017,318
843.44812,321
843.566101,315
843.684204,313
843.802246,310
843.920227,312
844.038269,319
844.156311,315
844.274292,311
844.392395,325
844.510376,312
844.628357,318
844.74646,325
844.864441,313
844.982422,329
845.100403,325
845.218384,311
845.336426,306
845.454468,317
845.572449,326
845.69043,315
845.808411,313
845.926453,333
846.044373,310
846.162354,314
846.280396,314
846.398315,320
846.516296,308
846.634216,322
846.752197,318
846.870178,327
846.988098,315
847.106079,306
847.22406,311
847.34198,318
847.4599,319
847.577881,303
847.695801,324
847.813782,328
847.931641,310
848.049561,318
848.167603,317
848.285461,316
848.403381,309
848.521362,321
848.639221,328
848.75708,306
848.875,322
848.99292,314
849.110901,324
849.22876,317
849.34668,305
849.464539,313
849.582458,318
849.700317,322
849.818176,323
849.936096,313
850.053955,306
850.171875,317
850.289673,329
850.407593,317
850.525452,317
850.643311,316
850.761169,318
850.878967,335
850.996887,296
851.114746,321
851.232544,319
851.350403,323
851.468262,320
851.58606,336
851.703979,307
851.821777,329
851.939636,304
852.057434,308
852.175232,317
852.293091,324
852.410889,311
852.528687,315
852.646545,312
852.764343,318
852.88208,316
852.999939,321
853.117676,317
853.235535,309
853.353271,321
853.471069,315
853.588928,309
853.706604,311
853.824402,316
853.9422,325
854.059998,310
854.177734,313
854.295532,325
854.413269,316
854.531006,310
854.648804,310
854.766541,330
854.884277,321
855.002014,326
855.119751,324
855.237549,322
855.355225,314
855.473022,327
855.590698,316
855.708435,305
855.826172,311
855.943848,312
856.061646,308
856.179321,331
856.296997,320
856.414795,320
856.53241,325
856.650085,315
856.767822,314
856.885559,316
857.003174,315
857.120911,331
857.238586,310
857.356201,329
857.473938,324
857.591614,315
857.709351,325
857.826965,316
857.944641,324
858.062317,311
858.179993,317
858.297668,325
858.415283,316
858.532959,311
858.650574,328
858.768188,315
858.885803,316
859.003479,310
859.121094,330
859.23877,306
859.356384,314
859.473999,312
859.591675,317
859.709229,306
859.826843,323
859.944458,320
860.062012,325
860.179626,323
860.297302,331
860.414856,324
860.532471,315
860.650024,310
860.767639,320
860.885193,313
861.002808,318
861.120361,319
861.237976,318
861.35553,318
861.473022,325
861.590698,321
861.708191,308
861.825745,336
861.943298,312
862.060852,316
862.178406,308
862.295959,321
862.413513,309
862.531006,324
862.64856,310
862.766113,314
862.883667,324
863.00116,312
863.118713,319
863.236206,326
863.353699,323
863.471252,311
863.588745,324
863.706177,317
863.82373,326
863.941162,313
864.058716,317
864.176208,307
864.29364,322
864.411194,334
864.528687,313
864.646118,311
864.763611,319
864.881042,320
864.998535,320
865.116028,307
865.233459,314
865.350891,327
865.468384,315
865.585754,319
865.703308,313
865.820679,312
865.938171,334
866.055542,306
866.173035,329
866.290466,337
866.407837,316
866.52533,318
866.6427,329
866.760071,332
866.877563,307
866.994934,318
867.112305,310
867.229736,311
867.347107,328
867.464539,317
867.58197,317
867.699341,312
867.81665,299
867.934082,318
868.051453,325
868.168823,309
868.286194,332
868.403564,321
868.520935,321
868.638306,318
868.755676,319
868.872986,311
868.990295,321
869.107727,326
869.225037,327
869.342346,301
869.459717,325
869.577026,315
869.694336,313
869.811707,328
869.929016,311
870.046326,308
870.163635,320
870.280945,319
870.398254,308
870.515564,301
870.632812,324
870.750183,310
870.867432,323
870.984741,316
871.102051,316
871.219299,319
871.336609,322
871.453918,328
871.571106,316
871.688416,322
871.805664,318
871.922852,310
872.040222,323
872.157471,323
872.274719,318
872.391968,326
872.509155,317
872.626465,326
872.743652,325
872.860962,315
872.978149,319
873.095337,327
873.212646,319
873.329834,312
873.44696,319
873.564209,321
873.681396,308
873.798645,316
873.915894,326
874.03302,305
874.150208,306
874.267456,322
874.384583,311
874.501831,329
874.618958,321
874.736145,323
874.853333,319
874.970459,315
875.087646,325
875.204834,308
875.32196,322
875.439148,310
875.556274,310
875.673401,306
875.790527,318
875.907715,329
876.024841,326
876.141968,315
876.259094,317
876.376282,311
876.493347,326
876.610474,312
876.7276,319
876.844727,326
876.961853,320
877.078918,324
877.195984,314
877.313171,321
877.430237,327
877.547302,324
877.664368,322
877.781433,319
877.898499,322
878.015625,338
878.13269,333
878.249695,308
878.366821,325
878.483887,307
878.600952,316
878.717957,319
878.834961,323
878.952087,318
879.069092,323
879.186157,320
879.303162,320
879.420227,328
879.537231,320
879.654236,315
879.77124,317
879.888306,319
880.005249,333
880.122314,322
880.239319,323
880.356323,321
880.473328,318
880.590271,331
880.707275,325
880.824341,309
880.941284,334
881.058228,316
881.175232,312
881.292236,311
881.40918,321
881.526123,314
881.643066,316
881.760071,316
881.877014,339
881.993958,317
882.11084,311
882.227783,305
882.344727,321
882.46167,325
882.578613,330
882.695618,328
882.812439,315
882.929382,331
883.046326,326
883.163208,316
883.280151,310
883.397034,304
883.513916,322
883.630798,313
883.747742,330
883.864563,326
883.981506,318
884.098389,317
884.21521,316
884.332153,328
884.448975,323
884.565796,316
884.682678,329
884.7995,321
884.916443,318
885.033264,327
885.150085,332
885.266968,302
885.383789,325
885.500671,326
885.617493,327
885.734314,320
885.851196,332
885.967896,326
886.084717,303
886.201599,321
886.318359,316
886.435181,336
886.552002,318
886.668762,319
886.785645,324
886.902344,316
887.019165,317
887.135925,308
887.252747,323
887.369446,313
887.486267,310
887.603027,318
887.719788,322
887.836548,318
887.953247,311
888.070068,315
888.186829,332
888.303528,312
888.420288,317
888.536987,310
888.653687,321
888.770447,319
888.887146,318
889.003967,318
889.120667,322
889.237305,319
889.354065,320
889.470703,316
889.587463,323
889.704163,313
889.820862,326
889.937561,315
890.054199,326
890.170837,321
890.287598,313
890.404236,321
890.520874,324
890.637634,312
890.754211,322
890.87085,323
890.987549,312
891.104187,328
891.220886,320
891.337463,322
891.454102,322
891.57074,316
891.687378,329
891.804077,302
891.920654,310
892.037231,319
892.15387,315
892.270447,336
892.387085,325
892.503723,307
892.6203,313
892.736877,313
892.853516,334
892.970032,332
893.08667,318
893.203186,321
893.319763,319
893.43634,323
893.552917,316
893.669556,314
893.786011,320
893.902588,310
894.019165,316
894.135681,318
894.252197,317
894.368835,324
894.485291,306
894.601868,302
894.718384,315
894.8349,325
894.951355,326
895.067932,311
895.184448,315
895.300964,322
895.417419,320
895.533936,334
895.650452,310
895.766907,330
895.883423,331
895.999878,323
896.116333,328
896.232849,307
896.349304,327
896.465759,331
896.582214,322
896.698669,320
896.815125,321
896.931641,327
897.048035,323
897.164551,317
897.280884,324
897.397339,317
897.513794,321
897.630249,315
897.746582,317
897.863098,311
897.979431,329
898.095886,326
898.212341,321
898.328674,323
898.445129,316
898.561462,308
898.677795,315
898.794312,319
898.910645,327
899.026978,318
899.143433,316
899.259766,322
899.37616,308
899.492493,320
899.608765,303
899.725159,316
899.841553,319
899.957947,326
900.07428,311
900.190552,325
900.306946,319
900.423157,316
900.53949,307
900.655884,328
900.772156,321
900.888489,308
901.004822,303
901.121033,314
901.237366,324
901.353699,319
901.46991,314
901.586304,338
901.702515,317
901.818787,314
901.93512,319
902.051331,321
902.167603,319
902.283875,309
902.400085,327
902.516418,316
902.632629,313
902.74884,327
902.865112,317
902.981384,315
903.097595,329
903.213867,301
903.330017,313
903.446289,322
903.5625,317
903.67865,325
903.794922,310
903.911072,325
904.027344,326
904.143494,322
904.259705,324
904.375916,307
904.492065,332
904.608215,319
904.724426,328
904.840576,317
904.956726,315
905.072876,316
905.189087,310
905.305176,329
905.421387,324
905.537537,324
905.653687,313
905.769775,327
905.885925,319
906.002014,317
906.118164,324
906.234314,325
906.350403,327
906.466492,324
906.582642,318
906.69873,325
906.814758,330
906.930908,326
907.046936,329
907.163086,322
907.279175,322
907.395264,328
907.511353,316
907.62738,319
907.743408,336
907.859497,317
907.975525,329
908.091553,310
908.207703,325
908.32373,320
908.439758,319
908.555786,314
908.671814,315
908.787842,318
908.90387,328
909.019775,323
909.135864,322
909.251892,316
909.367859,335
909.483826,333
909.599854,325
909.715881,318
909.831848,310
909.947815,332
910.063782,316
910.179749,316
910.295776,312
910.411743,322
910.527649,322
910.643616,314
910.759583,320
910.875488,326
910.991455,315
911.107361,314
911.223267,324
911.339294,306
911.4552,317
911.571106,303
911.687073,324
911.802979,307
911.918823,326
912.034729,313
912.150635,304
912.266602,320
912.382446,310
912.498352,312
912.614197,343
912.730103,324
912.846008,324
