792.44574,319
792.56488,352
792.68396,392
792.80304,365
792.92218,336
793.041199,315
793.160339,325
793.279419,361
793.398499,327
793.517578,316
793.636658,322
793.755737,342
793.874817,366
793.993896,341
794.112976,330
794.232056,319
794.351074,332
794.470215,338
794.589233,328
794.708313,321
794.827393,320
794.946411,335
795.065552,335
795.18457,339
795.303589,322
795.422668,339
795.541687,316
795.660767,331
795.779846,324
795.898865,340
796.017883,320
796.136963,328
796.255981,344
796.375061,320
796.49408,321
796.613037,337
796.732117,326
796.851135,340
796.970154,340
797.089233,335
797.208191,331
797.327271,331
797.446228,329
797.565186,337
797.684265,340
797.803223,338
797.922241,335
798.04126,323
798.160278,330
798.279297,330
798.398315,328
798.517273,348
798.636292,341
798.75531,300
798.874268,334
798.993286,311
799.112244,338
799.231323,334
799.350281,308
799.469238,338
799.588257,331
799.707153,323
799.826111,328
799.945129,332
800.064087,333
800.183044,321
800.302063,321
800.421021,343
800.539978,331
800.658936,322
800.777893,328
800.896912,324
801.015747,340
801.134705,328
801.253723,340
801.37262,330
801.491638,334
801.610535,328
801.729492,325
801.84845,322
801.967407,338
802.086243,316
802.205261,336
802.324158,318
802.443115,318
802.562073,329
802.680969,333
802.799927,324
802.918762,316
803.037659,322
803.156677,330
803.275574,327
803.39447,334
803.513428,327
803.632263,330
803.751221,333
803.870117,338
803.989014,321
804.107971,325
804.226746,336
804.345642,335
804.4646,332
804.583496,329
804.702393,326
804.821228,326
804.940125,320
805.059021,335
805.177917,335
805.296814,329
805.415649,342
805.534546,330
805.653442,324
805.772278,321
805.891113,318
806.01001,337
806.128906,327
806.247742,327
806.366577,324
806.485413,331
806.604309,329
806.723145,329
806.84198,323
806.960876,343
807.079712,319
807.198486,335
807.317383,315
807.436218,327
807.554993,329
807.673889,347
807.792725,330
807.91156,333
808.030396,329
808.14917,335
808.268005,320
808.386841,343
808.505676,320
808.624451,327
808.743286,341
808.862122,326
808.980896,325
809.099731,331
809.218506,327
809.337341,327
809.456116,333
809.57489,335
809.693726,337
809.8125,333
809.931274,349
810.050049,335
810.168884,328
810.287659,340
810.406372,344
810.525269,329
810.643982,335
810.762756,330
810.881531,321
811.000305,332
811.11908,333
811.237854,336
811.356567,323
811.475403,348
811.594116,334
811.71283,318
811.831604,332
811.950378,343
812.069153,328
812.187927,335
812.30658,338
812.425415,334
812.544128,322
812.662781,336
812.781616,323
812.900269,353
813.019043,328
813.137756,332
813.256531,331
813.375244,341
813.493896,324
813.612671,338
813.731384,322
813.850037,350
813.96875,327
814.087524,332
814.206238,325
814.324951,338
814.443604,329
814.562256,349
814.68103,332
814.799683,323
814.918335,344
815.037109,345
815.155762,330
815.274475,336
815.393188,310
815.511841,329
815.630554,327
815.749146,337
815.867859,335
815.986572,323
816.105164,342
816.223877,333
816.342529,329
816.461182,330
816.579895,322
816.698486,326
816.817139,326
816.935791,328
817.054504,330
817.173096,315
817.291748,330
817.4104,327
817.529053,338
817.647644,338
817.766235,323
817.884949,326
818.00354,322
818.122192,321
818.240845,312
818.359436,318
818.478088,336
818.59668,330
818.715271,316
818.833923,307
818.952515,321
819.071106,338
819.189758,307
819.30835,308
819.426941,325
819.545532,329
819.664124,326
819.782715,310
819.901306,309
820.019897,320
820.138489,319
820.25708,320
820.375671,319
820.494202,326
820.612732,325
820.731384,333
820.849915,314
820.968506,312
821.087097,306
821.205627,327
821.324158,311
821.442749,317
821.561279,311
821.679871,320
821.798401,310
821.916931,320
822.035461,311
822.154053,314
822.272583,324
822.391174,320
822.509583,313
822.628174,320
822.746704,310
822.865234,336
822.983765,326
823.102295,322
823.220825,314
823.339294,315
823.457825,327
823.576355,327
823.694824,317
823.813354,331
823.931885,321
824.050354,311
824.168884,323
824.287354,333
824.405823,314
824.524353,317
824.642822,320
824.761353,321
824.879822,325
824.998291,315
825.116699,316
825.235291,326
825.353699,306
825.472168,323
825.590637,312
825.709106,323
825.827576,306
825.946045,325
826.064453,302
826.182983,318
826.301392,316
826.4198,326
826.53833,316
826.656738,302
826.775208,307
826.893677,302
827.012024,310
827.130493,323
827.248962,305
827.36731,332
827.485779,301
827.604248,332
827.722595,325
827.841064,321
827.959412,324
828.077942,328
828.196289,316
828.314636,316
828.433105,314
828.551514,308
828.669861,324
828.78833,320
828.906677,329
829.025085,307
829.143433,308
829.261841,317
829.38031,332
829.498657,312
829.617004,316
829.735413,321
829.85376,317
829.972107,311
830.090515,313
830.208862,317
830.327209,305
830.445557,315
830.563904,314
830.682312,327
830.800659,305
830.919006,317
831.037354,312
831.155701,319
831.274048,316
831.392395,312
831.51062,321
831.629028,309
831.747314,317
831.865662,334
831.984009,316
832.102356,326
832.220642,309
832.338928,326
832.457275,310
832.575623,322
832.693909,310
832.812134,318
832.930481,316
833.048828,319
833.167114,306
833.2854,321
833.403687,313
833.521973,313
833.640259,330
833.758545,321
833.876831,313
833.995056,324
834.113281,322
834.231628,318
834.349915,302
834.468201,313
834.586426,310
834.704651,314
834.822998,306
834.941162,309
835.059448,318
835.177673,313
835.295959,327
835.414246,311
835.53241,324
835.650635,310
835.768921,315
835.887146,311
836.005371,317
836.123596,324
836.241821,318
836.360046,321
836.478271,314
836.596497,319
836.714722,306
836.832886,317
836.95105,318
837.069336,330
837.1875,329
837.305725,307
837.423889,315
837.542053,331
837.660339,315
837.778503,320
837.896667,323
838.014832,337
838.132996,310
838.25116,324
838.369385,308
838.487488,327
838.605713,322
838.723877,318
838.84198,314
838.960205,320
839.078308,304
839.196472,318
839.314636,317
839.4328,328
839.550964,317
839.669067,322
839.787231,311
839.905396,316
840.023499,305
840.141602,320
840.259766,309
840.377869,326
840.495972,313
840.614136,315
840.732239,313
840.850342,316
840.968445,317
841.086548,308
841.204651,323
841.322754,319
841.440918,315
841.55896,317
841.677002,315
841.795166,319
841.913208,320
842.031311,314
842.149353,306
842.267456,311
842.385498,304
842.503601,306
842.621643,319
842.739746,319
842.857788,306
842.97583,324
843.093933,314
843.211975,321
843.330017,324
843.44812,308
843.566101,313
843.684204,326
843.802246,305
843.920227,301
844.038269,327
844.156311,319
844.274292,310
844.392395,309
844.510376,309
844.628357,320
844.74646,296
844.864441,313
844.982422,322
845.100403,325
845.218384,319
845.336426,309
845.454468,314
845.572449,323
845.69043,319
845.808411,323
845.926453,323
846.044373,310
846.162354,311
846.280396,310
846.398315,318
846.516296,323
846.634216,303
846.752197,310
846.870178,322
846.988098,326
847.106079,310
847.22406,317
847.34198,309
847.4599,307
847.577881,318
847.695801,309
847.813782,323
847.931641,316
848.049561,321
848.167603,311
848.285461,320
848.403381,319
848.521362,319
848.639221,314
848.75708,304
848.875,326
848.99292,307
849.110901,320
849.22876,321
849.34668,320
849.464539,322
849.582458,320
849.700317,312
849.818176,324
849.936096,317
850.053955,317
850.171875,327
850.289673,319
850.407593,305
850.525452,311
850.643311,309
850.761169,322
850.878967,302
850.996887,334
851.114746,302
851.232544,311
851.350403,307
851.468262,327
851.58606,309
851.703979,317
851.821777,317
851.939636,334
852.057434,304
852.175232,322
852.293091,308
852.410889,323
852.528687,315
852.646545,310
852.764343,312
852.88208,318
852.999939,304
853.117676,322
853.235535,299
853.353271,323
853.471069,301
853.588928,333
853.706604,329
853.824402,316
853.9422,315
854.059998,318
854.177734,309
854.295532,318
854.413269,319
854.531006,321
854.648804,307
854.766541,321
854.884277,313
855.002014,310
855.119751,314
855.237549,311
855.355225,311
855.473022,327
855.590698,313
855.708435,308
855.826172,314
855.943848,318
856.061646,314
856.179321,321
856.296997,306
856.414795,310
856.53241,302
856.650085,323
856.767822,314
856.885559,314
857.003174,315
857.120911,313
857.238586,316
857.356201,327
857.473938,316
857.591614,327
857.709351,320
857.826965,317
857.944641,317
858.062317,312
858.179993,319
858.297668,315
858.415283,311
858.532959,313
858.650574,317
858.768188,305
858.885803,319
859.003479,321
859.121094,315
859.23877,319
859.356384,309
859.473999,324
859.591675,311
859.709229,325
859.826843,313
859.944458,317
860.062012,317
860.179626,313
860.297302,325
860.414856,331
860.532471,303
860.650024,331
860.767639,320
860.885193,316
861.002808,317
861.120361,321
861.237976,327
861.35553,307
861.473022,321
861.590698,327
861.708191,326
861.825745,311
861.943298,315
862.060852,317
862.178406,319
862.295959,321
862.413513,319
862.531006,317
862.64856,306
862.766113,324
862.883667,315
863.00116,324
863.118713,322
863.236206,315
863.353699,307
863.471252,300
863.588745,318
863.706177,316
863.82373,307
863.941162,309
864.058716,312
864.176208,321
864.29364,321
864.411194,313
864.528687,313
864.646118,311
864.763611,312
864.881042,319
864.998535,315
865.116028,313
865.233459,319
865.350891,317
865.468384,314
865.585754,328
865.703308,318
865.820679,315
865.938171,313
866.055542,324
866.173035,300
866.290466,322
866.407837,316
866.52533,313
866.6427,304
866.760071,310
866.877563,314
866.994934,317
867.112305,321
867.229736,300
867.347107,311
867.464539,334
867.58197,327
867.699341,326
867.81665,321
867.934082,319
868.051453,308
868.168823,325
868.286194,306
868.403564,339
868.520935,300
868.638306,322
868.755676,305
868.872986,314
868.990295,314
869.107727,310
869.225037,307
869.342346,316
869.459717,308
869.577026,314
869.694336,308
869.811707,308
869.929016,320
870.046326,325
870.163635,316
870.280945,321
870.398254,323
870.515564,332
870.632812,309
870.750183,327
870.867432,307
870.984741,313
871.102051,319
871.219299,311
871.336609,331
871.453918,317
871.571106,327
871.688416,300
871.805664,318
871.922852,333
872.040222,322
872.157471,315
872.274719,313
872.391968,319
872.509155,323
872.626465,324
872.743652,295
872.860962,319
872.978149,301
873.095337,315
873.212646,306
873.329834,312
873.44696,305
873.564209,320
873.681396,319
873.798645,309
873.915894,299
874.03302,316
874.150208,306
874.267456,309
874.384583,308
874.501831,323
874.618958,311
874.736145,334
874.853333,305
874.970459,317
875.087646,311
875.204834,311
875.32196,319
875.439148,330
875.556274,308
875.673401,313
875.790527,320
875.907715,319
876.024841,311
876.141968,305
876.259094,303
876.376282,312
876.493347,315
876.610474,320
876.7276,306
876.844727,316
876.961853,316
877.078918,328
877.195984,298
877.313171,307
877.430237,313
877.547302,325
877.664368,309
877.781433,328
877.898499,329
878.015625,323
878.13269,313
878.249695,328
878.366821,311
878.483887,320
878.600952,321
878.717957,311
878.834961,305
878.952087,336
879.069092,320
879.186157,323
879.303162,307
879.420227,319
879.537231,313
879.654236,318
879.77124,316
879.888306,311
880.005249,312
880.122314,325
880.239319,313
880.356323,320
880.473328,314
880.590271,317
880.707275,315
880.824341,293
880.941284,301
881.058228,310
881.175232,318
881.292236,306
881.40918,313
881.526123,325
881.643066,313
881.760071,317
881.877014,321
881.993958,317
882.11084,314
882.227783,326
882.344727,324
882.46167,326
882.578613,311
882.695618,323
882.812439,312
882.929382,317
883.046326,307
883.163208,310
883.280151,305
883.397034,313
883.513916,311
883.630798,332
883.747742,314
883.864563,313
883.981506,304
884.098389,322
884.21521,314
884.332153,325
884.448975,308
884.565796,312
884.682678,316
884.7995,319
884.916443,305
885.033264,327
885.150085,313
885.266968,316
885.383789,310
885.500671,320
885.617493,310
885.734314,321
885.851196,314
885.967896,327
886.084717,303
886.201599,321
886.318359,299
886.435181,317
886.552002,324
886.668762,326
886.785645,303
886.902344,313
887.019165,320
887.135925,319
887.252747,311
887.369446,311
887.486267,320
887.603027,329
887.719788,314
887.836548,312
887.953247,315
888.070068,313
888.186829,318
888.303528,337
888.420288,301
888.536987,321
888.653687,298
888.770447,322
888.887146,325
889.003967,316
889.120667,307
889.237305,318
889.354065,308
889.470703,316
889.587463,304
889.704163,311
889.820862,308
889.937561,314
890.054199,312
890.170837,317
890.287598,325
890.404236,335
890.520874,317
890.637634,327
890.754211,314
890.87085,322
890.987549,316
891.104187,327
891.220886,329
891.337463,317
891.454102,331
891.57074,317
891.687378,316
891.804077,323
891.920654,320
892.037231,320
892.15387,300
892.270447,322
892.387085,307
892.503723,328
892.6203,308
892.736877,322
892.853516,319
892.970032,315
893.08667,320
893.203186,324
893.319763,311
893.43634,312
893.552917,306
893.669556,312
893.786011,317
893.902588,321
894.019165,321
894.135681,340
894.252197,306
894.368835,307
894.485291,306
894.601868,325
894.718384,308
894.8349,330
894.951355,313
895.067932,326
895.184448,307
895.300964,316
895.417419,306
895.533936,323
895.650452,309
895.766907,317
895.883423,320
895.999878,333
896.116333,316
896.232849,316
896.349304,320
896.465759,316
896.582214,319
896.698669,311
896.815125,310
896.931641,319
897.048035,322
897.164551,328
897.280884,324
897.397339,300
897.513794,309
897.630249,327
897.746582,310
897.863098,315
897.979431,314
898.095886,318
898.212341,313
898.328674,312
898.445129,300
898.561462,330
898.677795,302
898.794312,320
898.910645,315
899.026978,319
899.143433,311
899.259766,326
899.37616,320
899.492493,325
899.608765,309
899.725159,319
899.841553,319
899.957947,306
900.07428,313
900.190552,324
900.306946,317
900.423157,316
900.53949,312
900.655884,328
900.772156,315
900.888489,327
901.004822,320
901.121033,308
901.237366,309
901.353699,323
901.46991,312
901.586304,320
901.702515,325
901.818787,328
901.93512,310
902.051331,321
902.167603,316
902.283875,314
902.400085,312
902.516418,326
902.632629,322
902.74884,332
902.865112,314
902.981384,328
903.097595,305
903.213867,317
903.330017,317
903.446289,313
903.5625,318
903.67865,317
903.794922,309
903.911072,332
904.027344,304
904.143494,312
904.259705,317
904.375916,308
904.492065,338
904.608215,332
904.724426,309
904.840576,321
904.956726,327
905.072876,320
905.189087,314
905.305176,315
905.421387,312
905.537537,325
905.653687,313
905.769775,324
905.885925,314
906.002014,324
906.118164,314
906.234314,324
906.350403,305
906.466492,317
906.582642,322
906.69873,324
906.814758,312
906.930908,315
907.046936,314
907.163086,325
907.279175,310
907.395264,332
907.511353,314
907.62738,314
907.743408,310
907.859497,330
907.975525,311
908.091553,321
908.207703,310
908.32373,324
908.439758,306
908.555786,310
908.671814,306
908.787842,309
908.90387,320
909.019775,325
909.135864,318
909.251892,324
909.367859,328
909.483826,316
909.599854,306
909.715881,323
909.831848,313
909.947815,321
910.063782,320
910.179749,324
910.295776,326
910.411743,323
910.527649,294
910.643616,331
910.759583,320
910.875488,313
910.991455,323
911.107361,322
911.223267,314
911.339294,322
911.4552,320
911.571106,320
911.687073,321
911.802979,325
911.918823,305
912.034729,325
912.150635,314
912.266602,305
912.382446,322
912.498352,322
912.614197,300
912.730103,319
912.846008,328
792.44574,314
792.56488,336
792.68396,399
792.80304,394
792.92218,339
793.041199,313
793.160339,336
793.279419,324
793.398499,351
793.517578,311
793.636658,321
793.755737,348
793.874817,364
793.993896,345
794.112976,338
794.232056,325
794.351074,331
794.470215,339
794.589233,333
794.708313,323
794.827393,335
794.946411,341
795.065552,341
795.18457,336
795.303589,333
795.422668,330
795.541687,329
795.660767,346
795.779846,328
795.898865,329
796.017883,334
796.136963,336
796.255981,332
796.375061,326
796.49408,333
796.613037,333
796.732117,329
796.851135,347
796.970154,327
797.089233,341
797.208191,333
797.327271,321
797.446228,326
797.565186,327
797.684265,341
797.803223,329
797.922241,338
798.04126,325
798.160278,330
798.279297,316
798.398315,332
798.517273,334
798.636292,336
798.75531,318
798.874268,325
798.993286,329
799.112244,317
799.231323,323
799.350281,333
799.469238,325
799.588257,333
799.707153,330
799.826111,318
799.945129,342
800.064087,335
800.183044,320
800.302063,332
800.421021,320
800.539978,341
800.658936,332
800.777893,333
800.896912,329
801.015747,317
801.134705,324
801.253723,321
801.37262,332
801.491638,335
801.610535,317
801.729492,330
801.84845,324
801.967407,340
802.086243,339
802.205261,340
802.324158,333
802.443115,329
802.562073,331
802.680969,337
802.799927,329
802.918762,336
803.037659,327
803.156677,323
803.275574,331
803.39447,336
803.513428,332
803.632263,336
803.751221,326
803.870117,324
803.989014,329
804.107971,331
804.226746,318
804.345642,332
804.4646,332
804.583496,342
804.702393,317
804.821228,330
804.940125,316
805.059021,333
805.177917,328
805.296814,323
805.415649,326
805.534546,336
805.653442,331
805.772278,331
805.891113,336
806.01001,338
806.128906,335
806.247742,332
806.366577,327
806.485413,331
806.604309,320
806.723145,333
806.84198,325
806.960876,325
807.079712,327
807.198486,322
807.317383,339
807.436218,318
807.554993,330
807.673889,347
807.792725,330
807.91156,337
808.030396,338
808.14917,329
808.268005,329
808.386841,341
808.505676,332
808.624451,349
808.743286,321
808.862122,324
808.980896,331
809.099731,311
809.218506,335
809.337341,347
809.456116,324
809.57489,344
809.693726,318
809.8125,334
809.931274,343
810.050049,337
810.168884,319
810.287659,327
810.406372,335
810.525269,334
810.643982,334
810.762756,322
810.881531,327
811.000305,339
811.11908,337
811.237854,346
811.356567,338
811.475403,342
811.594116,330
811.71283,334
811.831604,332
811.950378,327
812.069153,329
812.187927,315
812.30658,342
812.425415,337
812.544128,328
812.662781,342
812.781616,320
812.900269,339
813.019043,338
813.137756,341
813.256531,331
813.375244,337
813.493896,322
813.612671,322
813.731384,333
813.850037,337
813.96875,318
814.087524,316
814.206238,335
814.324951,327
814.443604,334
814.562256,337
814.68103,330
814.799683,343
814.918335,336
815.037109,317
815.155762,333
815.274475,351
815.393188,329
815.511841,338
815.630554,339
815.749146,341
815.867859,319
815.986572,320
816.105164,322
816.223877,338
816.342529,325
816.461182,335
816.579895,318
816.698486,340
816.817139,331
816.935791,335
817.054504,328
817.173096,337
817.291748,323
817.4104,326
817.529053,334
817.647644,336
817.766235,323
817.884949,336
818.00354,329
818.122192,325
818.240845,330
818.359436,329
818.478088,324
818.59668,338
818.715271,316
818.833923,334
818.952515,308
819.071106,323
819.189758,327
819.30835,311
819.426941,319
819.545532,333
819.664124,306
819.782715,323
819.901306,317
820.019897,321
820.138489,314
820.25708,315
820.375671,340
820.494202,320
820.612732,318
820.731384,327
820.849915,303
820.968506,317
821.087097,320
821.205627,336
821.324158,331
821.442749,313
821.561279,318
821.679871,312
821.798401,319
821.916931,318
822.035461,315
822.154053,332
822.272583,318
822.391174,327
822.509583,323
822.628174,330
822.746704,305
822.865234,332
822.983765,306
823.102295,333
823.220825,319
823.339294,333
823.457825,303
823.576355,317
823.694824,319
823.813354,322
823.931885,324
824.050354,313
824.168884,307
824.287354,319
824.405823,323
824.524353,328
824.642822,317
824.761353,322
824.879822,318
824.998291,313
825.116699,320
825.235291,324
825.353699,324
825.472168,317
825.590637,305
825.709106,324
825.827576,322
825.946045,331
826.064453,310
826.182983,333
826.301392,321
826.4198,332
826.53833,331
826.656738,305
826.775208,303
826.893677,324
827.012024,313
827.130493,326
827.248962,326
827.36731,337
827.485779,313
827.604248,327
827.722595,302
827.841064,327
827.959412,310
828.077942,318
828.196289,306
828.314636,326
828.433105,309
828.551514,314
828.669861,312
828.78833,317
828.906677,305
829.025085,321
829.143433,302
829.261841,320
829.38031,326
829.498657,323
829.617004,293
829.735413,312
829.85376,310
829.972107,323
830.090515,309
830.208862,314
830.327209,301
830.445557,319
830.563904,329
830.682312,318
830.800659,298
830.919006,310
831.037354,325
831.155701,316
831.274048,309
831.392395,331
831.51062,304
831.629028,316
831.747314,315
831.865662,310
831.984009,319
832.102356,318
832.220642,309
832.338928,319
832.457275,328
832.575623,324
832.693909,302
832.812134,318
832.930481,302
833.048828,325
833.167114,317
833.2854,320
833.403687,315
833.521973,319
833.640259,319
833.758545,316
833.876831,312
833.995056,322
834.113281,318
834.231628,319
834.349915,307
834.468201,316
834.586426,322
834.704651,318
834.822998,312
834.941162,328
835.059448,306
835.177673,320
835.295959,313
835.414246,325
835.53241,312
835.650635,307
835.768921,326
835.887146,320
836.005371,314
836.123596,337
836.241821,316
836.360046,315
836.478271,335
836.596497,330
836.714722,321
836.832886,300
836.95105,326
837.069336,325
837.1875,317
837.305725,320
837.423889,322
837.542053,330
837.660339,310
837.778503,316
837.896667,317
838.014832,322
838.132996,314
838.25116,324
838.369385,317
838.487488,325
838.605713,305
838.723877,324
838.84198,313
838.960205,333
839.078308,322
839.196472,323
839.314636,321
839.4328,323
839.550964,317
839.669067,318
839.787231,313
839.905396,330
840.023499,319
840.141602,316
840.259766,318
840.377869,320
840.495972,313
840.614136,315
840.732239,315
840.850342,326
840.968445,319
841.086548,328
841.204651,306
841.322754,327
841.440918,322
841.55896,311
841.677002,316
841.795166,321
841.913208,321
842.031311,311
842.149353,315
842.267456,325
842.385498,310
842.503601,317
842.621643,306
842.739746,315
842.857788,322
842.97583,326
843.093933,323
843.211975,312
843.330017,307
843.44812,318
843.566101,307
843.684204,299
843.802246,307
843.920227,323
844.038269,313
844.156311,327
844.274292,315
844.392395,324
844.510376,323
844.628357,326
844.74646,312
844.864441,323
844.982422,314
845.100403,308
845.218384,324
845.336426,312
845.454468,308
845.572449,335
845.69043,302
845.808411,323
845.926453,316
846.044373,323
846.162354,315
846.280396,319
846.398315,316
846.516296,310
846.634216,318
846.752197,310
846.870178,315
846.988098,312
847.106079,323
847.22406,315
847.34198,309
847.4599,315
847.577881,323
847.695801,318
847.813782,308
847.931641,314
848.049561,307
848.167603,337
848.285461,326
848.403381,322
848.521362,328
848.639221,313
848.75708,318
848.875,323
848.99292,306
849.110901,315
849.22876,315
849.34668,324
849.464539,317
849.582458,314
849.700317,309
849.818176,316
849.936096,320
850.053955,325
850.171875,304
850.289673,316
850.407593,305
850.525452,330
850.643311,314
850.761169,305
850.878967,319
850.996887,319
851.114746,320
851.232544,319
851.350403,311
851.468262,318
851.58606,315
851.703979,309
851.821777,325
851.939636,321
852.057434,318
852.175232,318
852.293091,310
852.410889,328
852.528687,311
852.646545,323
852.764343,313
852.88208,311
852.999939,300
853.117676,319
853.235535,325
853.353271,325
853.471069,313
853.588928,326
853.706604,311
853.824402,319
853.9422,312
854.059998,314
854.177734,324
854.295532,298
854.413269,341
854.531006,327
854.648804,322
854.766541,315
854.884277,312
855.002014,322
855.119751,310
855.237549,332
855.355225,297
855.473022,328
855.590698,317
855.708435,319
855.826172,308
855.943848,332
856.061646,312
856.179321,329
856.296997,305
856.414795,319
856.53241,320
856.650085,326
856.767822,301
856.885559,323
857.003174,316
857.120911,313
857.238586,321
857.356201,311
857.473938,301
857.591614,332
857.709351,312
857.826965,328
857.944641,316
858.062317,325
858.179993,307
858.297668,323
858.415283,298
858.532959,309
858.650574,310
858.768188,318
858.885803,316
859.003479,316
859.121094,308
859.23877,320
859.356384,317
859.473999,316
859.591675,313
859.709229,316
859.826843,301
859.944458,321
860.062012,312
860.179626,302
860.297302,305
860.414856,312
860.532471,311
860.650024,323
860.767639,322
860.885193,314
861.002808,316
861.120361,321
861.237976,302
861.35553,320
861.473022,307
861.590698,322
861.708191,326
861.825745,324
861.943298,309
862.060852,319
862.178406,317
862.295959,331
862.413513,318
862.531006,324
862.64856,323
862.766113,330
862.883667,324
863.00116,318
863.118713,306
863.236206,324
863.353699,315
863.471252,322
863.588745,333
863.706177,320
863.82373,317
863.941162,323
864.058716,315
864.176208,321
864.29364,307
864.411194,321
864.528687,300
864.646118,314
864.763611,328
864.881042,313
864.998535,314
865.116028,328
865.233459,317
865.350891,317
865.468384,311
865.585754,331
865.703308,309
865.820679,323
865.938171,325
866.055542,323
866.173035,313
866.290466,326
866.407837,314
866.52533,326
866.6427,313
866.760071,315
866.877563,304
866.994934,323
867.112305,312
867.229736,322
867.347107,320
867.464539,316
867.58197,318
867.699341,317
867.81665,319
867.934082,316
868.051453,319
868.168823,329
868.286194,307
868.403564,324
868.520935,326
868.638306,325
868.755676,316
868.872986,314
868.990295,313
869.107727,317
869.225037,325
869.342346,322
869.459717,313
869.577026,315
869.694336,323
869.811707,306
869.929016,327
870.046326,319
870.163635,314
870.280945,318
870.398254,328
870.515564,323
870.632812,314
870.750183,305
870.867432,330
870.984741,309
871.102051,323
871.219299,313
871.336609,306
871.453918,321
871.571106,322
871.688416,325
871.805664,309
871.922852,308
872.040222,317
872.157471,316
872.274719,322
872.391968,326
872.509155,307
872.626465,344
872.743652,314
872.860962,325
872.978149,321
873.095337,327
873.212646,316
873.329834,332
873.44696,312
873.564209,323
873.681396,319
873.798645,321
873.915894,315
874.03302,321
874.150208,309
874.267456,318
874.384583,311
874.501831,324
874.618958,302
874.736145,324
874.853333,315
874.970459,322
875.087646,312
875.204834,336
875.32196,311
875.439148,317
875.556274,315
875.673401,320
875.790527,307
875.907715,315
876.024841,312
876.141968,317
876.259094,317
876.376282,319
876.493347,326
876.610474,328
876.7276,318
876.844727,316
876.961853,337
877.078918,326
877.195984,318
877.313171,321
877.430237,305
877.547302,312
877.664368,320
877.781433,299
877.898499,312
878.015625,315
878.13269,312
878.249695,322
878.366821,327
878.483887,325
878.600952,325
878.717957,332
878.834961,320
878.952087,324
879.069092,324
879.186157,322
879.303162,310
879.420227,315
879.537231,314
879.654236,328
879.77124,311
879.888306,311
880.005249,325
880.122314,328
880.239319,330
880.356323,327
880.473328,326
880.590271,313
880.707275,306
880.824341,323
880.941284,308
881.058228,334
881.175232,326
881.292236,318
881.40918,314
881.526123,320
881.643066,298
881.760071,310
881.877014,320
881.993958,319
882.11084,325
882.227783,321
882.344727,313
882.46167,328
882.578613,320
882.695618,321
882.812439,317
882.929382,328
883.046326,316
883.163208,326
883.280151,307
883.397034,334
883.513916,317
883.630798,315
883.747742,316
883.864563,316
883.981506,310
884.098389,313
884.21521,319
884.332153,321
884.448975,304
884.565796,319
884.682678,305
884.7995,313
884.916443,311
885.033264,321
885.150085,323
885.266968,325
885.383789,311
885.500671,325
885.617493,305
885.734314,315
885.851196,320
885.967896,317
886.084717,313
886.201599,313
886.318359,312
886.435181,322
886.552002,317
886.668762,326
886.785645,307
886.902344,331
887.019165,317
887.135925,322
887.252747,317
887.369446,334
887.486267,313
887.603027,327
887.719788,316
887.836548,320
887.953247,320
888.070068,333
888.186829,323
888.303528,312
888.420288,305
888.536987,330
888.653687,317
888.770447,338
888.887146,313
889.003967,316
889.120667,319
889.237305,317
889.354065,303
889.470703,315
889.587463,327
889.704163,322
889.820862,318
889.937561,325
890.054199,326
890.170837,307
890.287598,312
890.404236,316
890.520874,308
890.637634,321
890.754211,317
890.87085,328
890.987549,319
891.104187,327
891.220886,326
891.337463,305
891.454102,318
891.57074,325
891.687378,322
891.804077,321
891.920654,323
892.037231,308
892.15387,315
892.270447,327
892.387085,304
892.503723,325
892.6203,302
892.736877,330
892.853516,315
892.970032,328
893.08667,310
893.203186,318
893.319763,321
893.43634,326
893.552917,312
893.669556,331
893.786011,303
893.902588,328
894.019165,320
894.135681,329
894.252197,325
894.368835,317
894.485291,318
894.601868,330
894.718384,321
894.8349,332
894.951355,319
895.067932,334
895.184448,317
895.300964,314
895.417419,311
895.533936,320
895.650452,325
895.766907,316
895.883423,318
895.999878,315
896.116333,309
896.232849,311
896.349304,303
896.465759,310
896.582214,319
896.698669,327
896.815125,312
896.931641,322
897.048035,315
897.164551,328
897.280884,320
897.397339,323
897.513794,318
897.630249,317
897.746582,314
897.863098,341
897.979431,325
898.095886,322
898.212341,314
898.328674,331
898.445129,310
898.561462,323
898.677795,312
898.794312,311
898.910645,318
899.026978,327
899.143433,315
899.259766,316
899.37616,315
899.492493,323
899.608765,318
899.725159,324
899.841553,308
899.957947,311
900.07428,309
900.190552,307
900.306946,308
900.423157,324
900.53949,319
900.655884,313
900.772156,318
900.888489,323
901.004822,314
901.121033,328
901.237366,313
901.353699,316
901.46991,319
901.586304,315
901.702515,321
901.818787,302
901.93512,323
902.051331,313
902.167603,312
902.283875,323
902.400085,314
902.516418,319
902.632629,320
902.74884,318
902.865112,305
902.981384,317
903.097595,318
903.213867,337
903.330017,309
903.446289,320
903.5625,316
903.67865,317
903.794922,308
903.911072,323
904.027344,320
904.143494,319
904.259705,320
904.375916,327
904.492065,313
904.608215,320
904.724426,305
904.840576,326
904.956726,336
905.072876,314
905.189087,314
905.305176,328
905.421387,318
905.537537,332
905.653687,307
905.769775,321
905.885925,321
906.002014,325
906.118164,325
906.234314,318
906.350403,312
906.466492,323
906.582642,313
906.69873,329
906.814758,316
906.930908,323
907.046936,325
907.163086,323
907.279175,312
907.395264,327
907.511353,309
907.62738,319
907.743408,313
907.859497,332
907.975525,325
908.091553,331
908.207703,319
908.32373,302
908.439758,308
908.555786,315
908.671814,314
908.787842,317
908.90387,299
909.019775,324
909.135864,318
909.251892,311
909.367859,325
909.483826,321
909.599854,311
909.715881,305
909.831848,330
909.947815,323
910.063782,309
910.179749,327
910.295776,308
910.411743,321
910.527649,318
910.643616,320
910.759583,316
910.875488,311
910.991455,318
911.107361,324
911.223267,311
911.339294,324
911.4552,314
911.571106,323
911.687073,314
911.802979,316
911.918823,319
912.034729,327
912.150635,308
912.266602,320
912.382446,320
912.498352,335
912.614197,321
912.730103,317
912.846008,310
792.44574,316
792.56488,358
792.68396,394
792.80304,383
792.92218,330
793.041199,331
793.160339,330
793.279419,336
793.398499,330
793.517578,321
793.636658,311
793.755737,339
793.874817,351
793.993896,347
794.112976,339
794.232056,317
794.351074,335
794.470215,334
794.589233,319
794.708313,328
794.827393,316
794.946411,327
795.065552,333
795.18457,337
795.303589,333
795.422668,319
795.541687,337
795.660767,334
795.779846,316
795.898865,312
796.017883,325
796.136963,327
796.255981,325
796.375061,339
796.49408,322
796.613037,325
796.732117,323
796.851135,328
796.970154,331
797.089233,316
797.208191,320
797.327271,335
797.446228,328
797.565186,324
797.684265,321
797.803223,316
797.922241,336
798.04126,323
798.160278,322
798.279297,340
798.398315,331
798.517273,331
798.636292,319
798.75531,326
798.874268,327
798.993286,332
799.112244,326
799.231323,311
799.350281,327
799.469238,336
799.588257,322
799.707153,321
799.826111,334
799.945129,337
800.064087,340
800.183044,323
800.302063,340
800.421021,331
800.539978,337
800.658936,335
800.777893,326
800.896912,320
801.015747,319
801.134705,325
801.253723,327
801.37262,324
801.491638,317
801.610535,327
801.729492,313
801.84845,344
801.967407,325
802.086243,317
802.205261,321
802.324158,332
802.443115,332
802.562073,334
802.680969,337
802.799927,331
802.918762,322
803.037659,332
803.156677,334
803.275574,318
803.39447,328
803.513428,329
803.632263,337
803.751221,341
803.870117,327
803.989014,331
804.107971,330
804.226746,332
804.345642,326
804.4646,339
804.583496,319
804.702393,331
804.821228,329
804.940125,325
805.059021,323
805.177917,324
805.296814,333
805.415649,321
805.534546,336
805.653442,328
805.772278,333
805.891113,323
806.01001,321
806.128906,332
806.247742,338
806.366577,327
806.485413,338
806.604309,335
806.723145,320
806.84198,322
806.960876,328
807.079712,324
807.198486,336
807.317383,331
807.436218,325
807.554993,328
807.673889,340
807.792725,322
807.91156,327
808.030396,318
808.14917,337
808.268005,336
808.386841,330
808.505676,338
808.624451,332
808.743286,327
808.862122,329
808.980896,326
809.099731,328
809.218506,326
809.337341,322
809.456116,338
809.57489,344
809.693726,330
809.8125,344
809.931274,332
810.050049,329
810.168884,339
810.287659,323
810.406372,330
810.525269,328
810.643982,330
810.762756,330
810.881531,342
811.000305,337
811.11908,332
811.237854,337
811.356567,334
811.475403,326
811.594116,336
811.71283,326
811.831604,320
811.950378,335
812.069153,329
812.187927,344
812.30658,331
812.425415,345
812.544128,327
812.662781,347
812.781616,324
812.900269,338
813.019043,331
813.137756,332
813.256531,339
813.375244,342
813.493896,324
813.612671,333
813.731384,342
813.850037,335
813.96875,328
814.087524,335
814.206238,337
814.324951,329
814.443604,336
814.562256,332
814.68103,321
814.799683,345
814.918335,328
815.037109,332
815.155762,316
815.274475,331
815.393188,331
815.511841,324
815.630554,320
815.749146,329
815.867859,320
815.986572,332
816.105164,331
816.223877,332
816.342529,327
816.461182,330
816.579895,326
816.698486,340
816.817139,336
816.935791,321
817.054504,330
817.173096,328
817.291748,315
817.4104,331
817.529053,332
817.647644,323
817.766235,330
817.884949,335
818.00354,327
818.122192,318
818.240845,335
818.359436,312
818.478088,329
818.59668,328
818.715271,328
818.833923,330
818.952515,315
819.071106,324
819.189758,328
819.30835,325
819.426941,320
819.545532,324
819.664124,315
819.782715,323
819.901306,320
820.019897,303
820.138489,330
820.25708,329
820.375671,324
820.494202,321
820.612732,322
820.731384,309
820.849915,321
820.968506,327
821.087097,325
821.205627,321
821.324158,326
821.442749,316
821.561279,308
821.679871,313
821.798401,326
821.916931,325
822.035461,311
822.154053,311
822.272583,331
822.391174,307
822.509583,324
822.628174,319
822.746704,330
822.865234,313
822.983765,328
823.102295,325
823.220825,320
823.339294,325
823.457825,324
823.576355,332
823.694824,321
823.813354,302
823.931885,323
824.050354,320
824.168884,322
824.287354,315
824.405823,324
824.524353,312
824.642822,323
824.761353,312
824.879822,327
824.998291,317
825.116699,329
825.235291,320
825.353699,322
825.472168,321
825.590637,316
825.709106,325
825.827576,309
825.946045,320
826.064453,314
826.182983,326
826.301392,322
826.4198,325
826.53833,326
826.656738,330
826.775208,317
826.893677,323
827.012024,310
827.130493,318
827.248962,317
827.36731,310
827.485779,311
827.604248,325
827.722595,312
827.841064,331
827.959412,307
828.077942,312
828.196289,324
828.314636,326
828.433105,320
828.551514,310
828.669861,317
828.78833,335
828.906677,307
829.025085,320
829.143433,324
829.261841,324
829.38031,318
829.498657,305
829.617004,318
829.735413,332
829.85376,305
829.972107,314
830.090515,320
830.208862,312
830.327209,315
830.445557,320
830.563904,316
830.682312,308
830.800659,322
830.919006,308
831.037354,320
831.155701,326
831.274048,322
831.392395,318
831.51062,324
831.629028,315
831.747314,308
831.865662,318
831.984009,310
832.102356,303
832.220642,311
832.338928,311
832.457275,327
832.575623,306
832.693909,320
832.812134,319
832.930481,320
833.048828,321
833.167114,320
833.2854,304
833.403687,320
833.521973,317
833.640259,313
833.758545,315
833.876831,323
833.995056,305
834.113281,315
834.231628,316
834.349915,328
834.468201,311
834.586426,316
834.704651,316
834.822998,336
834.941162,323
835.059448,319
835.177673,321
835.295959,307
835.414246,307
835.53241,319
835.650635,321
835.768921,310
835.887146,315
836.005371,309
836.123596,319
836.241821,323
836.360046,320
836.478271,330
836.596497,305
836.714722,319
836.832886,311
836.95105,319
837.069336,320
837.1875,313
837.305725,327
837.423889,326
837.542053,310
837.660339,321
837.778503,304
837.896667,332
838.014832,318
838.132996,320
838.25116,312
838.369385,316
838.487488,311
838.605713,315
838.723877,316
838.84198,328
838.960205,318
839.078308,320
839.196472,308
839.314636,319
839.4328,318
839.550964,305
839.669067,324
839.787231,305
839.905396,302
840.023499,316
840.141602,316
840.259766,325
840.377869,338
840.495972,308
840.614136,330
840.732239,324
840.850342,323
840.968445,313
841.086548,323
841.204651,310
841.322754,306
841.440918,328
841.55896,298
841.677002,311
841.795166,310
841.913208,324
842.031311,323
842.149353,309
842.267456,303
842.385498,310
842.503601,312
842.621643,337
842.739746,317
842.857788,311
842.97583,319
843.093933,315
843.211975,314
843.330017,324
843.44812,320
843.566101,322
843.684204,309
843.802246,313
843.920227,315
844.038269,314
844.156311,308
844.274292,311
844.392395,315
844.510376,324
844.628357,319
844.74646,331
844.864441,308
844.982422,309
845.100403,323
845.218384,314
845.336426,316
845.454468,330
845.572449,313
845.69043,323
845.808411,309
845.926453,325
846.044373,331
846.162354,324
846.280396,314
846.398315,324
846.516296,314
846.634216,315
846.752197,313
846.870178,311
846.988098,308
847.106079,318
847.22406,326
847.34198,320
847.4599,319
847.577881,319
847.695801,310
847.813782,313
847.931641,309
848.049561,319
848.167603,309
848.285461,304
848.403381,309
848.521362,324
848.639221,326
848.75708,309
848.875,322
848.99292,315
849.110901,326
849.22876,320
849.34668,309
849.464539,311
849.582458,303
849.700317,316
849.818176,310
849.936096,310
850.053955,320
850.171875,331
850.289673,323
850.407593,323
850.525452,301
850.643311,308
850.761169,321
850.878967,331
850.996887,315
851.114746,319
851.232544,302
851.350403,318
851.468262,317
851.58606,309
851.703979,312
851.821777,310
851.939636,307
852.057434,319
852.175232,323
852.293091,324
852.410889,320
852.528687,315
852.646545,318
852.764343,310
852.88208,320
852.999939,329
853.117676,331
853.235535,326
853.353271,317
853.471069,316
853.588928,303
853.706604,308
853.824402,317
853.9422,321
854.059998,320
854.177734,337
854.295532,315
854.413269,318
854.531006,311
854.648804,304
854.766541,317
854.884277,318
855.002014,316
855.119751,323
855.237549,306
855.355225,313
855.473022,318
855.590698,309
855.708435,304
855.826172,314
855.943848,315
856.061646,327
856.179321,317
856.296997,323
856.414795,315
856.53241,314
856.650085,299
856.767822,316
856.885559,318
857.003174,296
857.120911,316
857.238586,314
857.356201,316
857.473938,329
857.591614,307
857.709351,310
857.826965,305
857.944641,318
858.062317,310
858.179993,305
858.297668,308
858.415283,316
858.532959,316
858.650574,314
858.768188,316
858.885803,306
859.003479,317
859.121094,319
859.23877,319
859.356384,322
859.473999,308
859.591675,309
859.709229,320
859.826843,332
859.944458,309
860.062012,322
860.179626,308
860.297302,323
860.414856,322
860.532471,304
860.650024,311
860.767639,317
860.885193,320
861.002808,322
861.120361,301
861.237976,323
861.35553,316
861.473022,316
861.590698,316
861.708191,314
861.825745,317
861.943298,323
862.060852,305
862.178406,325
862.295959,312
862.413513,313
862.531006,320
862.64856,322
862.766113,308
862.883667,322
863.00116,322
863.118713,300
863.236206,321
863.353699,318
863.471252,317
863.588745,308
863.706177,319
863.82373,319
863.941162,317
864.058716,317
864.176208,309
864.29364,320
864.411194,309
864.528687,323
864.646118,306
864.763611,315
864.881042,305
864.998535,328
865.116028,321
865.233459,316
865.350891,309
865.468384,312
865.585754,307
865.703308,318
865.820679,314
865.938171,322
866.055542,313
866.173035,322
866.290466,311
866.407837,316
866.52533,303
866.6427,318
866.760071,328
866.877563,330
866.994934,312
867.112305,317
867.229736,321
867.347107,319
867.464539,312
867.58197,318
867.699341,303
867.81665,307
867.934082,332
868.051453,323
868.168823,306
868.286194,314
868.403564,316
868.520935,322
868.638306,308
868.755676,307
868.872986,317
868.990295,323
869.107727,325
869.225037,327
869.342346,320
869.459717,308
869.577026,321
869.694336,321
869.811707,313
869.929016,300
870.046326,314
870.163635,316
870.280945,328
870.398254,314
870.515564,313
870.632812,320
870.750183,307
870.867432,315
870.984741,320
871.102051,312
871.219299,332
871.336609,315
871.453918,320
871.571106,320
871.688416,332
871.805664,307
871.922852,322
872.040222,327
872.157471,317
872.274719,304
872.391968,312
872.509155,323
872.626465,320
872.743652,319
872.860962,304
872.978149,325
873.095337,308
873.212646,325
873.329834,324
873.44696,328
873.564209,315
873.681396,306
873.798645,337
873.915894,316
874.03302,313
874.150208,317
874.267456,309
874.384583,334
874.501831,320
874.618958,327
874.736145,309
874.853333,321
874.970459,323
875.087646,305
875.204834,325
875.32196,332
875.439148,312
875.556274,321
875.673401,322
875.790527,314
875.907715,323
876.024841,319
876.141968,305
876.259094,311
876.376282,318
876.493347,308
876.610474,320
876.7276,327
876.844727,311
876.961853,312
877.078918,299
877.195984,317
877.313171,324
877.430237,326
877.547302,321
877.664368,321
877.781433,316
877.898499,314
878.015625,330
878.13269,313
878.249695,319
878.366821,326
878.483887,312
878.600952,321
878.717957,323
878.834961,311
878.952087,321
879.069092,330
879.186157,317
879.303162,328
879.420227,318
879.537231,310
879.654236,313
879.77124,319
879.888306,314
880.005249,315
880.122314,304
880.239319,320
880.356323,325
880.473328,299
880.590271,313
880.707275,295
880.824341,322
880.941284,330
881.058228,304
881.175232,317
881.292236,324
881.40918,313
881.526123,313
881.643066,320
881.760071,308
881.877014,321
881.993958,317
882.11084,312
882.227783,313
882.344727,317
882.46167,309
882.578613,318
882.695618,314
882.812439,309
882.929382,309
883.046326,318
883.163208,314
883.280151,317
883.397034,322
883.513916,323
883.630798,317
883.747742,320
883.864563,316
883.981506,314
884.098389,318
884.21521,315
884.332153,309
884.448975,331
884.565796,304
884.682678,323
884.7995,323
884.916443,318
885.033264,317
885.150085,326
885.266968,308
885.383789,312
885.500671,322
885.617493,336
885.734314,312
885.851196,339
885.967896,313
886.084717,325
886.201599,315
886.318359,315
886.435181,320
886.552002,314
886.668762,320
886.785645,321
886.902344,320
887.019165,344
887.135925,313
887.252747,318
887.369446,304
887.486267,314
887.603027,325
887.719788,318
887.836548,319
887.953247,325
888.070068,316
888.186829,330
888.303528,306
888.420288,318
888.536987,321
888.653687,320
888.770447,317
888.887146,318
889.003967,318
889.120667,306
889.237305,319
889.354065,321
889.470703,308
889.587463,317
889.704163,321
889.820862,312
889.937561,322
890.054199,318
890.170837,323
890.287598,321
890.404236,317
890.520874,311
890.637634,308
890.754211,323
890.87085,318
890.987549,324
891.104187,317
891.220886,307
891.337463,321
891.454102,325
891.57074,319
891.687378,317
891.804077,311
891.920654,322
892.037231,314
892.15387,313
892.270447,320
892.387085,315
892.503723,327
892.6203,323
892.736877,313
892.853516,327
892.970032,318
893.08667,323
893.203186,329
893.319763,320
893.43634,320
893.552917,318
893.669556,326
893.786011,318
893.902588,316
894.019165,319
894.135681,322
894.252197,328
894.368835,313
894.485291,319
894.601868,302
894.718384,322
894.8349,297
894.951355,321
895.067932,296
895.184448,325
895.300964,313
895.417419,326
895.533936,299
895.650452,324
895.766907,309
895.883423,328
895.999878,311
896.116333,318
896.232849,314
896.349304,315
896.465759,321
896.582214,328
896.698669,334
896.815125,305
896.931641,325
897.048035,323
897.164551,322
897.280884,313
897.397339,306
897.513794,313
897.630249,318
897.746582,310
897.863098,321
897.979431,320
898.095886,319
898.212341,311
898.328674,328
898.445129,315
898.561462,315
898.677795,324
898.794312,311
898.910645,341
899.026978,307
899.143433,329
899.259766,321
899.37616,310
899.492493,314
899.608765,323
899.725159,321
899.841553,325
899.957947,315
900.07428,319
900.190552,312
900.306946,314
900.423157,307
900.53949,313
900.655884,323
900.772156,322
900.888489,333
901.004822,310
901.121033,320
901.237366,331
901.353699,309
901.46991,312
901.586304,319
901.702515,325
901.818787,321
901.93512,317
902.051331,314
902.167603,317
902.283875,327
902.400085,320
902.516418,308
902.632629,321
902.74884,310
902.865112,311
902.981384,322
903.097595,314
903.213867,310
903.330017,334
903.446289,326
903.5625,316
903.67865,320
903.794922,329
903.911072,321
904.027344,320
904.143494,316
904.259705,324
904.375916,320
904.492065,317
904.608215,329
904.724426,312
904.840576,328
904.956726,305
905.072876,315
905.189087,335
905.305176,322
905.421387,316
905.537537,307
905.653687,310
905.769775,321
905.885925,312
906.002014,315
906.118164,324
906.234314,338
906.350403,309
906.466492,332
906.582642,325
906.69873,298
906.814758,325
906.930908,316
907.046936,315
907.163086,309
907.279175,311
907.395264,319
907.511353,307
907.62738,322
907.743408,316
907.859497,317
907.975525,317
908.091553,319
908.207703,324
908.32373,323
908.439758,312
908.555786,307
908.671814,325
908.787842,309
908.90387,314
909.019775,325
909.135864,324
909.251892,304
909.367859,320
909.483826,312
909.599854,319
909.715881,324
909.831848,320
909.947815,320
910.063782,318
910.179749,322
910.295776,315
910.411743,310
910.527649,324
910.643616,314
910.759583,316
910.875488,321
910.991455,325
911.107361,323
911.223267,309
911.339294,327
911.4552,320
911.571106,314
911.687073,334
911.802979,301
911.918823,315
912.034729,318
912.150635,316
912.266602,305
912.382446,318
912.498352,324
912.614197,323
912.730103,300
912.846008,317
