792.44574,320
792.56488,353
792.68396,398
792.80304,387
792.92218,338
793.041199,323
793.160339,323
793.279419,354
793.398499,328
793.517578,315
793.636658,326
793.755737,348
793.874817,362
793.993896,351
794.112976,324
794.232056,336
794.351074,315
794.470215,332
794.589233,320
794.708313,325
794.827393,328
794.946411,339
795.065552,354
795.18457,335
795.303589,330
795.422668,339
795.541687,327
795.660767,331
795.779846,329
795.898865,309
796.017883,334
796.136963,322
796.255981,329
796.375061,343
796.49408,331
796.613037,321
796.732117,330
796.851135,327
796.970154,333
797.089233,330
797.208191,333
797.327271,336
797.446228,324
797.565186,324
797.684265,325
797.803223,341
797.922241,324
798.04126,329
798.160278,328
798.279297,341
798.398315,325
798.517273,327
798.636292,329
798.75531,324
798.874268,337
798.993286,320
799.112244,331
799.231323,330
799.350281,326
799.469238,321
799.588257,335
799.707153,334
799.826111,326
799.945129,324
800.064087,333
800.183044,321
800.302063,340
800.421021,329
800.539978,325
800.658936,331
800.777893,323
800.896912,336
801.015747,338
801.134705,338
801.253723,339
801.37262,334
801.491638,317
801.610535,326
801.729492,325
801.84845,327
801.967407,331
802.086243,342
802.205261,327
802.324158,314
802.443115,332
802.562073,324
802.680969,331
802.799927,330
802.918762,325
803.037659,313
803.156677,320
803.275574,324
803.39447,338
803.513428,331
803.632263,331
803.751221,326
803.870117,331
803.989014,328
804.107971,312
804.226746,317
804.345642,324
804.4646,328
804.583496,333
804.702393,326
804.821228,319
804.940125,333
805.059021,321
805.177917,328
805.296814,318
805.415649,322
805.534546,323
805.653442,339
805.772278,328
805.891113,330
806.01001,345
806.128906,327
806.247742,330
806.366577,342
806.485413,326
806.604309,329
806.723145,323
806.84198,335
806.960876,328
807.079712,338
807.198486,332
807.317383,339
807.436218,330
807.554993,331
807.673889,332
807.792725,320
807.91156,326
808.030396,316
808.14917,326
808.268005,337
808.386841,324
808.505676,329
808.624451,344
808.743286,323
808.862122,345
808.980896,325
809.099731,337
809.218506,320
809.337341,335
809.456116,330
809.57489,329
809.693726,328
809.8125,348
809.931274,326
810.050049,336
810.168884,331
810.287659,334
810.406372,345
810.525269,332
810.643982,315
810.762756,328
810.881531,324
811.000305,332
811.11908,333
811.237854,329
811.356567,326
811.475403,326
811.594116,328
811.71283,324
811.831604,334
811.950378,340
812.069153,327
812.187927,353
812.30658,332
812.425415,330
812.544128,321
812.662781,354
812.781616,333
812.900269,322
813.019043,334
813.137756,331
813.256531,319
813.375244,342
813.493896,324
813.612671,325
813.731384,332
813.850037,321
813.96875,321
814.087524,331
814.206238,326
814.324951,331
814.443604,334
814.562256,342
814.68103,317
814.799683,329
814.918335,344
815.037109,325
815.155762,344
815.274475,333
815.393188,324
815.511841,333
815.630554,345
815.749146,334
815.867859,330
815.986572,341
816.105164,318
816.223877,330
816.342529,318
816.461182,333
816.579895,332
816.698486,327
816.817139,343
816.935791,325
817.054504,331
817.173096,312
817.291748,331
817.4104,324
817.529053,324
817.647644,324
817.766235,336
817.884949,321
818.00354,334
818.122192,327
818.240845,321
818.359436,325
818.478088,312
818.59668,308
818.715271,320
818.833923,325
818.952515,326
819.071106,328
819.189758,326
819.30835,309
819.426941,330
819.545532,323
819.664124,334
819.782715,325
819.901306,321
820.019897,314
820.138489,324
820.25708,326
820.375671,325
820.494202,321
820.612732,322
820.731384,333
820.849915,325
820.968506,322
821.087097,324
821.205627,312
821.324158,308
821.442749,311
821.561279,309
821.679871,328
821.798401,323
821.916931,315
822.035461,316
822.154053,317
822.272583,320
822.391174,318
822.509583,332
822.628174,314
822.746704,317
822.865234,312
822.983765,307
823.102295,318
823.220825,326
823.339294,313
823.457825,324
823.576355,319
823.694824,321
823.813354,320
823.931885,318
824.050354,327
824.168884,327
824.287354,313
824.405823,315
824.524353,323
824.642822,336
824.761353,318
824.879822,327
824.998291,318
825.116699,324
825.235291,311
825.353699,329
825.472168,322
825.590637,320
825.709106,329
825.827576,328
825.946045,311
826.064453,335
826.182983,316
826.301392,315
826.4198,325
826.53833,326
826.656738,316
826.775208,310
826.893677,319
827.012024,324
827.130493,321
827.248962,320
827.36731,322
827.485779,326
827.604248,314
827.722595,317
827.841064,320
827.959412,320
828.077942,313
828.196289,316
828.314636,315
828.433105,324
828.551514,320
828.669861,317
828.78833,315
828.906677,330
829.025085,312
829.143433,305
829.261841,312
829.38031,307
829.498657,317
829.617004,316
829.735413,319
829.85376,321
829.972107,342
830.090515,313
830.208862,300
830.327209,315
830.445557,309
830.563904,317
830.682312,321
830.800659,323
830.919006,320
831.037354,307
831.155701,318
831.274048,322
831.392395,314
831.51062,325
831.629028,307
831.747314,314
831.865662,325
831.984009,323
832.102356,318
832.220642,310
832.338928,330
832.457275,320
832.575623,303
832.693909,325
832.812134,317
832.930481,316
833.048828,313
833.167114,313
833.2854,319
833.403687,324
833.521973,311
833.640259,317
833.758545,316
833.876831,321
833.995056,327
834.113281,324
834.231628,316
834.349915,328
834.468201,313
834.586426,325
834.704651,309
834.822998,328
834.941162,316
835.059448,314
835.177673,317
835.295959,320
835.414246,314
835.53241,306
835.650635,317
835.768921,318
835.887146,311
836.005371,313
836.123596,307
836.241821,305
836.360046,325
836.478271,324
836.596497,321
836.714722,315
836.832886,315
836.95105,314
837.069336,317
837.1875,330
837.305725,325
837.423889,320
837.542053,324
837.660339,318
837.778503,320
837.896667,296
838.014832,334
838.132996,324
838.25116,323
838.369385,313
838.487488,307
838.605713,330
838.723877,323
838.84198,311
838.960205,319
839.078308,315
839.196472,310
839.314636,332
839.4328,305
839.550964,323
839.669067,316
839.787231,337
839.905396,320
840.023499,305
840.141602,325
840.259766,311
840.377869,323
840.495972,328
840.614136,315
840.732239,320
840.850342,320
840.968445,313
841.086548,306
841.204651,335
841.322754,315
841.440918,316
841.55896,330
841.677002,314
841.795166,319
841.913208,312
842.031311,326
842.149353,327
842.267456,301
842.385498,330
842.503601,324
842.621643,321
842.739746,318
842.857788,316
842.97583,316
843.093933,307
843.211975,324
843.330017,327
843.44812,305
843.566101,322
843.684204,307
843.802246,324
843.920227,307
844.038269,320
844.156311,314
844.274292,319
844.392395,325
844.510376,324
844.628357,311
844.74646,303
844.864441,327
844.982422,310
845.100403,309
845.218384,326
845.336426,326
845.454468,317
845.572449,317
845.69043,303
845.808411,314
845.926453,322
846.044373,325
846.162354,318
846.280396,320
846.398315,317
846.516296,319
846.634216,323
846.752197,320
846.870178,308
846.988098,302
847.106079,318
847.22406,304
847.34198,331
847.4599,309
847.577881,306
847.695801,312
847.813782,306
847.931641,311
848.049561,327
848.167603,311
848.285461,323
848.403381,323
848.521362,320
848.639221,313
848.75708,325
848.875,323
848.99292,315
849.110901,309
849.22876,317
849.34668,308
849.464539,335
849.582458,312
849.700317,324
849.818176,310
849.936096,322
850.053955,318
850.171875,316
850.289673,309
850.407593,331
850.525452,314
850.643311,329
850.761169,309
850.878967,317
850.996887,314
851.114746,307
851.232544,321
851.350403,329
851.468262,311
851.58606,317
851.703979,318
851.821777,322
851.939636,307
852.057434,309
852.175232,316
852.293091,327
852.410889,311
852.528687,331
852.646545,308
852.764343,315
852.88208,325
852.999939,319
853.117676,317
853.235535,318
853.353271,315
853.471069,317
853.588928,321
853.706604,321
853.824402,316
853.9422,314
854.059998,309
854.177734,327
854.295532,312
854.413269,311
854.531006,308
854.648804,317
854.766541,333
854.884277,322
855.002014,308
855.119751,325
855.237549,305
855.355225,315
855.473022,323
855.590698,315
855.708435,316
855.826172,314
855.943848,311
856.061646,322
856.179321,311
856.296997,320
856.414795,326
856.53241,313
856.650085,327
856.767822,315
856.885559,319
857.003174,323
857.120911,323
857.238586,309
857.356201,314
857.473938,313
857.591614,332
857.709351,324
857.826965,313
857.944641,312
858.062317,328
858.179993,329
858.297668,318
858.415283,326
858.532959,315
858.650574,318
858.768188,314
858.885803,327
859.003479,321
859.121094,326
859.23877,315
859.356384,303
859.473999,328
859.591675,316
859.709229,321
859.826843,333
859.944458,321
860.062012,318
860.179626,308
860.297302,311
860.414856,317
860.532471,318
860.650024,321
860.767639,323
860.885193,318
861.002808,324
861.120361,321
861.237976,333
861.35553,319
861.473022,322
861.590698,319
861.708191,325
861.825745,316
861.943298,319
862.060852,312
862.178406,329
862.295959,314
862.413513,316
862.531006,311
862.64856,334
862.766113,326
862.883667,310
863.00116,306
863.118713,319
863.236206,329
863.353699,318
863.471252,323
863.588745,321
863.706177,323
863.82373,317
863.941162,325
864.058716,314
864.176208,324
864.29364,325
864.411194,330
864.528687,315
864.646118,311
864.763611,320
864.881042,316
864.998535,316
865.116028,321
865.233459,327
865.350891,318
865.468384,313
865.585754,320
865.703308,314
865.820679,310
865.938171,312
866.055542,317
866.173035,322
866.290466,326
866.407837,324
866.52533,330
866.6427,324
866.760071,314
866.877563,332
866.994934,306
867.112305,332
867.229736,326
867.347107,326
867.464539,330
867.58197,319
867.699341,317
867.81665,309
867.934082,319
868.051453,332
868.168823,309
868.286194,323
868.403564,320
868.520935,324
868.638306,317
868.755676,314
868.872986,316
868.990295,329
869.107727,316
869.225037,316
869.342346,327
869.459717,316
869.577026,309
869.694336,315
869.811707,313
869.929016,306
870.046326,322
870.163635,328
870.280945,313
870.398254,318
870.515564,321
870.632812,326
870.750183,330
870.867432,326
870.984741,312
871.102051,325
871.219299,313
871.336609,323
871.453918,325
871.571106,314
871.688416,320
871.805664,318
871.922852,311
872.040222,308
872.157471,308
872.274719,325
872.391968,313
872.509155,310
872.626465,315
872.743652,317
872.860962,317
872.978149,321
873.095337,310
873.212646,318
873.329834,324
873.44696,323
873.564209,341
873.681396,318
873.798645,315
873.915894,325
874.03302,318
874.150208,312
874.267456,320
874.384583,317
874.501831,314
874.618958,319
874.736145,323
874.853333,325
874.970459,307
875.087646,323
875.204834,329
875.32196,316
875.439148,313
875.556274,316
875.673401,322
875.790527,317
875.907715,313
876.024841,323
876.141968,322
876.259094,326
876.376282,321
876.493347,318
876.610474,323
876.7276,313
876.844727,313
876.961853,317
877.078918,321
877.195984,310
877.313171,316
877.430237,330
877.547302,312
877.664368,316
877.781433,302
877.898499,317
878.015625,314
878.13269,326
878.249695,299
878.366821,322
878.483887,318
878.600952,323
878.717957,320
878.834961,332
878.952087,316
879.069092,317
879.186157,307
879.303162,321
879.420227,340
879.537231,317
879.654236,303
879.77124,324
879.888306,321
880.005249,321
880.122314,323
880.239319,329
880.356323,330
880.473328,317
880.590271,319
880.707275,331
880.824341,302
880.941284,321
881.058228,319
881.175232,328
881.292236,324
881.40918,321
881.526123,336
881.643066,329
881.760071,321
881.877014,322
881.993958,311
882.11084,324
882.227783,307
882.344727,326
882.46167,310
882.578613,333
882.695618,316
882.812439,313
882.929382,308
883.046326,316
883.163208,301
883.280151,329
883.397034,324
883.513916,307
883.630798,314
883.747742,331
883.864563,317
883.981506,325
884.098389,322
884.21521,325
884.332153,320
884.448975,322
884.565796,324
884.682678,318
884.7995,318
884.916443,311
885.033264,323
885.150085,331
885.266968,313
885.383789,309
885.500671,313
885.617493,342
885.734314,324
885.851196,328
885.967896,316
886.084717,332
886.201599,331
886.318359,317
886.435181,319
886.552002,321
886.668762,304
886.785645,331
886.902344,328
887.019165,327
887.135925,314
887.252747,320
887.369446,312
887.486267,319
887.603027,326
887.719788,324
887.836548,318
887.953247,309
888.070068,332
888.186829,323
888.303528,320
888.420288,311
888.536987,313
888.653687,318
888.770447,319
888.887146,321
889.003967,305
889.120667,332
889.237305,320
889.354065,323
889.470703,315
889.587463,309
889.704163,330
889.820862,307
889.937561,311
890.054199,317
890.170837,308
890.287598,325
890.404236,315
890.520874,323
890.637634,316
890.754211,325
890.87085,322
890.987549,320
891.104187,326
891.220886,326
891.337463,312
891.454102,328
891.57074,317
891.687378,319
891.804077,325
891.920654,319
892.037231,324
892.15387,314
892.270447,312
892.387085,319
892.503723,317
892.6203,323
892.736877,296
892.853516,328
892.970032,304
893.08667,323
893.203186,319
893.319763,311
893.43634,326
893.552917,335
893.669556,311
893.786011,320
893.902588,312
894.019165,319
894.135681,318
894.252197,317
894.368835,315
894.485291,318
894.601868,318
894.718384,320
894.8349,312
894.951355,321
895.067932,312
895.184448,321
895.300964,324
895.417419,319
895.533936,323
895.650452,320
895.766907,309
895.883423,318
895.999878,320
896.116333,316
896.232849,327
896.349304,320
896.465759,317
896.582214,324
896.698669,317
896.815125,321
896.931641,319
897.048035,330
897.164551,323
897.280884,315
897.397339,305
897.513794,314
897.630249,314
897.746582,332
897.863098,324
897.979431,326
898.095886,321
898.212341,317
898.328674,317
898.445129,326
898.561462,330
898.677795,318
898.794312,322
898.910645,320
899.026978,310
899.143433,320
899.259766,312
899.37616,326
899.492493,312
899.608765,322
899.725159,306
899.841553,323
899.957947,317
900.07428,320
900.190552,312
900.306946,318
900.423157,318
900.53949,328
900.655884,311
900.772156,298
900.888489,314
901.004822,318
901.121033,296
901.237366,324
901.353699,330
901.46991,314
901.586304,318
901.702515,327
901.818787,312
901.93512,330
902.051331,290
902.167603,317
902.283875,322
902.400085,324
902.516418,321
902.632629,317
902.74884,317
902.865112,326
902.981384,319
903.097595,317
903.213867,305
903.330017,315
903.446289,311
903.5625,312
903.67865,313
903.794922,310
903.911072,312
904.027344,307
904.143494,316
904.259705,329
904.375916,314
904.492065,333
904.608215,336
904.724426,299
904.840576,314
904.956726,310
905.072876,313
905.189087,324
905.305176,310
905.421387,331
905.537537,313
905.653687,319
905.769775,315
905.885925,328
906.002014,325
906.118164,336
906.234314,319
906.350403,323
906.466492,318
906.582642,325
906.69873,318
906.814758,317
906.930908,330
907.046936,312
907.163086,326
907.279175,319
907.395264,322
907.511353,332
907.62738,328
907.743408,317
907.859497,321
907.975525,324
908.091553,318
908.207703,322
908.32373,327
908.439758,329
908.555786,312
908.671814,321
908.787842,303
908.90387,321
909.019775,314
909.135864,329
909.251892,325
909.367859,321
909.483826,329
909.599854,316
909.715881,325
909.831848,322
909.947815,309
910.063782,321
910.179749,303
910.295776,321
910.411743,323
910.527649,323
910.643616,324
910.759583,303
910.875488,324
910.991455,315
911.107361,307
911.223267,319
911.339294,309
911.4552,330
911.571106,322
911.687073,316
911.802979,323
911.918823,321
912.034729,315
912.150635,335
912.266602,317
912.382446,329
912.498352,325
912.614197,321
912.730103,317
912.846008,304
792.44574,322
792.56488,347
792.68396,403
792.80304,396
792.92218,331
793.041199,331
793.160339,320
793.279419,346
793.398499,342
793.517578,320
793.636658,327
793.755737,329
793.874817,344
793.993896,365
794.112976,329
794.232056,334
794.351074,326
794.470215,343
794.589233,330
794.708313,320
794.827393,320
794.946411,341
795.065552,345
795.18457,337
795.303589,335
795.422668,329
795.541687,334
795.660767,334
795.779846,338
795.898865,327
796.017883,342
796.136963,310
796.255981,330
796.375061,332
796.49408,340
796.613037,342
796.732117,317
796.851135,335
796.970154,332
797.089233,328
797.208191,315
797.327271,328
797.446228,332
797.565186,325
797.684265,339
797.803223,326
797.922241,321
798.04126,323
798.160278,335
798.279297,315
798.398315,314
798.517273,327
798.636292,323
798.75531,330
798.874268,339
798.993286,332
799.112244,339
799.231323,319
799.350281,316
799.469238,343
799.588257,324
799.707153,340
799.826111,335
799.945129,322
800.064087,323
800.183044,315
800.302063,343
800.421021,329
800.539978,328
800.658936,333
800.777893,324
800.896912,322
801.015747,327
801.134705,330
801.253723,332
801.37262,340
801.491638,342
801.610535,319
801.729492,344
801.84845,324
801.967407,335
802.086243,318
802.205261,327
802.324158,327
802.443115,326
802.562073,341
802.680969,322
802.799927,337
802.918762,341
803.037659,327
803.156677,329
803.275574,326
803.39447,332
803.513428,334
803.632263,327
803.751221,331
803.870117,321
803.989014,325
804.107971,332
804.226746,333
804.345642,338
804.4646,317
804.583496,331
804.702393,326
804.821228,348
804.940125,329
805.059021,316
805.177917,347
805.296814,330
805.415649,328
805.534546,325
805.653442,343
805.772278,328
805.891113,328
806.01001,337
806.128906,337
806.247742,340
806.366577,326
806.485413,322
806.604309,331
806.723145,329
806.84198,328
806.960876,332
807.079712,339
807.198486,342
807.317383,310
807.436218,323
807.554993,331
807.673889,326
807.792725,326
807.91156,340
808.030396,333
808.14917,343
808.268005,323
808.386841,341
808.505676,321
808.624451,338
808.743286,319
808.862122,340
808.980896,328
809.099731,328
809.218506,333
809.337341,332
809.456116,345
809.57489,326
809.693726,340
809.8125,331
809.931274,315
810.050049,331
810.168884,346
810.287659,325
810.406372,331
810.525269,327
810.643982,340
810.762756,342
810.881531,339
811.000305,330
811.11908,317
811.237854,322
811.356567,340
811.475403,324
811.594116,327
811.71283,320
811.831604,329
811.950378,336
812.069153,326
812.187927,330
812.30658,330
812.425415,335
812.544128,330
812.662781,330
812.781616,335
812.900269,329
813.019043,333
813.137756,338
813.256531,330
813.375244,333
813.493896,321
813.612671,336
813.731384,329
813.850037,323
813.96875,331
814.087524,330
814.206238,324
814.324951,317
814.443604,333
814.562256,309
814.68103,339
814.799683,310
814.918335,331
815.037109,323
815.155762,324
815.274475,327
815.393188,330
815.511841,327
815.630554,330
815.749146,330
815.867859,342
815.986572,317
816.105164,335
816.223877,321
816.342529,314
816.461182,324
816.579895,334
816.698486,329
816.817139,329
816.935791,341
817.054504,327
817.173096,327
817.291748,331
817.4104,326
817.529053,337
817.647644,335
817.766235,326
817.884949,339
818.00354,318
818.122192,333
818.240845,325
818.359436,325
818.478088,335
818.59668,322
818.715271,332
818.833923,300
818.952515,335
819.071106,318
819.189758,317
819.30835,325
819.426941,320
819.545532,316
819.664124,322
819.782715,315
819.901306,326
820.019897,324
820.138489,341
820.25708,332
820.375671,325
820.494202,329
820.612732,329
820.731384,322
820.849915,311
820.968506,314
821.087097,327
821.205627,321
821.324158,322
821.442749,324
821.561279,332
821.679871,311
821.798401,326
821.916931,328
822.035461,320
822.154053,316
822.272583,308
822.391174,323
822.509583,323
822.628174,335
822.746704,321
822.865234,323
822.983765,322
823.102295,310
823.220825,316
823.339294,314
823.457825,317
823.576355,302
823.694824,321
823.813354,324
823.931885,314
824.050354,320
824.168884,318
824.287354,316
824.405823,321
824.524353,316
824.642822,310
824.761353,328
824.879822,326
824.998291,317
825.116699,323
825.235291,335
825.353699,322
825.472168,311
825.590637,321
825.709106,320
825.827576,318
825.946045,313
826.064453,321
826.182983,323
826.301392,300
826.4198,326
826.53833,320
826.656738,320
826.775208,326
826.893677,306
827.012024,321
827.130493,315
827.248962,314
827.36731,320
827.485779,317
827.604248,322
827.722595,315
827.841064,315
827.959412,309
828.077942,324
828.196289,307
828.314636,314
828.433105,320
828.551514,314
828.669861,307
828.78833,334
828.906677,312
829.025085,317
829.143433,335
829.261841,320
829.38031,310
829.498657,311
829.617004,324
829.735413,312
829.85376,320
829.972107,327
830.090515,317
830.208862,311
830.327209,330
830.445557,315
830.563904,330
830.682312,319
830.800659,320
830.919006,315
831.037354,320
831.155701,316
831.274048,330
831.392395,320
831.51062,316
831.629028,317
831.747314,320
831.865662,320
831.984009,317
832.102356,316
832.220642,331
832.338928,307
832.457275,318
832.575623,317
832.693909,317
832.812134,312
832.930481,322
833.048828,317
833.167114,345
833.2854,317
833.403687,319
833.521973,311
833.640259,328
833.758545,314
833.876831,316
833.995056,315
834.113281,317
834.231628,302
834.349915,325
834.468201,330
834.586426,314
834.704651,326
834.822998,316
834.941162,333
835.059448,315
835.177673,307
835.295959,312
835.414246,328
835.53241,325
835.650635,311
835.768921,305
835.887146,314
836.005371,318
836.123596,320
836.241821,321
836.360046,312
836.478271,327
836.596497,322
836.714722,326
836.832886,312
836.95105,323
837.069336,310
837.1875,322
837.305725,322
837.423889,329
837.542053,316
837.660339,318
837.778503,312
837.896667,328
838.014832,320
838.132996,319
838.25116,317
838.369385,331
838.487488,323
838.605713,325
838.723877,294
838.84198,322
838.960205,313
839.078308,335
839.196472,319
839.314636,315
839.4328,314
839.550964,323
839.669067,322
839.787231,327
839.905396,305
840.023499,319
840.141602,326
840.259766,325
840.377869,313
840.495972,323
840.614136,308
840.732239,317
840.850342,323
840.968445,322
841.086548,326
841.204651,303
841.322754,318
841.440918,303
841.55896,320
841.677002,332
841.795166,317
841.913208,321
842.031311,326
842.149353,317
842.267456,320
842.385498,312
842.503601,306
842.621643,326
842.739746,318
842.857788,309
842.97583,317
843.093933,319
843.211975,316
843.330017,320
843.44812,319
843.566101,315
843.684204,308
843.802246,315
843.920227,315
844.038269,314
844.156311,325
844.274292,320
844.392395,317
844.510376,339
844.628357,312
844.74646,326
844.864441,327
844.982422,330
845.100403,315
845.218384,319
845.336426,311
845.454468,319
845.572449,316
845.69043,313
845.808411,329
845.926453,320
846.044373,323
846.162354,322
846.280396,318
846.398315,312
846.516296,309
846.634216,313
846.752197,321
846.870178,315
846.988098,327
847.106079,310
847.22406,313
847.34198,322
847.4599,327
847.577881,324
847.695801,300
847.813782,317
847.931641,305
848.049561,318
848.167603,317
848.285461,321
848.403381,318
848.521362,320
848.639221,321
848.75708,309
848.875,315
848.99292,304
849.110901,332
849.22876,326
849.34668,315
849.464539,317
849.582458,313
849.700317,315
849.818176,326
849.936096,315
850.053955,329
850.171875,317
850.289673,324
850.407593,322
850.525452,317
850.643311,317
850.761169,315
850.878967,332
850.996887,311
851.114746,314
851.232544,311
851.350403,307
851.468262,313
851.58606,324
851.703979,305
851.821777,319
851.939636,315
852.057434,317
852.175232,317
852.293091,322
852.410889,322
852.528687,322
852.646545,317
852.764343,323
852.88208,318
852.999939,320
853.117676,315
853.235535,316
853.353271,322
853.471069,321
853.588928,316
853.706604,318
853.824402,320
853.9422,319
854.059998,325
854.177734,318
854.295532,308
854.413269,320
854.531006,317
854.648804,311
854.766541,318
854.884277,319
855.002014,321
855.119751,307
855.237549,316
855.355225,317
855.473022,317
855.590698,326
855.708435,320
855.826172,301
855.943848,321
856.061646,309
856.179321,314
856.296997,322
856.414795,314
856.53241,315
856.650085,321
856.767822,318
856.885559,327
857.003174,307
857.120911,307
857.238586,323
857.356201,312
857.473938,320
857.591614,309
857.709351,336
857.826965,311
857.944641,323
858.062317,313
858.179993,314
858.297668,321
858.415283,329
858.532959,304
858.650574,327
858.768188,323
858.885803,314
859.003479,325
859.121094,322
859.23877,310
859.356384,314
859.473999,319
859.591675,326
859.709229,309
859.826843,327
859.944458,306
860.062012,318
860.179626,320
860.297302,320
860.414856,321
860.532471,305
860.650024,322
860.767639,327
860.885193,319
861.002808,318
861.120361,309
861.237976,325
861.35553,310
861.473022,322
861.590698,322
861.708191,318
861.825745,310
861.943298,314
862.060852,319
862.178406,314
862.295959,325
862.413513,330
862.531006,322
862.64856,316
862.766113,320
862.883667,311
863.00116,311
863.118713,319
863.236206,324
863.353699,322
863.471252,317
863.588745,327
863.706177,324
863.82373,312
863.941162,319
864.058716,321
864.176208,300
864.29364,334
864.411194,313
864.528687,314
864.646118,318
864.763611,325
864.881042,309
864.998535,313
865.116028,315
865.233459,305
865.350891,311
865.468384,307
865.585754,319
865.703308,320
865.820679,309
865.938171,331
866.055542,317
866.173035,323
866.290466,319
866.407837,316
866.52533,321
866.6427,307
866.760071,309
866.877563,331
866.994934,320
867.112305,321
867.229736,315
867.347107,313
867.464539,310
867.58197,331
867.699341,311
867.81665,318
867.934082,316
868.051453,310
868.168823,316
868.286194,309
868.403564,325
868.520935,329
868.638306,309
868.755676,323
868.872986,304
868.990295,320
869.107727,332
869.225037,333
869.342346,316
869.459717,318
869.577026,316
869.694336,320
869.811707,316
869.929016,315
870.046326,322
870.163635,313
870.280945,328
870.398254,316
870.515564,303
870.632812,326
870.750183,303
870.867432,325
870.984741,318
871.102051,319
871.219299,305
871.336609,310
871.453918,311
871.571106,317
871.688416,311
871.805664,316
871.922852,319
872.040222,326
872.157471,329
872.274719,317
872.391968,318
872.509155,305
872.626465,320
872.743652,314
872.860962,314
872.978149,324
873.095337,311
873.212646,323
873.329834,307
873.44696,324
873.564209,304
873.681396,333
873.798645,331
873.915894,322
874.03302,317
874.150208,322
874.267456,315
874.384583,331
874.501831,325
874.618958,318
874.736145,331
874.853333,324
874.970459,321
875.087646,324
875.204834,318
875.32196,327
875.439148,307
875.556274,331
875.673401,325
875.790527,310
875.907715,315
876.024841,309
876.141968,304
876.259094,314
876.376282,314
876.493347,318
876.610474,308
876.7276,320
876.844727,322
876.961853,334
877.078918,316
877.195984,320
877.313171,313
877.430237,310
877.547302,309
877.664368,308
877.781433,326
877.898499,316
878.015625,315
878.13269,313
878.249695,318
878.366821,328
878.483887,323
878.600952,331
878.717957,314
878.834961,314
878.952087,313
879.069092,333
879.186157,325
879.303162,325
879.420227,320
879.537231,324
879.654236,307
879.77124,320
879.888306,305
880.005249,332
880.122314,318
880.239319,338
880.356323,317
880.473328,314
880.590271,314
880.707275,320
880.824341,314
880.941284,313
881.058228,319
881.175232,331
881.292236,324
881.40918,319
881.526123,316
881.643066,315
881.760071,326
881.877014,328
881.993958,316
882.11084,319
882.227783,314
882.344727,304
882.46167,317
882.578613,321
882.695618,319
882.812439,321
882.929382,314
883.046326,312
883.163208,308
883.280151,313
883.397034,315
883.513916,323
883.630798,305
883.747742,331
883.864563,328
883.981506,330
884.098389,318
884.21521,322
884.332153,314
884.448975,321
884.565796,314
884.682678,328
884.7995,314
884.916443,316
885.033264,323
885.150085,322
885.266968,317
885.383789,300
885.500671,325
885.617493,324
885.734314,321
885.851196,334
885.967896,322
886.084717,324
886.201599,330
886.318359,312
886.435181,322
886.552002,321
886.668762,314
886.785645,321
886.902344,315
887.019165,308
887.135925,319
887.252747,324
887.369446,310
887.486267,322
887.603027,315
887.719788,308
887.836548,325
887.953247,319
888.070068,323
888.186829,305
888.303528,312
888.420288,328
888.536987,315
888.653687,326
888.770447,327
888.887146,326
889.003967,316
889.120667,318
889.237305,308
889.354065,322
889.470703,319
889.587463,307
889.704163,321
889.820862,325
889.937561,324
890.054199,330
890.170837,322
890.287598,324
890.404236,318
890.520874,314
890.637634,304
890.754211,342
890.87085,329
890.987549,326
891.104187,316
891.220886,324
891.337463,323
891.454102,319
891.57074,319
891.687378,320
891.804077,323
891.920654,302
892.037231,325
892.15387,313
892.270447,319
892.387085,321
892.503723,308
892.6203,322
892.736877,313
892.853516,323
892.970032,309
893.08667,335
893.203186,318
893.319763,331
893.43634,328
893.552917,311
893.669556,315
893.786011,313
893.902588,331
894.019165,316
894.135681,308
894.252197,321
894.368835,330
894.485291,317
894.601868,327
894.718384,312
894.8349,319
894.951355,324
895.067932,311
895.184448,315
895.300964,325
895.417419,324
895.533936,317
895.650452,322
895.766907,316
895.883423,317
895.999878,317
896.116333,322
896.232849,316
896.349304,321
896.465759,303
896.582214,317
896.698669,319
896.815125,317
896.931641,316
897.048035,317
897.164551,326
897.280884,316
897.397339,326
897.513794,315
897.630249,319
897.746582,320
897.863098,331
897.979431,307
898.095886,316
898.212341,322
898.328674,300
898.445129,316
898.561462,315
898.677795,320
898.794312,316
898.910645,326
899.026978,323
899.143433,310
899.259766,325
899.37616,323
899.492493,327
899.608765,320
899.725159,300
899.841553,316
899.957947,317
900.07428,317
900.190552,323
900.306946,304
900.423157,315
900.53949,306
900.655884,317
900.772156,320
900.888489,310
901.004822,329
901.121033,318
901.237366,320
901.353699,313
901.46991,316
901.586304,311
901.702515,313
901.818787,334
901.93512,321
902.051331,317
902.167603,316
902.283875,314
902.400085,318
902.516418,323
902.632629,323
902.74884,316
902.865112,314
902.981384,316
903.097595,315
903.213867,308
903.330017,301
903.446289,311
903.5625,331
903.67865,333
903.794922,303
903.911072,326
904.027344,309
904.143494,318
904.259705,320
904.375916,310
904.492065,320
904.608215,317
904.724426,319
904.840576,320
904.956726,323
905.072876,323
905.189087,317
905.305176,313
905.421387,322
905.537537,323
905.653687,317
905.769775,315
905.885925,320
906.002014,333
906.118164,328
906.234314,332
906.350403,320
906.466492,325
906.582642,324
906.69873,319
906.814758,330
906.930908,311
907.046936,322
907.163086,309
907.279175,316
907.395264,328
907.511353,316
907.62738,314
907.743408,321
907.859497,317
907.975525,307
908.091553,313
908.207703,326
908.32373,323
908.439758,326
908.555786,310
908.671814,319
908.787842,329
908.90387,324
909.019775,319
909.135864,320
909.251892,326
909.367859,325
909.483826,317
909.599854,313
909.715881,327
909.831848,325
909.947815,307
910.063782,317
910.179749,305
910.295776,337
910.411743,329
910.527649,321
910.643616,320
910.759583,321
910.875488,327
910.991455,314
911.107361,322
911.223267,329
911.339294,320
911.4552,324
911.571106,313
911.687073,311
911.802979,315
911.918823,320
912.034729,316
912.150635,328
912.266602,319
912.382446,326
912.498352,312
912.614197,341
912.730103,322
912.846008,322
792.44574,312
792.56488,325
792.68396,388
792.80304,387
792.92218,342
793.041199,317
793.160339,328
793.279419,318
793.398499,336
793.517578,319
793.636658,312
793.755737,342
793.874817,348
793.993896,344
794.112976,333
794.232056,327
794.351074,323
794.470215,337
794.589233,343
794.708313,331
794.827393,333
794.946411,325
795.065552,354
795.18457,341
795.303589,338
795.422668,332
795.541687,338
795.660767,331
795.779846,327
795.898865,319
796.017883,335
796.136963,325
796.255981,318
796.375061,326
796.49408,324
796.613037,318
796.732117,342
796.851135,331
796.970154,331
797.089233,327
797.208191,326
797.327271,337
797.446228,337
797.565186,337
797.684265,337
797.803223,332
797.922241,330
798.04126,335
798.160278,339
798.279297,315
798.398315,321
798.517273,335
798.636292,330
798.75531,340
798.874268,334
798.993286,331
799.112244,339
799.231323,315
799.350281,331
799.469238,313
799.588257,331
799.707153,318
799.826111,323
799.945129,323
800.064087,325
800.183044,333
800.302063,334
800.421021,331
800.539978,342
800.658936,332
800.777893,319
800.896912,330
801.015747,333
801.134705,334
801.253723,326
801.37262,318
801.491638,338
801.610535,327
801.729492,338
801.84845,318
801.967407,335
802.086243,322
802.205261,337
802.324158,350
802.443115,337
802.562073,332
802.680969,331
802.799927,337
802.918762,337
803.037659,320
803.156677,325
803.275574,323
803.39447,345
803.513428,324
803.632263,335
803.751221,323
803.870117,318
803.989014,320
804.107971,329
804.226746,334
804.345642,326
804.4646,331
804.583496,330
804.702393,332
804.821228,322
804.940125,328
805.059021,331
805.177917,327
805.296814,334
805.415649,330
805.534546,321
805.653442,317
805.772278,331
805.891113,325
806.01001,322
806.128906,328
806.247742,342
806.366577,323
806.485413,332
806.604309,330
806.723145,344
806.84198,317
806.960876,338
807.079712,333
807.198486,317
807.317383,341
807.436218,326
807.554993,317
807.673889,336
807.792725,323
807.91156,327
808.030396,330
808.14917,318
808.268005,321
808.386841,338
808.505676,338
808.624451,329
808.743286,322
808.862122,326
808.980896,330
809.099731,321
809.218506,332
809.337341,327
809.456116,327
809.57489,324
809.693726,323
809.8125,329
809.931274,327
810.050049,321
810.168884,324
810.287659,330
810.406372,315
810.525269,331
810.643982,330
810.762756,320
810.881531,330
811.000305,335
811.11908,326
811.237854,325
811.356567,336
811.475403,336
811.594116,316
811.71283,333
811.831604,334
811.950378,322
812.069153,319
812.187927,336
812.30658,335
812.425415,325
812.544128,328
812.662781,313
812.781616,329
812.900269,341
813.019043,327
813.137756,318
813.256531,340
813.375244,334
813.493896,337
813.612671,341
813.731384,325
813.850037,346
813.96875,318
814.087524,328
814.206238,324
814.324951,324
814.443604,319
814.562256,330
814.68103,327
814.799683,339
814.918335,321
815.037109,335
815.155762,342
815.274475,329
815.393188,343
815.511841,332
815.630554,312
815.749146,327
815.867859,332
815.986572,337
816.105164,328
816.223877,334
816.342529,313
816.461182,321
816.579895,327
816.698486,340
816.817139,332
816.935791,325
817.054504,332
817.173096,329
817.291748,315
817.4104,329
817.529053,329
817.647644,335
817.766235,318
817.884949,309
818.00354,329
818.122192,337
818.240845,322
818.359436,324
818.478088,318
818.59668,323
818.715271,333
818.833923,331
818.952515,308
819.071106,337
819.189758,313
819.30835,326
819.426941,316
819.545532,319
819.664124,309
819.782715,319
819.901306,323
820.019897,322
820.138489,330
820.25708,336
820.375671,315
820.494202,330
820.612732,325
820.731384,328
820.849915,321
820.968506,324
821.087097,314
821.205627,332
821.324158,319
821.442749,322
821.561279,308
821.679871,327
821.798401,323
821.916931,314
822.035461,331
822.154053,323
822.272583,318
822.391174,323
822.509583,339
822.628174,333
822.746704,322
822.865234,316
822.983765,303
823.102295,326
823.220825,320
823.339294,325
823.457825,321
823.576355,322
823.694824,321
823.813354,322
823.931885,318
824.050354,311
824.168884,323
824.287354,322
824.405823,323
824.524353,318
824.642822,312
824.761353,327
824.879822,320
824.998291,306
825.116699,320
825.235291,323
825.353699,313
825.472168,320
825.590637,328
825.709106,311
825.827576,324
825.946045,313
826.064453,325
826.182983,309
826.301392,311
826.4198,325
826.53833,334
826.656738,322
826.775208,329
826.893677,324
827.012024,316
827.130493,309
827.248962,314
827.36731,316
827.485779,328
827.604248,318
827.722595,322
827.841064,315
827.959412,307
828.077942,319
828.196289,311
828.314636,322
828.433105,321
828.551514,329
828.669861,315
828.78833,327
828.906677,312
829.025085,322
829.143433,322
829.261841,315
829.38031,316
829.498657,308
829.617004,297
829.735413,319
829.85376,310
829.972107,326
830.090515,316
830.208862,321
830.327209,306
830.445557,319
830.563904,313
830.682312,326
830.800659,311
830.919006,316
831.037354,328
831.155701,313
831.274048,302
831.392395,317
831.51062,317
831.629028,333
831.747314,319
831.865662,327
831.984009,317
832.102356,316
832.220642,326
832.338928,322
832.457275,307
832.575623,329
832.693909,295
832.812134,312
832.930481,320
833.048828,320
833.167114,323
833.2854,322
833.403687,318
833.521973,308
833.640259,318
833.758545,318
833.876831,308
833.995056,310
834.113281,307
834.231628,329
834.349915,315
834.468201,322
834.586426,310
834.704651,324
834.822998,312
834.941162,329
835.059448,318
835.177673,327
835.295959,307
835.414246,333
835.53241,314
835.650635,317
835.768921,316
835.887146,319
836.005371,319
836.123596,320
836.241821,313
836.360046,312
836.478271,331
836.596497,319
836.714722,323
836.832886,319
836.95105,303
837.069336,308
837.1875,310
837.305725,330
837.423889,321
837.542053,322
837.660339,311
837.778503,311
837.896667,325
838.014832,330
838.132996,308
838.25116,308
838.369385,312
838.487488,334
838.605713,314
838.723877,304
838.84198,315
838.960205,325
839.078308,312
839.196472,318
839.314636,320
839.4328,333
839.550964,322
839.669067,316
839.787231,313
839.905396,323
840.023499,304
840.141602,322
840.259766,327
840.377869,310
840.495972,320
840.614136,317
840.732239,301
840.850342,323
840.968445,309
841.086548,305
841.204651,323
841.322754,327
841.440918,309
841.55896,323
841.677002,316
841.795166,329
841.913208,307
842.031311,326
842.149353,313
842.267456,313
842.385498,329
842.503601,320
842.621643,308
842.739746,325
842.857788,326
842.97583,337
843.093933,319
843.211975,321
843.330017,318
843.44812,314
843.566101,330
843.684204,317
843.802246,302
843.920227,319
844.038269,311
844.156311,320
844.274292,317
844.392395,323
844.510376,312
844.628357,318
844.74646,323
844.864441,318
844.982422,324
845.100403,315
845.218384,317
845.336426,314
845.454468,329
845.572449,322
845.69043,309
845.808411,327
845.926453,325
846.044373,315
846.162354,312
846.280396,326
846.398315,321
846.516296,332
846.634216,310
846.752197,328
846.870178,315
846.988098,322
847.106079,303
847.22406,316
847.34198,325
847.4599,323
847.577881,316
847.695801,304
847.813782,317
847.931641,305
848.049561,311
848.167603,319
848.285461,303
848.403381,314
848.521362,319
848.639221,318
848.75708,318
848.875,322
848.99292,318
849.110901,313
849.22876,326
849.34668,326
849.464539,313
849.582458,308
849.700317,314
849.818176,303
849.936096,315
850.053955,315
850.171875,310
850.289673,327
850.407593,333
850.525452,318
850.643311,312
850.761169,325
850.878967,315
850.996887,325
851.114746,298
851.232544,328
851.350403,329
851.468262,327
851.58606,318
851.703979,323
851.821777,320
851.939636,321
852.057434,320
852.175232,318
852.293091,319
852.410889,306
852.528687,324
852.646545,316
852.764343,311
852.88208,321
852.999939,308
853.117676,326
853.235535,327
853.353271,332
853.471069,310
853.588928,309
853.706604,318
853.824402,315
853.9422,325
854.059998,323
854.177734,316
854.295532,321
854.413269,310
854.531006,325
854.648804,314
854.766541,314
854.884277,313
855.002014,322
855.119751,312
855.237549,312
855.355225,318
855.473022,319
855.590698,334
855.708435,331
855.826172,308
855.943848,332
856.061646,327
856.179321,310
856.296997,305
856.414795,313
856.53241,325
856.650085,312
856.767822,315
856.885559,328
857.003174,308
857.120911,304
857.238586,311
857.356201,324
857.473938,318
857.591614,319
857.709351,324
857.826965,331
857.944641,318
858.062317,309
858.179993,322
858.297668,314
858.415283,327
858.532959,310
858.650574,317
858.768188,325
858.885803,318
859.003479,326
859.121094,311
859.23877,319
859.356384,312
859.473999,323
859.591675,312
859.709229,316
859.826843,326
859.944458,318
860.062012,325
860.179626,324
860.297302,313
860.414856,314
860.532471,313
860.650024,326
860.767639,312
860.885193,311
861.002808,317
861.120361,323
861.237976,307
861.35553,313
861.473022,319
861.590698,320
861.708191,325
861.825745,323
861.943298,304
862.060852,308
862.178406,311
862.295959,313
862.413513,330
862.531006,316
862.64856,310
862.766113,326
862.883667,304
863.00116,311
863.118713,313
863.236206,318
863.353699,327
863.471252,307
863.588745,316
863.706177,321
863.82373,318
863.941162,310
864.058716,307
864.176208,326
864.29364,311
864.411194,333
864.528687,312
864.646118,313
864.763611,312
864.881042,317
864.998535,324
865.116028,316
865.233459,308
865.350891,310
865.468384,306
865.585754,318
865.703308,316
865.820679,327
865.938171,332
866.055542,319
866.173035,314
866.290466,313
866.407837,325
866.52533,308
866.6427,322
866.760071,334
866.877563,302
866.994934,329
867.112305,313
867.229736,317
867.347107,317
867.464539,321
867.58197,311
867.699341,309
867.81665,311
867.934082,335
868.051453,313
868.168823,317
868.286194,315
868.403564,333
868.520935,313
868.638306,314
868.755676,320
868.872986,306
868.990295,324
869.107727,314
869.225037,327
869.342346,321
869.459717,316
869.577026,317
869.694336,325
869.811707,328
869.929016,321
870.046326,329
870.163635,323
870.280945,314
870.398254,317
870.515564,320
870.632812,316
870.750183,326
870.867432,325
870.984741,324
871.102051,321
871.219299,322
871.336609,321
871.453918,309
871.571106,313
871.688416,317
871.805664,307
871.922852,321
872.040222,324
872.157471,317
872.274719,318
872.391968,315
872.509155,306
872.626465,318
872.743652,321
872.860962,314
872.978149,323
873.095337,312
873.212646,320
873.329834,316
873.44696,308
873.564209,325
873.681396,312
873.798645,307
873.915894,314
874.03302,330
874.150208,313
874.267456,326
874.384583,321
874.501831,323
874.618958,305
874.736145,318
874.853333,305
874.970459,311
875.087646,323
875.204834,320
875.32196,305
875.439148,334
875.556274,329
875.673401,327
875.790527,317
875.907715,314
876.024841,319
876.141968,321
876.259094,324
876.376282,318
876.493347,321
876.610474,330
876.7276,322
876.844727,325
876.961853,304
877.078918,323
877.195984,303
877.313171,316
877.430237,321
877.547302,329
877.664368,317
877.781433,316
877.898499,325
878.015625,328
878.13269,322
878.249695,307
878.366821,326
878.483887,319
878.600952,311
878.717957,313
878.834961,307
878.952087,327
879.069092,316
879.186157,326
879.303162,317
879.420227,329
879.537231,314
879.654236,331
879.77124,317
879.888306,326
880.005249,312
880.122314,319
880.239319,316
880.356323,325
880.473328,316
880.590271,318
880.707275,314
880.824341,325
880.941284,315
881.058228,321
881.175232,325
881.292236,313
881.40918,315
881.526123,321
881.643066,308
881.760071,319
881.877014,313
881.993958,322
882.11084,320
882.227783,296
882.344727,320
882.46167,313
882.578613,317
882.695618,330
882.812439,317
882.929382,310
883.046326,311
883.163208,320
883.280151,309
883.397034,318
883.513916,320
883.630798,307
883.747742,311
883.864563,322
883.981506,309
884.098389,313
884.21521,298
884.332153,315
884.448975,318
884.565796,323
884.682678,331
884.7995,334
884.916443,319
885.033264,327
885.150085,312
885.266968,328
885.383789,322
885.500671,330
885.617493,316
885.734314,323
885.851196,321
885.967896,323
886.084717,308
886.201599,314
886.318359,318
886.435181,336
886.552002,315
886.668762,343
886.785645,323
886.902344,310
887.019165,308
887.135925,310
887.252747,313
887.369446,324
887.486267,308
887.603027,304
887.719788,310
887.836548,322
887.953247,313
888.070068,322
888.186829,322
888.303528,319
888.420288,325
888.536987,314
888.653687,321
888.770447,306
888.887146,315
889.003967,323
889.120667,326
889.237305,319
889.354065,321
889.470703,327
889.587463,320
889.704163,303
889.820862,319
889.937561,327
890.054199,304
890.170837,334
890.287598,313
890.404236,314
890.520874,322
890.637634,313
890.754211,324
890.87085,327
890.987549,322
891.104187,317
891.220886,323
891.337463,326
891.454102,301
891.57074,320
891.687378,316
891.804077,325
891.920654,317
892.037231,315
892.15387,317
892.270447,315
892.387085,322
892.503723,322
892.6203,309
892.736877,328
892.853516,314
892.970032,307
893.08667,322
893.203186,323
893.319763,331
893.43634,323
893.552917,330
893.669556,312
893.786011,320
893.902588,318
894.019165,320
894.135681,304
894.252197,306
894.368835,324
894.485291,316
894.601868,313
894.718384,316
894.8349,329
894.951355,318
895.067932,316
895.184448,330
895.300964,331
895.417419,306
895.533936,323
895.650452,316
895.766907,326
895.883423,317
895.999878,326
896.116333,312
896.232849,322
896.349304,320
896.465759,317
896.582214,305
896.698669,306
896.815125,315
896.931641,323
897.048035,324
897.164551,320
897.280884,318
897.397339,313
897.513794,317
897.630249,325
897.746582,309
897.863098,323
897.979431,325
898.095886,328
898.212341,327
898.328674,318
898.445129,313
898.561462,315
898.677795,317
898.794312,319
898.910645,325
899.026978,323
899.143433,307
899.259766,326
899.37616,318
899.492493,321
899.608765,317
899.725159,321
899.841553,308
899.957947,332
900.07428,317
900.190552,315
900.306946,324
900.423157,322
900.53949,311
900.655884,323
900.772156,297
900.888489,319
901.004822,319
901.121033,320
901.237366,323
901.353699,309
901.46991,302
901.586304,326
901.702515,319
901.818787,312
901.93512,311
902.051331,327
902.167603,317
902.283875,330
902.400085,333
902.516418,314
902.632629,324
902.74884,317
902.865112,304
902.981384,326
903.097595,310
903.213867,321
903.330017,333
903.446289,327
903.5625,323
903.67865,333
903.794922,305
903.911072,324
904.027344,321
904.143494,321
904.259705,320
904.375916,334
904.492065,315
904.608215,321
904.724426,319
904.840576,314
904.956726,322
905.072876,329
905.189087,320
905.305176,325
905.421387,310
905.537537,316
905.653687,311
905.769775,318
905.885925,304
906.002014,319
906.118164,315
906.234314,330
906.350403,326
906.466492,321
906.582642,318
906.69873,306
906.814758,310
906.930908,325
907.046936,317
907.163086,322
907.279175,323
907.395264,319
907.511353,322
907.62738,324
907.743408,310
907.859497,318
907.975525,318
908.091553,321
908.207703,320
908.32373,317
908.439758,327
908.555786,324
908.671814,318
908.787842,330
908.90387,314
909.019775,330
909.135864,317
909.251892,316
909.367859,313
909.483826,328
909.599854,312
909.715881,324
909.831848,321
909.947815,321
910.063782,319
910.179749,325
910.295776,314
910.411743,314
910.527649,325
910.643616,313
910.759583,313
910.875488,327
910.991455,319
911.107361,322
911.223267,319
911.339294,310
911.4552,325
911.571106,310
911.687073,332
911.802979,327
911.918823,324
912.034729,325
912.150635,328
912.266602,316
912.382446,315
912.498352,318
912.614197,314
912.730103,319
912.846008,326
