792.44574,309
792.56488,349
792.68396,382
792.80304,367
792.92218,314
793.041199,322
793.160339,307
793.279419,337
793.398499,331
793.517578,297
793.636658,314
793.755737,332
793.874817,347
793.993896,338
794.112976,326
794.232056,315
794.351074,306
794.470215,324
794.589233,317
794.708313,312
794.827393,323
794.946411,328
795.065552,331
795.18457,338
795.303589,320
795.422668,324
795.541687,315
795.660767,312
795.779846,324
795.898865,334
796.017883,318
796.136963,321
796.255981,334
796.375061,327
796.49408,331
796.613037,339
796.732117,333
796.851135,328
796.970154,334
797.089233,331
797.208191,327
797.327271,320
797.446228,311
797.565186,327
797.684265,322
797.803223,330
797.922241,331
798.04126,316
798.160278,313
798.279297,322
798.398315,332
798.517273,322
798.636292,319
798.75531,330
798.874268,341
798.993286,327
799.112244,328
799.231323,320
799.350281,313
799.469238,316
799.588257,334
799.707153,325
799.826111,326
799.945129,329
800.064087,318
800.183044,318
800.302063,319
800.421021,324
800.539978,322
800.658936,330
800.777893,320
800.896912,329
801.015747,331
801.134705,327
801.253723,326
801.37262,321
801.491638,327
801.610535,311
801.729492,321
801.84845,316
801.967407,306
802.086243,322
802.205261,309
802.324158,325
802.443115,318
802.562073,334
802.680969,328
802.799927,326
802.918762,323
803.037659,313
803.156677,325
803.275574,323
803.39447,328
803.513428,313
803.632263,333
803.751221,323
803.870117,314
803.989014,333
804.107971,328
804.226746,318
804.345642,331
804.4646,325
804.583496,337
804.702393,313
804.821228,322
804.940125,316
805.059021,322
805.177917,316
805.296814,333
805.415649,325
805.534546,327
805.653442,314
805.772278,328
805.891113,330
806.01001,325
806.128906,329
806.247742,309
806.366577,328
806.485413,312
806.604309,322
806.723145,317
806.84198,337
806.960876,324
807.079712,327
807.198486,319
807.317383,338
807.436218,305
807.554993,328
807.673889,324
807.792725,322
807.91156,321
808.030396,322
808.14917,320
808.268005,319
808.386841,319
808.505676,301
808.624451,308
808.743286,328
808.862122,338
808.980896,321
809.099731,318
809.218506,329
809.337341,321
809.456116,318
809.57489,310
809.693726,327
809.8125,319
809.931274,329
810.050049,316
810.168884,321
810.287659,329
810.406372,316
810.525269,317
810.643982,325
810.762756,307
810.881531,315
811.000305,328
811.11908,330
811.237854,323
811.356567,311
811.475403,319
811.594116,323
811.71283,313
811.831604,314
811.950378,331
812.069153,321
812.187927,323
812.30658,332
812.425415,317
812.544128,315
812.662781,321
812.781616,325
812.900269,329
813.019043,318
813.137756,309
813.256531,317
813.375244,321
813.493896,326
813.612671,329
813.731384,322
813.850037,320
813.96875,331
814.087524,339
814.206238,314
814.324951,315
814.443604,322
814.562256,316
814.68103,318
814.799683,319
814.918335,313
815.037109,326
815.155762,316
815.274475,326
815.393188,312
815.511841,317
815.630554,328
815.749146,313
815.867859,319
815.986572,330
816.105164,331
816.223877,324
816.342529,325
816.461182,329
816.579895,322
816.698486,305
816.817139,318
816.935791,311
817.054504,330
817.173096,323
817.291748,314
817.4104,327
817.529053,316
817.647644,309
817.766235,329
817.884949,319
818.00354,309
818.122192,318
818.240845,325
818.359436,322
818.478088,315
818.59668,310
818.715271,312
818.833923,312
818.952515,313
819.071106,320
819.189758,301
819.30835,335
819.426941,326
819.545532,309
819.664124,315
819.782715,314
819.901306,311
820.019897,324
820.138489,317
820.25708,318
820.375671,336
820.494202,327
820.612732,315
820.731384,316
820.849915,324
820.968506,318
821.087097,319
821.205627,318
821.324158,316
821.442749,313
821.561279,318
821.679871,315
821.798401,327
821.916931,308
822.035461,318
822.154053,315
822.272583,315
822.391174,317
822.509583,322
822.628174,314
822.746704,316
822.865234,312
822.983765,333
823.102295,318
823.220825,308
823.339294,315
823.457825,314
823.576355,323
823.694824,329
823.813354,315
823.931885,320
824.050354,316
824.168884,313
824.287354,336
824.405823,317
824.524353,322
824.642822,319
824.761353,324
824.879822,310
824.998291,310
825.116699,316
825.235291,307
825.353699,327
825.472168,317
825.590637,319
825.709106,318
825.827576,321
825.946045,305
826.064453,307
826.182983,316
826.301392,317
826.4198,319
826.53833,311
826.656738,303
826.775208,307
826.893677,322
827.012024,316
827.130493,317
827.248962,313
827.36731,306
827.485779,322
827.604248,323
827.722595,310
827.841064,315
827.959412,335
828.077942,306
828.196289,318
828.314636,324
828.433105,308
828.551514,308
828.669861,329
828.78833,321
828.906677,307
829.025085,310
829.143433,317
829.261841,309
829.38031,316
829.498657,314
829.617004,321
829.735413,325
829.85376,310
829.972107,315
830.090515,319
830.208862,309
830.327209,312
830.445557,322
830.563904,316
830.682312,307
830.800659,332
830.919006,329
831.037354,316
831.155701,325
831.274048,313
831.392395,322
831.51062,320
831.629028,303
831.747314,320
831.865662,309
831.984009,318
832.102356,307
832.220642,311
832.338928,312
832.457275,312
832.575623,315
832.693909,311
832.812134,322
832.930481,319
833.048828,305
833.167114,314
833.2854,321
833.403687,336
833.521973,316
833.640259,315
833.758545,301
833.876831,317
833.995056,321
834.113281,327
834.231628,318
834.349915,320
834.468201,320
834.586426,325
834.704651,316
834.822998,332
834.941162,315
835.059448,330
835.177673,315
835.295959,312
835.414246,308
835.53241,317
835.650635,319
835.768921,320
835.887146,316
836.005371,332
836.123596,325
836.241821,309
836.360046,309
836.478271,323
836.596497,317
836.714722,315
836.832886,318
836.95105,307
837.069336,324
837.1875,304
837.305725,311
837.423889,314
837.542053,317
837.660339,321
837.778503,319
837.896667,313
838.014832,323
838.132996,311
838.25116,299
838.369385,317
838.487488,302
838.605713,317
838.723877,321
838.84198,321
838.960205,319
839.078308,317
839.196472,318
839.314636,326
839.4328,309
839.550964,333
839.669067,306
839.787231,318
839.905396,322
840.023499,301
840.141602,323
840.259766,325
840.377869,313
840.495972,312
840.614136,326
840.732239,300
840.850342,319
840.968445,320
841.086548,315
841.204651,307
841.322754,322
841.440918,312
841.55896,310
841.677002,316
841.795166,307
841.913208,317
842.031311,312
842.149353,321
842.267456,317
842.385498,321
842.503601,318
842.621643,306
842.739746,321
842.857788,311
842.97583,318
843.093933,324
843.211975,319
843.330017,326
843.44812,314
843.566101,313
843.684204,320
843.802246,315
843.920227,309
844.038269,312
844.156311,310
844.274292,312
844.392395,316
844.510376,327
844.628357,315
844.74646,324
844.864441,306
844.982422,316
845.100403,297
845.218384,325
845.336426,315
845.454468,314
845.572449,314
845.69043,326
845.808411,322
845.926453,315
846.044373,313
846.162354,331
846.280396,319
846.398315,324
846.516296,311
846.634216,322
846.752197,318
846.870178,309
846.988098,308
847.106079,313
847.22406,321
847.34198,323
847.4599,317
847.577881,300
847.695801,320
847.813782,323
847.931641,320
848.049561,301
848.167603,321
848.285461,312
848.403381,316
848.521362,315
848.639221,305
848.75708,324
848.875,321
848.99292,323
849.110901,305
849.22876,316
849.34668,319
849.464539,324
849.582458,312
849.700317,300
849.818176,306
849.936096,321
850.053955,316
850.171875,326
850.289673,321
850.407593,326
850.525452,321
850.643311,314
850.761169,307
850.878967,325
850.996887,311
851.114746,309
851.232544,307
851.350403,316
851.468262,312
851.58606,320
851.703979,322
851.821777,322
851.939636,316
852.057434,323
852.175232,324
852.293091,321
852.410889,314
852.528687,317
852.646545,299
852.764343,322
852.88208,317
852.999939,321
853.117676,306
853.235535,317
853.353271,307
853.471069,317
853.588928,329
853.706604,329
853.824402,324
853.9422,321
854.059998,318
854.177734,320
854.295532,323
854.413269,314
854.531006,301
854.648804,309
854.766541,321
854.884277,321
855.002014,324
855.119751,312
855.237549,306
855.355225,315
855.473022,314
855.590698,323
855.708435,323
855.826172,328
855.943848,324
856.061646,321
856.179321,330
856.296997,321
856.414795,319
856.53241,312
856.650085,305
856.767822,327
856.885559,317
857.003174,302
857.120911,319
857.238586,316
857.356201,316
857.473938,323
857.591614,317
857.709351,315
857.826965,310
857.944641,304
858.062317,318
858.179993,327
858.297668,309
858.415283,315
858.532959,322
858.650574,318
858.768188,315
858.885803,318
859.003479,296
859.121094,313
859.23877,309
859.356384,333
859.473999,307
859.591675,316
859.709229,320
859.826843,311
859.944458,320
860.062012,327
860.179626,326
860.297302,320
860.414856,323
860.532471,333
860.650024,306
860.767639,330
860.885193,320
861.002808,325
861.120361,321
861.237976,326
861.35553,316
861.473022,310
861.590698,309
861.708191,311
861.825745,314
861.943298,306
862.060852,309
862.178406,324
862.295959,326
862.413513,316
862.531006,313
862.64856,317
862.766113,320
862.883667,307
863.00116,308
863.118713,331
863.236206,304
863.353699,322
863.471252,315
863.588745,333
863.706177,306
863.82373,309
863.941162,306
864.058716,323
864.176208,321
864.29364,324
864.411194,298
864.528687,322
864.646118,332
864.763611,317
864.881042,304
864.998535,321
865.116028,325
865.233459,311
865.350891,316
865.468384,317
865.585754,309
865.703308,313
865.820679,322
865.938171,312
866.055542,313
866.173035,318
866.290466,312
866.407837,306
866.52533,311
866.6427,322
866.760071,312
866.877563,321
866.994934,312
867.112305,314
867.229736,303
867.347107,320
867.464539,319
867.58197,315
867.699341,313
867.81665,327
867.934082,313
868.051453,319
868.168823,312
868.286194,327
868.403564,333
868.520935,316
868.638306,309
868.755676,320
868.872986,306
868.990295,320
869.107727,318
869.225037,315
869.342346,318
869.459717,319
869.577026,313
869.694336,321
869.811707,313
869.929016,314
870.046326,308
870.163635,320
870.280945,316
870.398254,321
870.515564,319
870.632812,324
870.750183,329
870.867432,314
870.984741,314
871.102051,318
871.219299,317
871.336609,327
871.453918,313
871.571106,325
871.688416,314
871.805664,318
871.922852,325
872.040222,305
872.157471,300
872.274719,307
872.391968,319
872.509155,318
872.626465,321
872.743652,323
872.860962,316
872.978149,309
873.095337,317
873.212646,333
873.329834,313
873.44696,325
873.564209,313
873.681396,321
873.798645,318
873.915894,306
874.03302,307
874.150208,315
874.267456,326
874.384583,321
874.501831,308
874.618958,311
874.736145,332
874.853333,314
874.970459,304
875.087646,316
875.204834,321
875.32196,310
875.439148,311
875.556274,316
875.673401,305
875.790527,322
875.907715,318
876.024841,337
876.141968,320
876.259094,316
876.376282,314
876.493347,316
876.610474,319
876.7276,315
876.844727,318
876.961853,323
877.078918,315
877.195984,321
877.313171,327
877.430237,319
877.547302,325
877.664368,312
877.781433,320
877.898499,314
878.015625,299
878.13269,326
878.249695,313
878.366821,334
878.483887,315
878.600952,321
878.717957,315
878.834961,327
878.952087,315
879.069092,327
879.186157,322
879.303162,324
879.420227,317
879.537231,312
879.654236,325
879.77124,313
879.888306,316
880.005249,317
880.122314,329
880.239319,314
880.356323,314
880.473328,308
880.590271,305
880.707275,317
880.824341,321
880.941284,319
881.058228,311
881.175232,321
881.292236,300
881.40918,325
881.526123,315
881.643066,316
881.760071,313
881.877014,320
881.993958,307
882.11084,316
882.227783,328
882.344727,316
882.46167,315
882.578613,316
882.695618,311
882.812439,320
882.929382,317
883.046326,317
883.163208,320
883.280151,321
883.397034,325
883.513916,317
883.630798,326
883.747742,325
883.864563,310
883.981506,331
884.098389,322
884.21521,328
884.332153,313
884.448975,328
884.565796,315
884.682678,322
884.7995,312
884.916443,315
885.033264,309
885.150085,323
885.266968,314
885.383789,314
885.500671,313
885.617493,317
885.734314,319
885.851196,325
885.967896,324
886.084717,328
886.201599,309
886.318359,323
886.435181,327
886.552002,324
886.668762,322
886.785645,319
886.902344,326
887.019165,324
887.135925,317
887.252747,306
887.369446,313
887.486267,317
887.603027,319
887.719788,302
887.836548,311
887.953247,313
888.070068,328
888.186829,319
888.303528,320
888.420288,341
888.536987,308
888.653687,307
888.770447,308
888.887146,314
889.003967,317
889.120667,314
889.237305,317
889.354065,327
889.470703,308
889.587463,322
889.704163,326
889.820862,319
889.937561,316
890.054199,310
890.170837,313
890.287598,321
890.404236,311
890.520874,316
890.637634,323
890.754211,319
890.87085,312
890.987549,302
891.104187,336
891.220886,312
891.337463,315
891.454102,309
891.57074,304
891.687378,317
891.804077,326
891.920654,318
892.037231,306
892.15387,325
892.270447,307
892.387085,332
892.503723,327
892.6203,317
892.736877,314
892.853516,319
892.970032,323
893.08667,304
893.203186,309
893.319763,321
893.43634,320
893.552917,318
893.669556,323
893.786011,316
893.902588,317
894.019165,315
894.135681,331
894.252197,322
894.368835,310
894.485291,329
894.601868,320
894.718384,322
894.8349,318
894.951355,317
895.067932,314
895.184448,320
895.300964,312
895.417419,322
895.533936,311
895.650452,326
895.766907,308
895.883423,340
895.999878,330
896.116333,310
896.232849,316
896.349304,315
896.465759,323
896.582214,335
896.698669,319
896.815125,316
896.931641,324
897.048035,312
897.164551,313
897.280884,312
897.397339,310
897.513794,323
897.630249,321
897.746582,325
897.863098,321
897.979431,335
898.095886,315
898.212341,310
898.328674,324
898.445129,318
898.561462,321
898.677795,316
898.794312,320
898.910645,326
899.026978,301
899.143433,325
899.259766,315
899.37616,323
899.492493,298
899.608765,319
899.725159,312
899.841553,321
899.957947,318
900.07428,313
900.190552,322
900.306946,320
900.423157,309
900.53949,315
900.655884,326
900.772156,320
900.888489,318
901.004822,319
901.121033,320
901.237366,315
901.353699,325
901.46991,313
901.586304,314
901.702515,320
901.818787,319
901.93512,324
902.051331,320
902.167603,317
902.283875,329
902.400085,322
902.516418,313
902.632629,326
902.74884,324
902.865112,309
902.981384,316
903.097595,306
903.213867,310
903.330017,339
903.446289,321
903.5625,318
903.67865,311
903.794922,312
903.911072,300
904.027344,316
904.143494,318
904.259705,329
904.375916,314
904.492065,328
904.608215,325
904.724426,333
904.840576,313
904.956726,343
905.072876,314
905.189087,318
905.305176,313
905.421387,326
905.537537,326
905.653687,329
905.769775,326
905.885925,324
906.002014,324
906.118164,313
906.234314,316
906.350403,316
906.466492,315
906.582642,321
906.69873,312
906.814758,323
906.930908,317
907.046936,322
907.163086,325
907.279175,323
907.395264,307
907.511353,320
907.62738,310
907.743408,320
907.859497,317
907.975525,330
908.091553,312
908.207703,310
908.32373,317
908.439758,312
908.555786,328
908.671814,333
908.787842,310
908.90387,331
909.019775,316
909.135864,324
909.251892,305
909.367859,319
909.483826,304
909.599854,320
909.715881,314
909.831848,328
909.947815,317
910.063782,319
910.179749,326
910.295776,304
910.411743,314
910.527649,325
910.643616,323
910.759583,309
910.875488,315
910.991455,319
911.107361,306
911.223267,317
911.339294,330
911.4552,331
911.571106,324
911.687073,318
911.802979,321
911.918823,305
912.034729,300
912.150635,314
912.266602,318
912.382446,318
912.498352,325
912.614197,324
912.730103,319
912.846008,320
792.44574,308
792.56488,339
792.68396,388
792.80304,379
792.92218,312
793.041199,315
793.160339,304
793.279419,331
793.398499,328
793.517578,317
793.636658,300
793.755737,321
793.874817,331
793.993896,334
794.112976,330
794.232056,317
794.351074,326
794.470215,344
794.589233,320
794.708313,319
794.827393,318
794.946411,328
795.065552,331
795.18457,328
795.303589,322
795.422668,319
795.541687,324
795.660767,323
795.779846,330
795.898865,321
796.017883,328
796.136963,324
796.255981,324
796.375061,334
796.49408,331
796.613037,320
796.732117,326
796.851135,335
796.970154,315
797.089233,326
797.208191,325
797.327271,325
797.446228,323
797.565186,329
797.684265,307
797.803223,323
797.922241,325
798.04126,323
798.160278,321
798.279297,334
798.398315,329
798.517273,328
798.636292,327
798.75531,325
798.874268,329
798.993286,323
799.112244,326
799.231323,320
799.350281,326
799.469238,318
799.588257,325
799.707153,316
799.826111,327
799.945129,327
800.064087,331
800.183044,318
800.302063,324
800.421021,319
800.539978,319
800.658936,339
800.777893,307
800.896912,329
801.015747,323
801.134705,318
801.253723,321
801.37262,339
801.491638,322
801.610535,317
801.729492,328
801.84845,319
801.967407,311
802.086243,330
802.205261,324
802.324158,328
802.443115,314
802.562073,322
802.680969,328
802.799927,313
802.918762,318
803.037659,329
803.156677,327
803.275574,323
803.39447,326
803.513428,332
803.632263,324
803.751221,312
803.870117,321
803.989014,315
804.107971,314
804.226746,319
804.345642,325
804.4646,323
804.583496,327
804.702393,304
804.821228,325
804.940125,320
805.059021,319
805.177917,306
805.296814,324
805.415649,330
805.534546,322
805.653442,311
805.772278,316
805.891113,311
806.01001,330
806.128906,315
806.247742,319
806.366577,310
806.485413,321
806.604309,323
806.723145,319
806.84198,312
806.960876,319
807.079712,319
807.198486,322
807.317383,329
807.436218,331
807.554993,324
807.673889,330
807.792725,330
807.91156,328
808.030396,321
808.14917,309
808.268005,325
808.386841,327
808.505676,316
808.624451,318
808.743286,333
808.862122,326
808.980896,322
809.099731,317
809.218506,307
809.337341,316
809.456116,330
809.57489,334
809.693726,329
809.8125,322
809.931274,332
810.050049,325
810.168884,319
810.287659,332
810.406372,328
810.525269,304
810.643982,328
810.762756,321
810.881531,321
811.000305,320
811.11908,312
811.237854,328
811.356567,319
811.475403,322
811.594116,319
811.71283,334
811.831604,316
811.950378,321
812.069153,334
812.187927,309
812.30658,320
812.425415,319
812.544128,327
812.662781,312
812.781616,322
812.900269,322
813.019043,333
813.137756,325
813.256531,314
813.375244,321
813.493896,317
813.612671,307
813.731384,327
813.850037,325
813.96875,314
814.087524,337
814.206238,324
814.324951,335
814.443604,324
814.562256,321
814.68103,321
814.799683,326
814.918335,336
815.037109,315
815.155762,322
815.274475,307
815.393188,319
815.511841,324
815.630554,326
815.749146,313
815.867859,319
815.986572,322
816.105164,327
816.223877,316
816.342529,319
816.461182,317
816.579895,322
816.698486,318
816.817139,315
816.935791,319
817.054504,319
817.173096,318
817.291748,313
817.4104,325
817.529053,321
817.647644,318
817.766235,323
817.884949,313
818.00354,324
818.122192,295
818.240845,305
818.359436,309
818.478088,333
818.59668,316
818.715271,319
818.833923,333
818.952515,332
819.071106,309
819.189758,333
819.30835,318
819.426941,320
819.545532,309
819.664124,326
819.782715,316
819.901306,320
820.019897,315
820.138489,319
820.25708,316
820.375671,316
820.494202,311
820.612732,308
820.731384,309
820.849915,317
820.968506,320
821.087097,316
821.205627,310
821.324158,308
821.442749,317
821.561279,308
821.679871,307
821.798401,310
821.916931,320
822.035461,328
822.154053,318
822.272583,315
822.391174,308
822.509583,326
822.628174,308
822.746704,330
822.865234,319
822.983765,312
823.102295,303
823.220825,319
823.339294,307
823.457825,322
823.576355,311
823.694824,308
823.813354,327
823.931885,318
824.050354,320
824.168884,318
824.287354,337
824.405823,312
824.524353,317
824.642822,316
824.761353,322
824.879822,310
824.998291,312
825.116699,317
825.235291,312
825.353699,321
825.472168,310
825.590637,324
825.709106,312
825.827576,311
825.946045,323
826.064453,314
826.182983,332
826.301392,301
826.4198,322
826.53833,320
826.656738,322
826.775208,294
826.893677,329
827.012024,322
827.130493,314
827.248962,311
827.36731,317
827.485779,310
827.604248,311
827.722595,330
827.841064,324
827.959412,332
828.077942,315
828.196289,310
828.314636,327
828.433105,304
828.551514,327
828.669861,321
828.78833,324
828.906677,320
829.025085,307
829.143433,321
829.261841,313
829.38031,323
829.498657,314
829.617004,315
829.735413,316
829.85376,318
829.972107,312
830.090515,314
830.208862,309
830.327209,325
830.445557,314
830.563904,308
830.682312,314
830.800659,319
830.919006,322
831.037354,327
831.155701,313
831.274048,319
831.392395,314
831.51062,326
831.629028,304
831.747314,309
831.865662,319
831.984009,311
832.102356,307
832.220642,311
832.338928,304
832.457275,322
832.575623,316
832.693909,317
832.812134,314
832.930481,319
833.048828,327
833.167114,310
833.2854,312
833.403687,309
833.521973,315
833.640259,327
833.758545,315
833.876831,311
833.995056,303
834.113281,316
834.231628,317
834.349915,307
834.468201,328
834.586426,314
834.704651,302
834.822998,320
834.941162,330
835.059448,320
835.177673,317
835.295959,316
835.414246,314
835.53241,322
835.650635,315
835.768921,326
835.887146,311
836.005371,311
836.123596,318
836.241821,323
836.360046,311
836.478271,317
836.596497,318
836.714722,315
836.832886,324
836.95105,317
837.069336,332
837.1875,326
837.305725,307
837.423889,317
837.542053,302
837.660339,318
837.778503,320
837.896667,320
838.014832,308
838.132996,323
838.25116,314
838.369385,328
838.487488,314
838.605713,317
838.723877,316
838.84198,316
838.960205,319
839.078308,312
839.196472,335
839.314636,309
839.4328,305
839.550964,315
839.669067,313
839.787231,332
839.905396,320
840.023499,313
840.141602,311
840.259766,322
840.377869,312
840.495972,309
840.614136,329
840.732239,311
840.850342,312
840.968445,311
841.086548,308
841.204651,308
841.322754,309
841.440918,314
841.55896,318
841.677002,318
841.795166,311
841.913208,311
842.031311,324
842.149353,317
842.267456,319
842.385498,306
842.503601,316
842.621643,320
842.739746,319
842.857788,320
842.97583,318
843.093933,307
843.211975,316
843.330017,302
843.44812,309
843.566101,319
843.684204,324
843.802246,323
843.920227,303
844.038269,316
844.156311,325
844.274292,309
844.392395,307
844.510376,326
844.628357,323
844.74646,297
844.864441,308
844.982422,317
845.100403,323
845.218384,313
845.336426,323
845.454468,300
845.572449,318
845.69043,322
845.808411,318
845.926453,323
846.044373,311
846.162354,317
846.280396,311
846.398315,323
846.516296,292
846.634216,316
846.752197,317
846.870178,328
846.988098,302
847.106079,307
847.22406,307
847.34198,300
847.4599,324
847.577881,318
847.695801,324
847.813782,323
847.931641,314
848.049561,316
848.167603,326
848.285461,301
848.403381,317
848.521362,313
848.639221,319
848.75708,318
848.875,322
848.99292,312
849.110901,304
849.22876,321
849.34668,305
849.464539,298
849.582458,308
849.700317,309
849.818176,321
849.936096,327
850.053955,312
850.171875,319
850.289673,319
850.407593,325
850.525452,309
850.643311,314
850.761169,316
850.878967,314
850.996887,309
851.114746,312
851.232544,313
851.350403,319
851.468262,317
851.58606,324
851.703979,311
851.821777,311
851.939636,305
852.057434,317
852.175232,309
852.293091,321
852.410889,305
852.528687,309
852.646545,317
852.764343,310
852.88208,320
852.999939,320
853.117676,304
853.235535,311
853.353271,308
853.471069,316
853.588928,317
853.706604,330
853.824402,313
853.9422,314
854.059998,318
854.177734,312
854.295532,317
854.413269,314
854.531006,317
854.648804,316
854.766541,317
854.884277,319
855.002014,315
855.119751,327
855.237549,321
855.355225,323
855.473022,304
855.590698,309
855.708435,312
855.826172,318
855.943848,322
856.061646,323
856.179321,310
856.296997,315
856.414795,318
856.53241,309
856.650085,314
856.767822,307
856.885559,321
857.003174,324
857.120911,309
857.238586,323
857.356201,308
857.473938,313
857.591614,317
857.709351,319
857.826965,319
857.944641,318
858.062317,318
858.179993,318
858.297668,325
858.415283,305
858.532959,306
858.650574,326
858.768188,314
858.885803,301
859.003479,315
859.121094,312
859.23877,327
859.356384,312
859.473999,315
859.591675,299
859.709229,309
859.826843,310
859.944458,308
860.062012,315
860.179626,314
860.297302,324
860.414856,318
860.532471,320
860.650024,301
860.767639,312
860.885193,305
861.002808,323
861.120361,323
861.237976,319
861.35553,316
861.473022,315
861.590698,307
861.708191,320
861.825745,306
861.943298,322
862.060852,313
862.178406,312
862.295959,321
862.413513,319
862.531006,315
862.64856,315
862.766113,317
862.883667,315
863.00116,322
863.118713,312
863.236206,302
863.353699,324
863.471252,311
863.588745,300
863.706177,323
863.82373,311
863.941162,309
864.058716,321
864.176208,321
864.29364,323
864.411194,314
864.528687,322
864.646118,313
864.763611,322
864.881042,325
864.998535,318
865.116028,319
865.233459,312
865.350891,298
865.468384,322
865.585754,307
865.703308,324
865.820679,321
865.938171,315
866.055542,313
866.173035,312
866.290466,308
866.407837,330
866.52533,312
866.6427,320
866.760071,327
866.877563,315
866.994934,315
867.112305,322
867.229736,315
867.347107,310
867.464539,321
867.58197,327
867.699341,320
867.81665,321
867.934082,320
868.051453,332
868.168823,324
868.286194,321
868.403564,308
868.520935,313
868.638306,312
868.755676,327
868.872986,331
868.990295,308
869.107727,313
869.225037,319
869.342346,312
869.459717,328
869.577026,324
869.694336,319
869.811707,329
869.929016,317
870.046326,323
870.163635,308
870.280945,324
870.398254,324
870.515564,318
870.632812,306
870.750183,317
870.867432,315
870.984741,323
871.102051,314
871.219299,310
871.336609,308
871.453918,318
871.571106,310
871.688416,318
871.805664,321
871.922852,323
872.040222,316
872.157471,308
872.274719,313
872.391968,317
872.509155,320
872.626465,324
872.743652,317
872.860962,319
872.978149,318
873.095337,318
873.212646,316
873.329834,310
873.44696,320
873.564209,300
873.681396,315
873.798645,315
873.915894,321
874.03302,317
874.150208,305
874.267456,306
874.384583,315
874.501831,307
874.618958,314
874.736145,310
874.853333,319
874.970459,308
875.087646,310
875.204834,301
875.32196,320
875.439148,318
875.556274,314
875.673401,317
875.790527,318
875.907715,321
876.024841,312
876.141968,304
876.259094,334
876.376282,323
876.493347,305
876.610474,300
876.7276,312
876.844727,321
876.961853,320
877.078918,315
877.195984,314
877.313171,322
877.430237,328
877.547302,322
877.664368,309
877.781433,315
877.898499,308
878.015625,319
878.13269,318
878.249695,333
878.366821,313
878.483887,314
878.600952,311
878.717957,307
878.834961,323
878.952087,311
879.069092,319
879.186157,320
879.303162,310
879.420227,304
879.537231,312
879.654236,319
879.77124,316
879.888306,314
880.005249,312
880.122314,309
880.239319,307
880.356323,323
880.473328,318
880.590271,333
880.707275,314
880.824341,309
880.941284,324
881.058228,321
881.175232,307
881.292236,307
881.40918,318
881.526123,316
881.643066,332
881.760071,325
881.877014,327
881.993958,315
882.11084,313
882.227783,301
882.344727,326
882.46167,320
882.578613,320
882.695618,311
882.812439,309
882.929382,317
883.046326,319
883.163208,325
883.280151,313
883.397034,324
883.513916,320
883.630798,315
883.747742,319
883.864563,307
883.981506,326
884.098389,328
884.21521,318
884.332153,311
884.448975,314
884.565796,313
884.682678,310
884.7995,304
884.916443,310
885.033264,325
885.150085,324
885.266968,304
885.383789,330
885.500671,309
885.617493,329
885.734314,314
885.851196,315
885.967896,325
886.084717,321
886.201599,316
886.318359,324
886.435181,323
886.552002,324
886.668762,310
886.785645,320
886.902344,312
887.019165,303
887.135925,316
887.252747,306
887.369446,318
887.486267,330
887.603027,323
887.719788,328
887.836548,311
887.953247,318
888.070068,311
888.186829,315
888.303528,322
888.420288,312
888.536987,321
888.653687,319
888.770447,314
888.887146,327
889.003967,305
889.120667,316
889.237305,319
889.354065,305
889.470703,304
889.587463,313
889.704163,323
889.820862,316
889.937561,319
890.054199,303
890.170837,304
890.287598,325
890.404236,302
890.520874,320
890.637634,319
890.754211,326
890.87085,319
890.987549,323
891.104187,310
891.220886,328
891.337463,320
891.454102,320
891.57074,327
891.687378,314
891.804077,312
891.920654,314
892.037231,309
892.15387,327
892.270447,316
892.387085,313
892.503723,314
892.6203,322
892.736877,307
892.853516,323
892.970032,316
893.08667,324
893.203186,314
893.319763,318
893.43634,315
893.552917,330
893.669556,316
893.786011,335
893.902588,314
894.019165,310
894.135681,302
894.252197,317
894.368835,304
894.485291,319
894.601868,314
894.718384,331
894.8349,307
894.951355,326
895.067932,315
895.184448,331
895.300964,321
895.417419,321
895.533936,312
895.650452,325
895.766907,319
895.883423,337
895.999878,313
896.116333,327
896.232849,323
896.349304,320
896.465759,310
896.582214,312
896.698669,317
896.815125,315
896.931641,321
897.048035,320
897.164551,316
897.280884,321
897.397339,320
897.513794,325
897.630249,314
897.746582,323
897.863098,313
897.979431,314
898.095886,314
898.212341,312
898.328674,301
898.445129,332
898.561462,320
898.677795,316
898.794312,322
898.910645,316
899.026978,310
899.143433,313
899.259766,298
899.37616,320
899.492493,313
899.608765,320
899.725159,312
899.841553,320
899.957947,323
900.07428,323
900.190552,314
900.306946,323
900.423157,311
900.53949,321
900.655884,323
900.772156,316
900.888489,310
901.004822,328
901.121033,310
901.237366,314
901.353699,316
901.46991,321
901.586304,317
901.702515,316
901.818787,309
901.93512,315
902.051331,321
902.167603,321
902.283875,325
902.400085,317
902.516418,325
902.632629,322
902.74884,314
902.865112,314
902.981384,319
903.097595,329
903.213867,313
903.330017,315
903.446289,323
903.5625,321
903.67865,315
903.794922,310
903.911072,316
904.027344,324
904.143494,318
904.259705,318
904.375916,325
904.492065,314
904.608215,308
904.724426,320
904.840576,312
904.956726,331
905.072876,313
905.189087,318
905.305176,316
905.421387,320
905.537537,315
905.653687,319
905.769775,338
905.885925,318
906.002014,309
906.118164,331
906.234314,313
906.350403,327
906.466492,311
906.582642,327
906.69873,319
906.814758,325
906.930908,315
907.046936,318
907.163086,302
907.279175,324
907.395264,311
907.511353,315
907.62738,310
907.743408,317
907.859497,322
907.975525,314
908.091553,324
908.207703,321
908.32373,311
908.439758,316
908.555786,311
908.671814,308
908.787842,326
908.90387,324
909.019775,313
909.135864,313
909.251892,329
909.367859,308
909.483826,325
909.599854,323
909.715881,328
909.831848,313
909.947815,314
910.063782,314
910.179749,313
910.295776,324
910.411743,313
910.527649,301
910.643616,315
910.759583,331
910.875488,321
910.991455,322
911.107361,319
911.223267,320
911.339294,314
911.4552,310
911.571106,319
911.687073,334
911.802979,334
911.918823,318
912.034729,319
912.150635,316
912.266602,314
912.382446,331
912.498352,314
912.614197,315
912.730103,310
912.846008,319
792.44574,297
792.56488,356
792.68396,373
792.80304,370
792.92218,324
793.041199,315
793.160339,304
793.279419,324
793.398499,324
793.517578,308
793.636658,310
793.755737,336
793.874817,338
793.993896,330
794.112976,324
794.232056,311
794.351074,308
794.470215,322
794.589233,326
794.708313,315
794.827393,321
794.946411,328
795.065552,335
795.18457,339
795.303589,315
795.422668,328
795.541687,317
795.660767,331
795.779846,321
795.898865,313
796.017883,309
796.136963,333
796.255981,326
796.375061,329
796.49408,327
796.613037,325
796.732117,324
796.851135,325
796.970154,321
797.089233,326
797.208191,312
797.327271,313
797.446228,325
797.565186,327
797.684265,331
797.803223,323
797.922241,317
798.04126,332
798.160278,308
798.279297,329
798.398315,315
798.517273,315
798.636292,321
798.75531,319
798.874268,319
798.993286,328
799.112244,327
799.231323,325
799.350281,317
799.469238,331
799.588257,320
799.707153,321
799.826111,322
799.945129,303
800.064087,326
800.183044,328
800.302063,313
800.421021,310
800.539978,321
800.658936,321
800.777893,312
800.896912,334
801.015747,329
801.134705,319
801.253723,330
801.37262,307
801.491638,315
801.610535,338
801.729492,316
801.84845,331
801.967407,314
802.086243,325
802.205261,309
802.324158,313
802.443115,323
802.562073,319
802.680969,333
802.799927,329
802.918762,313
803.037659,329
803.156677,312
803.275574,337
803.39447,317
803.513428,323
803.632263,318
803.751221,326
803.870117,321
803.989014,308
804.107971,314
804.226746,330
804.345642,320
804.4646,317
804.583496,308
804.702393,316
804.821228,314
804.940125,325
805.059021,310
805.177917,327
805.296814,325
805.415649,332
805.534546,315
805.653442,323
805.772278,331
805.891113,329
806.01001,322
806.128906,317
806.247742,323
806.366577,320
806.485413,327
806.604309,326
806.723145,330
806.84198,320
806.960876,321
807.079712,323
807.198486,309
807.317383,319
807.436218,307
807.554993,323
807.673889,327
807.792725,311
807.91156,320
808.030396,322
808.14917,322
808.268005,317
808.386841,325
808.505676,330
808.624451,316
808.743286,322
808.862122,311
808.980896,319
809.099731,320
809.218506,326
809.337341,319
809.456116,325
809.57489,318
809.693726,327
809.8125,319
809.931274,314
810.050049,321
810.168884,320
810.287659,310
810.406372,320
810.525269,323
810.643982,324
810.762756,321
810.881531,334
811.000305,332
811.11908,326
811.237854,313
811.356567,318
811.475403,318
811.594116,317
811.71283,322
811.831604,319
811.950378,335
812.069153,326
812.187927,321
812.30658,320
812.425415,311
812.544128,321
812.662781,313
812.781616,321
812.900269,332
813.019043,319
813.137756,307
813.256531,313
813.375244,317
813.493896,320
813.612671,321
813.731384,335
813.850037,311
813.96875,324
814.087524,328
814.206238,330
814.324951,319
814.443604,326
814.562256,331
814.68103,331
814.799683,309
814.918335,329
815.037109,318
815.155762,327
815.274475,323
815.393188,308
815.511841,328
815.630554,321
815.749146,314
815.867859,320
815.986572,328
816.105164,335
816.223877,336
816.342529,323
816.461182,334
816.579895,321
816.698486,319
816.817139,320
816.935791,327
817.054504,330
817.173096,321
817.291748,327
817.4104,307
817.529053,309
817.647644,315
817.766235,333
817.884949,310
818.00354,326
818.122192,313
818.240845,320
818.359436,314
818.478088,321
818.59668,320
818.715271,332
818.833923,321
818.952515,316
819.071106,321
819.189758,324
819.30835,324
819.426941,311
819.545532,313
819.664124,321
819.782715,315
819.901306,327
820.019897,312
820.138489,335
820.25708,332
820.375671,319
820.494202,322
820.612732,329
820.731384,329
820.849915,315
820.968506,310
821.087097,315
821.205627,319
821.324158,325
821.442749,313
821.561279,316
821.679871,311
821.798401,315
821.916931,316
822.035461,321
822.154053,315
822.272583,315
822.391174,321
822.509583,322
822.628174,316
822.746704,315
822.865234,328
822.983765,330
823.102295,322
823.220825,312
823.339294,320
823.457825,316
823.576355,317
823.694824,311
823.813354,320
823.931885,311
824.050354,316
824.168884,322
824.287354,318
824.405823,328
824.524353,302
824.642822,316
824.761353,311
824.879822,310
824.998291,307
825.116699,317
825.235291,309
825.353699,306
825.472168,310
825.590637,320
825.709106,317
825.827576,318
825.946045,327
826.064453,321
826.182983,315
826.301392,326
826.4198,311
826.53833,320
826.656738,309
826.775208,311
826.893677,326
827.012024,321
827.130493,321
827.248962,317
827.36731,320
827.485779,319
827.604248,335
827.722595,308
827.841064,313
827.959412,322
828.077942,313
828.196289,317
828.314636,319
828.433105,320
828.551514,304
828.669861,310
828.78833,310
828.906677,312
829.025085,313
829.143433,326
829.261841,314
829.38031,326
829.498657,315
829.617004,305
829.735413,323
829.85376,309
829.972107,322
830.090515,312
830.208862,310
830.327209,320
830.445557,318
830.563904,323
830.682312,320
830.800659,318
830.919006,334
831.037354,321
831.155701,318
831.274048,307
831.392395,299
831.51062,313
831.629028,311
831.747314,329
831.865662,315
831.984009,321
832.102356,315
832.220642,312
832.338928,321
832.457275,316
832.575623,335
832.693909,319
832.812134,309
832.930481,338
833.048828,320
833.167114,308
833.2854,317
833.403687,320
833.521973,315
833.640259,315
833.758545,299
833.876831,321
833.995056,324
834.113281,316
834.231628,320
834.349915,316
834.468201,319
834.586426,310
834.704651,318
834.822998,329
834.941162,321
835.059448,322
835.177673,313
835.295959,320
835.414246,310
835.53241,317
835.650635,334
835.768921,313
835.887146,301
836.005371,327
836.123596,324
836.241821,317
836.360046,320
836.478271,325
836.596497,322
836.714722,309
836.832886,330
836.95105,306
837.069336,302
837.1875,315
837.305725,320
837.423889,312
837.542053,313
837.660339,318
837.778503,315
837.896667,304
838.014832,330
838.132996,314
838.25116,322
838.369385,316
838.487488,301
838.605713,312
838.723877,309
838.84198,326
838.960205,319
839.078308,309
839.196472,312
839.314636,321
839.4328,318
839.550964,317
839.669067,325
839.787231,339
839.905396,301
840.023499,322
840.141602,310
840.259766,322
840.377869,331
840.495972,323
840.614136,310
840.732239,316
840.850342,328
840.968445,317
841.086548,310
841.204651,323
841.322754,322
841.440918,318
841.55896,317
841.677002,314
841.795166,311
841.913208,316
842.031311,312
842.149353,322
842.267456,320
842.385498,323
842.503601,320
842.621643,309
842.739746,324
842.857788,322
842.97583,320
843.093933,328
843.211975,312
843.330017,317
843.44812,313
843.566101,304
843.684204,307
843.802246,323
843.920227,333
844.038269,309
844.156311,314
844.274292,314
844.392395,318
844.510376,327
844.628357,323
844.74646,306
844.864441,310
844.982422,313
845.100403,314
845.218384,321
845.336426,314
845.454468,308
845.572449,309
845.69043,325
845.808411,323
845.926453,311
846.044373,310
846.162354,313
846.280396,310
846.398315,309
846.516296,312
846.634216,311
846.752197,315
846.870178,304
846.988098,318
847.106079,325
847.22406,316
847.34198,318
847.4599,321
847.577881,319
847.695801,315
847.813782,318
847.931641,313
848.049561,316
848.167603,313
848.285461,324
848.403381,326
848.521362,317
848.639221,310
848.75708,330
848.875,302
848.99292,314
849.110901,311
849.22876,312
849.34668,312
849.464539,316
849.582458,312
849.700317,315
849.818176,326
849.936096,315
850.053955,330
850.171875,331
850.289673,312
850.407593,330
850.525452,313
850.643311,318
850.761169,314
850.878967,305
850.996887,319
851.114746,326
851.232544,327
851.350403,322
851.468262,323
851.58606,323
851.703979,308
851.821777,317
851.939636,323
852.057434,314
852.175232,308
852.293091,314
852.410889,320
852.528687,316
852.646545,310
852.764343,318
852.88208,307
852.999939,327
853.117676,313
853.235535,323
853.353271,324
853.471069,320
853.588928,320
853.706604,325
853.824402,307
853.9422,317
854.059998,325
854.177734,314
854.295532,316
854.413269,307
854.531006,322
854.648804,314
854.766541,317
854.884277,323
855.002014,322
855.119751,319
855.237549,311
855.355225,301
855.473022,314
855.590698,317
855.708435,299
855.826172,313
855.943848,321
856.061646,308
856.179321,312
856.296997,319
856.414795,319
856.53241,309
856.650085,308
856.767822,318
856.885559,324
857.003174,316
857.120911,323
857.238586,305
857.356201,313
857.473938,322
857.591614,323
857.709351,316
857.826965,320
857.944641,313
858.062317,319
858.179993,320
858.297668,307
858.415283,320
858.532959,307
858.650574,310
858.768188,326
858.885803,328
859.003479,304
859.121094,325
859.23877,317
859.356384,327
859.473999,320
859.591675,319
859.709229,321
859.826843,321
859.944458,313
860.062012,324
860.179626,306
860.297302,303
860.414856,318
860.532471,325
860.650024,324
860.767639,324
860.885193,308
861.002808,327
861.120361,315
861.237976,328
861.35553,322
861.473022,299
861.590698,322
861.708191,313
861.825745,323
861.943298,327
862.060852,306
862.178406,314
862.295959,315
862.413513,329
862.531006,321
862.64856,310
862.766113,306
862.883667,315
863.00116,321
863.118713,322
863.236206,313
863.353699,324
863.471252,311
863.588745,327
863.706177,310
863.82373,322
863.941162,308
864.058716,321
864.176208,317
864.29364,328
864.411194,319
864.528687,317
864.646118,322
864.763611,329
864.881042,308
864.998535,313
865.116028,325
865.233459,319
865.350891,317
865.468384,324
865.585754,322
865.703308,314
865.820679,319
865.938171,317
866.055542,313
866.173035,314
866.290466,304
866.407837,317
866.52533,319
866.6427,312
866.760071,314
866.877563,322
866.994934,313
867.112305,334
867.229736,310
867.347107,320
867.464539,332
867.58197,311
867.699341,313
867.81665,330
867.934082,305
868.051453,313
868.168823,310
868.286194,308
868.403564,324
868.520935,310
868.638306,330
868.755676,327
868.872986,316
868.990295,307
869.107727,326
869.225037,324
869.342346,315
869.459717,307
869.577026,330
869.694336,328
869.811707,316
869.929016,319
870.046326,322
870.163635,316
870.280945,322
870.398254,308
870.515564,306
870.632812,318
870.750183,326
870.867432,313
870.984741,321
871.102051,308
871.219299,320
871.336609,325
871.453918,299
871.571106,335
871.688416,315
871.805664,315
871.922852,324
872.040222,326
872.157471,316
872.274719,313
872.391968,308
872.509155,313
872.626465,311
872.743652,312
872.860962,316
872.978149,322
873.095337,308
873.212646,317
873.329834,323
873.44696,318
873.564209,313
873.681396,318
873.798645,318
873.915894,321
874.03302,314
874.150208,325
874.267456,322
874.384583,315
874.501831,315
874.618958,316
874.736145,315
874.853333,329
874.970459,330
875.087646,318
875.204834,311
875.32196,313
875.439148,317
875.556274,308
875.673401,317
875.790527,321
875.907715,318
876.024841,317
876.141968,317
876.259094,325
876.376282,309
876.493347,320
876.610474,302
876.7276,310
876.844727,312
876.961853,321
877.078918,314
877.195984,321
877.313171,299
877.430237,330
877.547302,320
877.664368,315
877.781433,308
877.898499,319
878.015625,319
878.13269,323
878.249695,329
878.366821,307
878.483887,332
878.600952,315
878.717957,314
878.834961,323
878.952087,321
879.069092,320
879.186157,324
879.303162,300
879.420227,308
879.537231,308
879.654236,341
879.77124,321
879.888306,298
880.005249,317
880.122314,322
880.239319,334
880.356323,316
880.473328,311
880.590271,321
880.707275,330
880.824341,311
880.941284,321
881.058228,317
881.175232,323
881.292236,313
881.40918,309
881.526123,324
881.643066,311
881.760071,311
881.877014,318
881.993958,309
882.11084,315
882.227783,313
882.344727,320
882.46167,319
882.578613,326
882.695618,316
882.812439,308
882.929382,320
883.046326,318
883.163208,307
883.280151,322
883.397034,311
883.513916,323
883.630798,318
883.747742,323
883.864563,318
883.981506,319
884.098389,308
884.21521,316
884.332153,321
884.448975,323
884.565796,311
884.682678,321
884.7995,319
884.916443,322
885.033264,323
885.150085,315
885.266968,313
885.383789,321
885.500671,313
885.617493,322
885.734314,317
885.851196,312
885.967896,314
886.084717,308
886.201599,315
886.318359,303
886.435181,308
886.552002,325
886.668762,313
886.785645,328
886.902344,305
887.019165,325
887.135925,323
887.252747,318
887.369446,314
887.486267,327
887.603027,322
887.719788,336
887.836548,333
887.953247,316
888.070068,301
888.186829,310
888.303528,327
888.420288,312
888.536987,318
888.653687,329
888.770447,314
888.887146,316
889.003967,317
889.120667,334
889.237305,309
889.354065,316
889.470703,311
889.587463,321
889.704163,313
889.820862,319
889.937561,328
890.054199,333
890.170837,316
890.287598,308
890.404236,316
890.520874,323
890.637634,326
890.754211,316
890.87085,318
890.987549,312
891.104187,308
891.220886,322
891.337463,312
891.454102,319
891.57074,305
891.687378,309
891.804077,325
891.920654,313
892.037231,314
892.15387,320
892.270447,323
892.387085,321
892.503723,309
892.6203,317
892.736877,312
892.853516,327
892.970032,312
893.08667,328
893.203186,305
893.319763,319
893.43634,318
893.552917,319
893.669556,304
893.786011,316
893.902588,327
894.019165,312
894.135681,317
894.252197,321
894.368835,318
894.485291,312
894.601868,315
894.718384,320
894.8349,320
894.951355,318
895.067932,324
895.184448,318
895.300964,314
895.417419,327
895.533936,314
895.650452,321
895.766907,321
895.883423,323
895.999878,333
896.116333,333
896.232849,314
896.349304,324
896.465759,311
896.582214,323
896.698669,314
896.815125,323
896.931641,317
897.048035,320
897.164551,324
897.280884,319
897.397339,331
897.513794,315
897.630249,314
897.746582,311
897.863098,323
897.979431,320
898.095886,305
898.212341,319
898.328674,301
898.445129,306
898.561462,316
898.677795,322
898.794312,318
898.910645,318
899.026978,327
899.143433,324
899.259766,309
899.37616,323
899.492493,297
899.608765,316
899.725159,309
899.841553,311
899.957947,317
900.07428,319
900.190552,320
900.306946,319
900.423157,318
900.53949,317
900.655884,317
900.772156,328
900.888489,307
901.004822,309
901.121033,314
901.237366,322
901.353699,324
901.46991,319
901.586304,315
901.702515,320
901.818787,322
901.93512,306
902.051331,311
902.167603,320
902.283875,307
902.400085,308
902.516418,320
902.632629,317
902.74884,314
902.865112,319
902.981384,303
903.097595,320
903.213867,312
903.330017,318
903.446289,311
903.5625,325
903.67865,312
903.794922,310
903.911072,333
904.027344,312
904.143494,311
904.259705,323
904.375916,304
904.492065,325
904.608215,320
904.724426,337
904.840576,319
904.956726,313
905.072876,323
905.189087,316
905.305176,306
905.421387,316
905.537537,319
905.653687,336
905.769775,316
905.885925,322
906.002014,310
906.118164,325
906.234314,308
906.350403,310
906.466492,317
906.582642,321
906.69873,311
906.814758,321
906.930908,317
907.046936,308
907.163086,314
907.279175,302
907.395264,306
907.511353,315
907.62738,315
907.743408,321
907.859497,314
907.975525,329
908.091553,300
908.207703,321
908.32373,324
908.439758,326
908.555786,318
908.671814,317
908.787842,318
908.90387,322
909.019775,313
909.135864,327
909.251892,325
909.367859,316
909.483826,322
909.599854,322
909.715881,322
909.831848,310
909.947815,313
910.063782,324
910.179749,297
910.295776,316
910.411743,327
910.527649,312
910.643616,310
910.759583,334
910.875488,313
910.991455,331
911.107361,304
911.223267,328
911.339294,296
911.4552,327
911.571106,313
911.687073,307
911.802979,310
911.918823,322
912.034729,330
912.150635,319
912.266602,305
912.382446,312
912.498352,315
912.614197,320
912.730103,308
912.846008,337
