792.44574,309
792.56488,338
792.68396,388
792.80304,364
792.92218,314
793.041199,313
793.160339,298
793.279419,331
793.398499,312
793.517578,309
793.636658,313
793.755737,340
793.874817,343
793.993896,333
794.112976,324
794.232056,317
794.351074,324
794.470215,311
794.589233,325
794.708313,316
794.827393,324
794.946411,341
795.065552,341
795.18457,320
795.303589,332
795.422668,330
795.541687,335
795.660767,319
795.779846,329
795.898865,317
796.017883,319
796.136963,323
796.255981,338
796.375061,327
796.49408,311
796.613037,340
796.732117,321
796.851135,328
796.970154,328
797.089233,318
797.208191,337
797.327271,317
797.446228,315
797.565186,321
797.684265,326
797.803223,313
797.922241,315
798.04126,312
798.160278,324
798.279297,326
798.398315,333
798.517273,315
798.636292,314
798.75531,330
798.874268,310
798.993286,317
799.112244,328
799.231323,318
799.350281,326
799.469238,320
799.588257,301
799.707153,326
799.826111,317
799.945129,319
800.064087,328
800.183044,322
800.302063,320
800.421021,318
800.539978,318
800.658936,321
800.777893,327
800.896912,330
801.015747,318
801.134705,333
801.253723,315
801.37262,330
801.491638,305
801.610535,341
801.729492,311
801.84845,309
801.967407,320
802.086243,326
802.205261,323
802.324158,327
802.443115,323
802.562073,321
802.680969,320
802.799927,315
802.918762,318
803.037659,323
803.156677,314
803.275574,317
803.39447,322
803.513428,318
803.632263,317
803.751221,321
803.870117,320
803.989014,326
804.107971,319
804.226746,334
804.345642,313
804.4646,319
804.583496,329
804.702393,315
804.821228,326
804.940125,320
805.059021,315
805.177917,311
805.296814,339
805.415649,311
805.534546,331
805.653442,319
805.772278,309
805.891113,326
806.01001,336
806.128906,325
806.247742,325
806.366577,333
806.485413,330
806.604309,312
806.723145,334
806.84198,328
806.960876,322
807.079712,311
807.198486,327
807.317383,317
807.436218,331
807.554993,329
807.673889,317
807.792725,315
807.91156,310
808.030396,326
808.14917,314
808.268005,314
808.386841,316
808.505676,314
808.624451,327
808.743286,308
808.862122,317
808.980896,319
809.099731,319
809.218506,330
809.337341,333
809.456116,327
809.57489,318
809.693726,316
809.8125,328
809.931274,318
810.050049,324
810.168884,304
810.287659,321
810.406372,324
810.525269,326
810.643982,321
810.762756,324
810.881531,310
811.000305,323
811.11908,328
811.237854,311
811.356567,332
811.475403,311
811.594116,319
811.71283,325
811.831604,325
811.950378,308
812.069153,325
812.187927,316
812.30658,332
812.425415,341
812.544128,323
812.662781,324
812.781616,317
812.900269,311
813.019043,320
813.137756,312
813.256531,306
813.375244,322
813.493896,335
813.612671,317
813.731384,310
813.850037,307
813.96875,321
814.087524,323
814.206238,321
814.324951,313
814.443604,324
814.562256,313
814.68103,321
814.799683,329
814.918335,314
815.037109,327
815.155762,319
815.274475,330
815.393188,331
815.511841,324
815.630554,316
815.749146,318
815.867859,321
815.986572,302
816.105164,319
816.223877,319
816.342529,310
816.461182,324
816.579895,319
816.698486,314
816.817139,308
816.935791,312
817.054504,334
817.173096,330
817.291748,318
817.4104,318
817.529053,326
817.647644,325
817.766235,317
817.884949,322
818.00354,322
818.122192,315
818.240845,328
818.359436,320
818.478088,313
818.59668,317
818.715271,313
818.833923,317
818.952515,331
819.071106,315
819.189758,319
819.30835,299
819.426941,318
819.545532,318
819.664124,310
819.782715,330
819.901306,318
820.019897,332
820.138489,318
820.25708,314
820.375671,320
820.494202,316
820.612732,323
820.731384,312
820.849915,325
820.968506,314
821.087097,313
821.205627,315
821.324158,321
821.442749,315
821.561279,316
821.679871,310
821.798401,324
821.916931,329
822.035461,315
822.154053,316
822.272583,305
822.391174,313
822.509583,314
822.628174,324
822.746704,320
822.865234,309
822.983765,318
823.102295,314
823.220825,305
823.339294,312
823.457825,318
823.576355,312
823.694824,328
823.813354,307
823.931885,312
824.050354,314
824.168884,310
824.287354,326
824.405823,322
824.524353,314
824.642822,322
824.761353,321
824.879822,316
824.998291,323
825.116699,315
825.235291,318
825.353699,313
825.472168,316
825.590637,307
825.709106,309
825.827576,313
825.946045,320
826.064453,315
826.182983,298
826.301392,324
826.4198,312
826.53833,315
826.656738,323
826.775208,300
826.893677,318
827.012024,316
827.130493,311
827.248962,308
827.36731,320
827.485779,303
827.604248,318
827.722595,318
827.841064,312
827.959412,328
828.077942,314
828.196289,302
828.314636,326
828.433105,314
828.551514,316
828.669861,325
828.78833,307
828.906677,309
829.025085,317
829.143433,319
829.261841,325
829.38031,314
829.498657,317
829.617004,318
829.735413,318
829.85376,315
829.972107,313
830.090515,320
830.208862,313
830.327209,311
830.445557,302
830.563904,317
830.682312,327
830.800659,320
830.919006,302
831.037354,327
831.155701,306
831.274048,321
831.392395,330
831.51062,318
831.629028,309
831.747314,310
831.865662,318
831.984009,315
832.102356,322
832.220642,318
832.338928,319
832.457275,326
832.575623,319
832.693909,314
832.812134,311
832.930481,327
833.048828,308
833.167114,320
833.2854,298
833.403687,314
833.521973,311
833.640259,313
833.758545,310
833.876831,322
833.995056,317
834.113281,320
834.231628,312
834.349915,330
834.468201,313
834.586426,328
834.704651,321
834.822998,324
834.941162,319
835.059448,326
835.177673,305
835.295959,334
835.414246,318
835.53241,321
835.650635,308
835.768921,314
835.887146,308
836.005371,314
836.123596,317
836.241821,311
836.360046,338
836.478271,331
836.596497,308
836.714722,326
836.832886,308
836.95105,322
837.069336,308
837.1875,307
837.305725,303
837.423889,316
837.542053,315
837.660339,317
837.778503,317
837.896667,312
838.014832,323
838.132996,323
838.25116,317
838.369385,335
838.487488,318
838.605713,318
838.723877,323
838.84198,324
838.960205,313
839.078308,309
839.196472,318
839.314636,314
839.4328,325
839.550964,325
839.669067,322
839.787231,312
839.905396,333
840.023499,317
840.141602,314
840.259766,330
840.377869,315
840.495972,303
840.614136,316
840.732239,318
840.850342,305
840.968445,308
841.086548,331
841.204651,320
841.322754,306
841.440918,308
841.55896,312
841.677002,318
841.795166,317
841.913208,335
842.031311,330
842.149353,317
842.267456,319
842.385498,320
842.503601,325
842.621643,304
842.739746,316
842.857788,310
842.97583,305
843.093933,330
843.211975,314
843.330017,326
843.44812,314
843.566101,321
843.684204,318
843.802246,308
843.920227,317
844.038269,308
844.156311,310
844.274292,318
844.392395,314
844.510376,325
844.628357,309
844.74646,310
844.864441,318
844.982422,312
845.100403,318
845.218384,317
845.336426,308
845.454468,319
845.572449,316
845.69043,314
845.808411,330
845.926453,309
846.044373,312
846.162354,326
846.280396,321
846.398315,300
846.516296,320
846.634216,325
846.752197,316
846.870178,321
846.988098,324
847.106079,318
847.22406,314
847.34198,304
847.4599,315
847.577881,302
847.695801,319
847.813782,319
847.931641,315
848.049561,305
848.167603,333
848.285461,312
848.403381,320
848.521362,313
848.639221,322
848.75708,309
848.875,324
848.99292,328
849.110901,312
849.22876,322
849.34668,318
849.464539,322
849.582458,320
849.700317,310
849.818176,315
849.936096,317
850.053955,326
850.171875,322
850.289673,309
850.407593,309
850.525452,303
850.643311,304
850.761169,314
850.878967,330
850.996887,297
851.114746,318
851.232544,324
851.350403,312
851.468262,322
851.58606,312
851.703979,306
851.821777,312
851.939636,309
852.057434,316
852.175232,314
852.293091,317
852.410889,306
852.528687,310
852.646545,314
852.764343,313
852.88208,311
852.999939,316
853.117676,316
853.235535,315
853.353271,322
853.471069,319
853.588928,315
853.706604,312
853.824402,307
853.9422,318
854.059998,310
854.177734,318
854.295532,317
854.413269,321
854.531006,318
854.648804,319
854.766541,310
854.884277,310
855.002014,319
855.119751,313
855.237549,325
855.355225,315
855.473022,313
855.590698,326
855.708435,309
855.826172,320
855.943848,307
856.061646,321
856.179321,319
856.296997,315
856.414795,319
856.53241,316
856.650085,317
856.767822,327
856.885559,321
857.003174,321
857.120911,318
857.238586,324
857.356201,304
857.473938,310
857.591614,310
857.709351,310
857.826965,312
857.944641,304
858.062317,316
858.179993,311
858.297668,311
858.415283,322
858.532959,310
858.650574,319
858.768188,317
858.885803,322
859.003479,315
859.121094,314
859.23877,317
859.356384,325
859.473999,324
859.591675,311
859.709229,330
859.826843,317
859.944458,301
860.062012,310
860.179626,316
860.297302,329
860.414856,315
860.532471,314
860.650024,309
860.767639,334
860.885193,308
861.002808,323
861.120361,299
861.237976,325
861.35553,315
861.473022,316
861.590698,318
861.708191,317
861.825745,308
861.943298,318
862.060852,302
862.178406,314
862.295959,322
862.413513,320
862.531006,315
862.64856,309
862.766113,322
862.883667,322
863.00116,314
863.118713,326
863.236206,312
863.353699,319
863.471252,310
863.588745,320
863.706177,321
863.82373,324
863.941162,313
864.058716,320
864.176208,319
864.29364,325
864.411194,317
864.528687,320
864.646118,311
864.763611,320
864.881042,322
864.998535,309
865.116028,318
865.233459,313
865.350891,308
865.468384,322
865.585754,304
865.703308,329
865.820679,318
865.938171,314
866.055542,306
866.173035,317
866.290466,310
866.407837,312
866.52533,315
866.6427,325
866.760071,318
866.877563,298
866.994934,317
867.112305,317
867.229736,317
867.347107,316
867.464539,319
867.58197,327
867.699341,310
867.81665,310
867.934082,323
868.051453,321
868.168823,325
868.286194,304
868.403564,322
868.520935,314
868.638306,309
868.755676,308
868.872986,321
868.990295,317
869.107727,323
869.225037,315
869.342346,317
869.459717,321
869.577026,312
869.694336,315
869.811707,306
869.929016,307
870.046326,315
870.163635,325
870.280945,321
870.398254,321
870.515564,325
870.632812,317
870.750183,319
870.867432,326
870.984741,316
871.102051,324
871.219299,323
871.336609,323
871.453918,314
871.571106,309
871.688416,322
871.805664,320
871.922852,313
872.040222,312
872.157471,302
872.274719,315
872.391968,308
872.509155,325
872.626465,311
872.743652,327
872.860962,317
872.978149,324
873.095337,300
873.212646,327
873.329834,317
873.44696,317
873.564209,294
873.681396,321
873.798645,316
873.915894,315
874.03302,315
874.150208,322
874.267456,328
874.384583,321
874.501831,315
874.618958,325
874.736145,306
874.853333,318
874.970459,330
875.087646,318
875.204834,319
875.32196,330
875.439148,312
875.556274,317
875.673401,318
875.790527,309
875.907715,324
876.024841,340
876.141968,318
876.259094,314
876.376282,322
876.493347,308
876.610474,335
876.7276,332
876.844727,318
876.961853,338
877.078918,320
877.195984,332
877.313171,322
877.430237,304
877.547302,307
877.664368,319
877.781433,309
877.898499,322
878.015625,310
878.13269,327
878.249695,313
878.366821,305
878.483887,328
878.600952,320
878.717957,312
878.834961,316
878.952087,324
879.069092,317
879.186157,321
879.303162,310
879.420227,319
879.537231,334
879.654236,329
879.77124,325
879.888306,319
880.005249,316
880.122314,313
880.239319,329
880.356323,312
880.473328,317
880.590271,317
880.707275,321
880.824341,317
880.941284,316
881.058228,325
881.175232,325
881.292236,309
881.40918,319
881.526123,317
881.643066,312
881.760071,310
881.877014,321
881.993958,323
882.11084,322
882.227783,314
882.344727,313
882.46167,317
882.578613,334
882.695618,315
882.812439,311
882.929382,327
883.046326,320
883.163208,324
883.280151,334
883.397034,310
883.513916,315
883.630798,314
883.747742,316
883.864563,306
883.981506,309
884.098389,315
884.21521,323
884.332153,310
884.448975,314
884.565796,319
884.682678,310
884.7995,313
884.916443,317
885.033264,321
885.150085,296
885.266968,320
885.383789,308
885.500671,326
885.617493,303
885.734314,314
885.851196,310
885.967896,315
886.084717,318
886.201599,312
886.318359,320
886.435181,313
886.552002,312
886.668762,302
886.785645,322
886.902344,315
887.019165,319
887.135925,314
887.252747,318
887.369446,322
887.486267,325
887.603027,293
887.719788,315
887.836548,324
887.953247,310
888.070068,316
888.186829,309
888.303528,310
888.420288,312
888.536987,314
888.653687,321
888.770447,322
888.887146,328
889.003967,311
889.120667,319
889.237305,304
889.354065,314
889.470703,310
889.587463,324
889.704163,311
889.820862,320
889.937561,328
890.054199,313
890.170837,318
890.287598,305
890.404236,311
890.520874,312
890.637634,322
890.754211,318
890.87085,304
890.987549,318
891.104187,302
891.220886,320
891.337463,320
891.454102,323
891.57074,307
891.687378,327
891.804077,322
891.920654,325
892.037231,305
892.15387,325
892.270447,300
892.387085,322
892.503723,306
892.6203,313
892.736877,316
892.853516,317
892.970032,322
893.08667,311
893.203186,315
893.319763,311
893.43634,308
893.552917,306
893.669556,317
893.786011,315
893.902588,310
894.019165,319
894.135681,326
894.252197,309
894.368835,310
894.485291,313
894.601868,306
894.718384,319
894.8349,316
894.951355,310
895.067932,310
895.184448,314
895.300964,314
895.417419,328
895.533936,315
895.650452,322
895.766907,299
895.883423,327
895.999878,304
896.116333,332
896.232849,312
896.349304,320
896.465759,309
896.582214,310
896.698669,312
896.815125,324
896.931641,307
897.048035,323
897.164551,311
897.280884,305
897.397339,333
897.513794,310
897.630249,318
897.746582,330
897.863098,309
897.979431,312
898.095886,326
898.212341,326
898.328674,320
898.445129,303
898.561462,325
898.677795,305
898.794312,305
898.910645,306
899.026978,296
899.143433,320
899.259766,326
899.37616,323
899.492493,321
899.608765,333
899.725159,314
899.841553,321
899.957947,318
900.07428,317
900.190552,305
900.306946,324
900.423157,313
900.53949,319
900.655884,322
900.772156,327
900.888489,313
901.004822,311
901.121033,321
901.237366,308
901.353699,302
901.46991,319
901.586304,315
901.702515,321
901.818787,320
901.93512,312
902.051331,314
902.167603,306
902.283875,312
902.400085,310
902.516418,319
902.632629,305
902.74884,304
902.865112,326
902.981384,320
903.097595,326
903.213867,325
903.330017,324
903.446289,324
903.5625,323
903.67865,299
903.794922,320
903.911072,317
904.027344,309
904.143494,325
904.259705,328
904.375916,312
904.492065,331
904.608215,309
904.724426,313
904.840576,314
904.956726,305
905.072876,302
905.189087,316
905.305176,324
905.421387,312
905.537537,305
905.653687,312
905.769775,306
905.885925,319
906.002014,319
906.118164,321
906.234314,310
906.350403,329
906.466492,316
906.582642,318
906.69873,317
906.814758,313
906.930908,308
907.046936,329
907.163086,327
907.279175,324
907.395264,310
907.511353,319
907.62738,308
907.743408,316
907.859497,319
907.975525,321
908.091553,332
908.207703,326
908.32373,310
908.439758,331
908.555786,309
908.671814,324
908.787842,308
908.90387,313
909.019775,322
909.135864,307
909.251892,312
909.367859,321
909.483826,316
909.599854,325
909.715881,321
909.831848,319
909.947815,308
910.063782,326
910.179749,316
910.295776,320
910.411743,304
910.527649,320
910.643616,311
910.759583,326
910.875488,316
910.991455,319
911.107361,324
911.223267,317
911.339294,322
911.4552,311
911.571106,309
911.687073,303
911.802979,326
911.918823,313
912.034729,313
912.150635,312
912.266602,309
912.382446,303
912.498352,314
912.614197,317
912.730103,325
912.846008,325
792.44574,300
792.56488,339
792.68396,392
792.80304,373
792.92218,328
793.041199,316
793.160339,312
793.279419,340
793.398499,311
793.517578,307
793.636658,326
793.755737,325
793.874817,340
793.993896,351
794.112976,328
794.232056,328
794.351074,308
794.470215,320
794.589233,319
794.708313,322
794.827393,325
794.946411,329
795.065552,327
795.18457,333
795.303589,324
795.422668,317
795.541687,320
795.660767,334
795.779846,333
795.898865,321
796.017883,329
796.136963,312
796.255981,315
796.375061,316
796.49408,317
796.613037,320
796.732117,319
796.851135,331
796.970154,340
797.089233,324
797.208191,325
797.327271,313
797.446228,323
797.565186,321
797.684265,322
797.803223,318
797.922241,326
798.04126,329
798.160278,333
798.279297,323
798.398315,336
798.517273,315
798.636292,331
798.75531,321
798.874268,325
798.993286,321
799.112244,333
799.231323,320
799.350281,331
799.469238,338
799.588257,324
799.707153,329
799.826111,332
799.945129,321
800.064087,312
800.183044,317
800.302063,318
800.421021,324
800.539978,311
800.658936,322
800.777893,320
800.896912,323
801.015747,332
801.134705,317
801.253723,311
801.37262,319
801.491638,318
801.610535,317
801.729492,331
801.84845,318
801.967407,328
802.086243,322
802.205261,318
802.324158,308
802.443115,317
802.562073,323
802.680969,316
802.799927,319
802.918762,331
803.037659,324
803.156677,326
803.275574,332
803.39447,311
803.513428,317
803.632263,318
803.751221,326
803.870117,331
803.989014,314
804.107971,315
804.226746,306
804.345642,320
804.4646,326
804.583496,320
804.702393,327
804.821228,332
804.940125,340
805.059021,333
805.177917,316
805.296814,324
805.415649,314
805.534546,325
805.653442,310
805.772278,329
805.891113,315
806.01001,328
806.128906,314
806.247742,311
806.366577,332
806.485413,322
806.604309,323
806.723145,305
806.84198,315
806.960876,323
807.079712,321
807.198486,315
807.317383,328
807.436218,318
807.554993,315
807.673889,316
807.792725,336
807.91156,316
808.030396,325
808.14917,319
808.268005,312
808.386841,336
808.505676,323
808.624451,321
808.743286,327
808.862122,316
808.980896,330
809.099731,326
809.218506,317
809.337341,324
809.456116,331
809.57489,317
809.693726,313
809.8125,330
809.931274,329
810.050049,317
810.168884,326
810.287659,323
810.406372,323
810.525269,319
810.643982,324
810.762756,333
810.881531,326
811.000305,313
811.11908,323
811.237854,320
811.356567,326
811.475403,314
811.594116,311
811.71283,321
811.831604,323
811.950378,330
812.069153,318
812.187927,332
812.30658,332
812.425415,321
812.544128,332
812.662781,320
812.781616,315
812.900269,330
813.019043,316
813.137756,313
813.256531,334
813.375244,327
813.493896,314
813.612671,322
813.731384,330
813.850037,320
813.96875,324
814.087524,322
814.206238,319
814.324951,329
814.443604,322
814.562256,321
814.68103,303
814.799683,335
814.918335,329
815.037109,323
815.155762,324
815.274475,324
815.393188,311
815.511841,325
815.630554,312
815.749146,326
815.867859,319
815.986572,325
816.105164,314
816.223877,333
816.342529,308
816.461182,315
816.579895,322
816.698486,319
816.817139,307
816.935791,314
817.054504,321
817.173096,319
817.291748,329
817.4104,321
817.529053,313
817.647644,310
817.766235,311
817.884949,329
818.00354,326
818.122192,321
818.240845,312
818.359436,322
818.478088,305
818.59668,315
818.715271,319
818.833923,328
818.952515,304
819.071106,319
819.189758,302
819.30835,327
819.426941,314
819.545532,320
819.664124,312
819.782715,319
819.901306,317
820.019897,328
820.138489,314
820.25708,315
820.375671,301
820.494202,313
820.612732,317
820.731384,319
820.849915,311
820.968506,300
821.087097,326
821.205627,305
821.324158,309
821.442749,319
821.561279,310
821.679871,317
821.798401,318
821.916931,317
822.035461,309
822.154053,317
822.272583,315
822.391174,309
822.509583,320
822.628174,323
822.746704,328
822.865234,327
822.983765,310
823.102295,322
823.220825,324
823.339294,317
823.457825,322
823.576355,319
823.694824,321
823.813354,321
823.931885,311
824.050354,306
824.168884,320
824.287354,319
824.405823,316
824.524353,314
824.642822,311
824.761353,308
824.879822,309
824.998291,321
825.116699,309
825.235291,299
825.353699,320
825.472168,316
825.590637,317
825.709106,326
825.827576,323
825.946045,311
826.064453,320
826.182983,319
826.301392,314
826.4198,310
826.53833,318
826.656738,328
826.775208,312
826.893677,316
827.012024,326
827.130493,315
827.248962,314
827.36731,322
827.485779,325
827.604248,295
827.722595,316
827.841064,297
827.959412,321
828.077942,309
828.196289,326
828.314636,307
828.433105,315
828.551514,322
828.669861,324
828.78833,312
828.906677,325
829.025085,317
829.143433,326
829.261841,317
829.38031,316
829.498657,308
829.617004,313
829.735413,321
829.85376,323
829.972107,326
830.090515,309
830.208862,324
830.327209,315
830.445557,314
830.563904,309
830.682312,313
830.800659,315
830.919006,316
831.037354,313
831.155701,317
831.274048,312
831.392395,321
831.51062,317
831.629028,316
831.747314,307
831.865662,317
831.984009,327
832.102356,305
832.220642,316
832.338928,316
832.457275,317
832.575623,319
832.693909,310
832.812134,317
832.930481,319
833.048828,301
833.167114,311
833.2854,292
833.403687,312
833.521973,313
833.640259,314
833.758545,320
833.876831,322
833.995056,313
834.113281,309
834.231628,310
834.349915,318
834.468201,324
834.586426,313
834.704651,318
834.822998,320
834.941162,313
835.059448,308
835.177673,323
835.295959,309
835.414246,310
835.53241,317
835.650635,318
835.768921,301
835.887146,318
836.005371,317
836.123596,316
836.241821,303
836.360046,301
836.478271,332
836.596497,310
836.714722,308
836.832886,319
836.95105,313
837.069336,326
837.1875,309
837.305725,321
837.423889,313
837.542053,304
837.660339,325
837.778503,322
837.896667,323
838.014832,316
838.132996,321
838.25116,321
838.369385,306
838.487488,311
838.605713,313
838.723877,318
838.84198,311
838.960205,317
839.078308,318
839.196472,307
839.314636,315
839.4328,316
839.550964,316
839.669067,308
839.787231,322
839.905396,307
840.023499,312
840.141602,303
840.259766,315
840.377869,315
840.495972,307
840.614136,317
840.732239,315
840.850342,312
840.968445,311
841.086548,310
841.204651,309
841.322754,320
841.440918,314
841.55896,306
841.677002,315
841.795166,322
841.913208,307
842.031311,321
842.149353,314
842.267456,322
842.385498,321
842.503601,318
842.621643,303
842.739746,313
842.857788,302
842.97583,321
843.093933,335
843.211975,315
843.330017,314
843.44812,321
843.566101,328
843.684204,312
843.802246,323
843.920227,320
844.038269,319
844.156311,312
844.274292,326
844.392395,318
844.510376,312
844.628357,305
844.74646,314
844.864441,328
844.982422,332
845.100403,318
845.218384,329
845.336426,312
845.454468,313
845.572449,310
845.69043,306
845.808411,317
845.926453,322
846.044373,319
846.162354,330
846.280396,323
846.398315,306
846.516296,313
846.634216,307
846.752197,318
846.870178,320
846.988098,331
847.106079,320
847.22406,316
847.34198,319
847.4599,323
847.577881,321
847.695801,316
847.813782,318
847.931641,317
848.049561,331
848.167603,316
848.285461,315
848.403381,314
848.521362,316
848.639221,314
848.75708,310
848.875,310
848.99292,317
849.110901,317
849.22876,314
849.34668,312
849.464539,318
849.582458,319
849.700317,323
849.818176,329
849.936096,321
850.053955,309
850.171875,318
850.289673,314
850.407593,319
850.525452,313
850.643311,305
850.761169,311
850.878967,327
850.996887,307
851.114746,311
851.232544,322
851.350403,321
851.468262,309
851.58606,329
851.703979,302
851.821777,331
851.939636,333
852.057434,317
852.175232,315
852.293091,315
852.410889,310
852.528687,316
852.646545,311
852.764343,326
852.88208,312
852.999939,321
853.117676,313
853.235535,333
853.353271,326
853.471069,315
853.588928,315
853.706604,308
853.824402,325
853.9422,305
854.059998,309
854.177734,309
854.295532,331
854.413269,319
854.531006,311
854.648804,311
854.766541,325
854.884277,317
855.002014,321
855.119751,322
855.237549,327
855.355225,313
855.473022,314
855.590698,316
855.708435,312
855.826172,313
855.943848,316
856.061646,322
856.179321,319
856.296997,322
856.414795,303
856.53241,316
856.650085,318
856.767822,312
856.885559,330
857.003174,331
857.120911,321
857.238586,308
857.356201,307
857.473938,315
857.591614,318
857.709351,316
857.826965,311
857.944641,311
858.062317,322
858.179993,322
858.297668,309
858.415283,312
858.532959,316
858.650574,317
858.768188,326
858.885803,320
859.003479,311
859.121094,319
859.23877,305
859.356384,317
859.473999,319
859.591675,311
859.709229,322
859.826843,331
859.944458,302
860.062012,310
860.179626,303
860.297302,310
860.414856,305
860.532471,321
860.650024,321
860.767639,307
860.885193,318
861.002808,321
861.120361,323
861.237976,317
861.35553,327
861.473022,316
861.590698,313
861.708191,323
861.825745,317
861.943298,315
862.060852,307
862.178406,317
862.295959,312
862.413513,294
862.531006,316
862.64856,326
862.766113,311
862.883667,321
863.00116,326
863.118713,326
863.236206,325
863.353699,309
863.471252,318
863.588745,318
863.706177,319
863.82373,318
863.941162,311
864.058716,318
864.176208,313
864.29364,320
864.411194,314
864.528687,319
864.646118,314
864.763611,322
864.881042,310
864.998535,316
865.116028,314
865.233459,313
865.350891,313
865.468384,312
865.585754,318
865.703308,317
865.820679,318
865.938171,323
866.055542,305
866.173035,308
866.290466,323
866.407837,315
866.52533,323
866.6427,331
866.760071,318
866.877563,312
866.994934,320
867.112305,329
867.229736,318
867.347107,322
867.464539,304
867.58197,326
867.699341,317
867.81665,311
867.934082,324
868.051453,323
868.168823,321
868.286194,310
868.403564,318
868.520935,311
868.638306,311
868.755676,304
868.872986,310
868.990295,318
869.107727,320
869.225037,317
869.342346,308
869.459717,298
869.577026,316
869.694336,314
869.811707,316
869.929016,313
870.046326,324
870.163635,313
870.280945,317
870.398254,326
870.515564,312
870.632812,314
870.750183,320
870.867432,320
870.984741,310
871.102051,301
871.219299,312
871.336609,318
871.453918,306
871.571106,307
871.688416,323
871.805664,324
871.922852,318
872.040222,321
872.157471,319
872.274719,315
872.391968,311
872.509155,301
872.626465,313
872.743652,316
872.860962,317
872.978149,320
873.095337,314
873.212646,333
873.329834,326
873.44696,309
873.564209,311
873.681396,317
873.798645,320
873.915894,313
874.03302,321
874.150208,306
874.267456,305
874.384583,310
874.501831,307
874.618958,315
874.736145,322
874.853333,326
874.970459,322
875.087646,315
875.204834,317
875.32196,323
875.439148,325
875.556274,326
875.673401,320
875.790527,320
875.907715,330
876.024841,314
876.141968,325
876.259094,321
876.376282,315
876.493347,311
876.610474,307
876.7276,320
876.844727,298
876.961853,329
877.078918,307
877.195984,325
877.313171,322
877.430237,311
877.547302,305
877.664368,328
877.781433,325
877.898499,310
878.015625,315
878.13269,313
878.249695,301
878.366821,313
878.483887,319
878.600952,309
878.717957,309
878.834961,313
878.952087,319
879.069092,325
879.186157,316
879.303162,318
879.420227,301
879.537231,319
879.654236,312
879.77124,319
879.888306,322
880.005249,310
880.122314,313
880.239319,313
880.356323,314
880.473328,324
880.590271,331
880.707275,318
880.824341,320
880.941284,313
881.058228,320
881.175232,319
881.292236,319
881.40918,303
881.526123,314
881.643066,311
881.760071,315
881.877014,302
881.993958,313
882.11084,312
882.227783,307
882.344727,317
882.46167,308
882.578613,322
882.695618,323
882.812439,319
882.929382,320
883.046326,313
883.163208,329
883.280151,309
883.397034,318
883.513916,316
883.630798,304
883.747742,329
883.864563,321
883.981506,326
884.098389,335
884.21521,311
884.332153,315
884.448975,324
884.565796,313
884.682678,317
884.7995,314
884.916443,314
885.033264,325
885.150085,325
885.266968,320
885.383789,315
885.500671,317
885.617493,312
885.734314,312
885.851196,297
885.967896,304
886.084717,325
886.201599,311
886.318359,311
886.435181,303
886.552002,319
886.668762,310
886.785645,318
886.902344,316
887.019165,323
887.135925,309
887.252747,324
887.369446,303
887.486267,315
887.603027,316
887.719788,313
887.836548,323
887.953247,313
888.070068,305
888.186829,318
888.303528,317
888.420288,328
888.536987,313
888.653687,316
888.770447,309
888.887146,325
889.003967,329
889.120667,309
889.237305,313
889.354065,311
889.470703,313
889.587463,315
889.704163,320
889.820862,328
889.937561,329
890.054199,315
890.170837,313
890.287598,320
890.404236,320
890.520874,320
890.637634,323
890.754211,323
890.87085,315
890.987549,322
891.104187,329
891.220886,314
891.337463,330
891.454102,312
891.57074,311
891.687378,331
891.804077,311
891.920654,322
892.037231,314
892.15387,322
892.270447,312
892.387085,314
892.503723,317
892.6203,321
892.736877,320
892.853516,311
892.970032,308
893.08667,312
893.203186,308
893.319763,316
893.43634,318
893.552917,305
893.669556,320
893.786011,332
893.902588,320
894.019165,325
894.135681,306
894.252197,325
894.368835,320
894.485291,319
894.601868,325
894.718384,318
894.8349,307
894.951355,324
895.067932,317
895.184448,320
895.300964,325
895.417419,311
895.533936,325
895.650452,318
895.766907,307
895.883423,309
895.999878,334
896.116333,316
896.232849,316
896.349304,315
896.465759,308
896.582214,315
896.698669,320
896.815125,331
896.931641,311
897.048035,315
897.164551,315
897.280884,311
897.397339,309
897.513794,313
897.630249,306
897.746582,310
897.863098,318
897.979431,315
898.095886,320
898.212341,311
898.328674,321
898.445129,312
898.561462,314
898.677795,319
898.794312,317
898.910645,323
899.026978,315
899.143433,310
899.259766,317
899.37616,315
899.492493,317
899.608765,325
899.725159,301
899.841553,315
899.957947,325
900.07428,321
900.190552,311
900.306946,318
900.423157,320
900.53949,316
900.655884,331
900.772156,312
900.888489,319
901.004822,323
901.121033,314
901.237366,324
901.353699,322
901.46991,314
901.586304,336
901.702515,311
901.818787,323
901.93512,325
902.051331,310
902.167603,319
902.283875,312
902.400085,324
902.516418,316
902.632629,311
902.74884,311
902.865112,333
902.981384,316
903.097595,314
903.213867,317
903.330017,329
903.446289,318
903.5625,330
903.67865,326
903.794922,317
903.911072,332
904.027344,326
904.143494,328
904.259705,311
904.375916,319
904.492065,311
904.608215,312
904.724426,320
904.840576,319
904.956726,318
905.072876,324
905.189087,327
905.305176,309
905.421387,307
905.537537,327
905.653687,317
905.769775,308
905.885925,319
906.002014,317
906.118164,313
906.234314,316
906.350403,311
906.466492,320
906.582642,314
906.69873,304
906.814758,324
906.930908,299
907.046936,323
907.163086,309
907.279175,313
907.395264,324
907.511353,325
907.62738,316
907.743408,328
907.859497,311
907.975525,323
908.091553,317
908.207703,325
908.32373,334
908.439758,318
908.555786,324
908.671814,316
908.787842,320
908.90387,344
909.019775,316
909.135864,315
909.251892,310
909.367859,319
909.483826,316
909.599854,324
909.715881,321
909.831848,325
909.947815,321
910.063782,330
910.179749,316
910.295776,321
910.411743,312
910.527649,310
910.643616,304
910.759583,313
910.875488,313
910.991455,314
911.107361,326
911.223267,329
911.339294,315
911.4552,320
911.571106,314
911.687073,313
911.802979,312
911.918823,319
912.034729,309
912.150635,313
912.266602,330
912.382446,311
912.498352,319
912.614197,317
912.730103,304
912.846008,325
792.44574,301
792.56488,338
792.68396,387
792.80304,364
792.92218,330
793.041199,306
793.160339,312
793.279419,319
793.398499,337
793.517578,316
793.636658,308
793.755737,313
793.874817,340
793.993896,349
794.112976,311
794.232056,328
794.351074,311
794.470215,326
794.589233,320
794.708313,326
794.827393,339
794.946411,327
795.065552,330
795.18457,313
795.303589,335
795.422668,326
795.541687,329
795.660767,334
795.779846,332
795.898865,333
796.017883,331
796.136963,325
796.255981,329
796.375061,304
796.49408,332
796.613037,324
796.732117,317
796.851135,319
796.970154,323
797.089233,316
797.208191,325
797.327271,317
797.446228,329
797.565186,310
797.684265,321
797.803223,319
797.922241,313
798.04126,321
798.160278,332
798.279297,313
798.398315,334
798.517273,328
798.636292,322
798.75531,314
798.874268,318
798.993286,325
799.112244,314
799.231323,315
799.350281,322
799.469238,332
799.588257,323
799.707153,317
799.826111,324
799.945129,329
800.064087,339
800.183044,325
800.302063,309
800.421021,326
800.539978,338
800.658936,320
800.777893,322
800.896912,317
801.015747,341
801.134705,304
801.253723,328
801.37262,319
801.491638,304
801.610535,316
801.729492,316
801.84845,312
801.967407,338
802.086243,309
802.205261,324
802.324158,315
802.443115,325
802.562073,322
802.680969,318
802.799927,326
802.918762,315
803.037659,320
803.156677,318
803.275574,323
803.39447,312
803.513428,318
803.632263,319
803.751221,336
803.870117,318
803.989014,328
804.107971,322
804.226746,321
804.345642,316
804.4646,316
804.583496,324
804.702393,318
804.821228,331
804.940125,307
805.059021,324
805.177917,306
805.296814,316
805.415649,317
805.534546,327
805.653442,332
805.772278,320
805.891113,321
806.01001,319
806.128906,323
806.247742,314
806.366577,313
806.485413,320
806.604309,316
806.723145,329
806.84198,332
806.960876,318
807.079712,326
807.198486,327
807.317383,310
807.436218,325
807.554993,315
807.673889,329
807.792725,320
807.91156,312
808.030396,323
808.14917,317
808.268005,322
808.386841,322
808.505676,334
808.624451,320
808.743286,319
808.862122,324
808.980896,316
809.099731,323
809.218506,317
809.337341,322
809.456116,321
809.57489,318
809.693726,321
809.8125,323
809.931274,331
810.050049,309
810.168884,332
810.287659,328
810.406372,312
810.525269,322
810.643982,322
810.762756,308
810.881531,320
811.000305,321
811.11908,314
811.237854,329
811.356567,323
811.475403,322
811.594116,315
811.71283,327
811.831604,312
811.950378,322
812.069153,322
812.187927,322
812.30658,317
812.425415,328
812.544128,310
812.662781,329
812.781616,307
812.900269,323
813.019043,310
813.137756,320
813.256531,319
813.375244,311
813.493896,329
813.612671,301
813.731384,332
813.850037,324
813.96875,338
814.087524,316
814.206238,323
814.324951,333
814.443604,322
814.562256,325
814.68103,301
814.799683,305
814.918335,309
815.037109,327
815.155762,315
815.274475,325
815.393188,318
815.511841,325
815.630554,314
815.749146,301
815.867859,311
815.986572,314
816.105164,315
816.223877,322
816.342529,326
816.461182,332
816.579895,315
816.698486,316
816.817139,316
816.935791,306
817.054504,311
817.173096,327
817.291748,310
817.4104,320
817.529053,307
817.647644,317
817.766235,309
817.884949,310
818.00354,327
818.122192,319
818.240845,310
818.359436,323
818.478088,307
818.59668,310
818.715271,313
818.833923,326
818.952515,319
819.071106,316
819.189758,319
819.30835,317
819.426941,312
819.545532,317
819.664124,311
819.782715,309
819.901306,307
820.019897,321
820.138489,315
820.25708,320
820.375671,317
820.494202,324
820.612732,310
820.731384,323
820.849915,310
820.968506,325
821.087097,321
821.205627,314
821.324158,321
821.442749,323
821.561279,310
821.679871,330
821.798401,306
821.916931,305
822.035461,306
822.154053,310
822.272583,311
822.391174,324
822.509583,309
822.628174,334
822.746704,311
822.865234,317
822.983765,309
823.102295,316
823.220825,322
823.339294,315
823.457825,330
823.576355,322
823.694824,317
823.813354,309
823.931885,309
824.050354,308
824.168884,319
824.287354,312
824.405823,323
824.524353,324
824.642822,312
824.761353,305
824.879822,313
824.998291,324
825.116699,306
825.235291,314
825.353699,314
825.472168,307
825.590637,323
825.709106,323
825.827576,322
825.946045,313
826.064453,312
826.182983,335
826.301392,314
826.4198,323
826.53833,307
826.656738,310
826.775208,326
826.893677,324
827.012024,308
827.130493,316
827.248962,323
827.36731,313
827.485779,314
827.604248,321
827.722595,305
827.841064,314
827.959412,301
828.077942,317
828.196289,320
828.314636,326
828.433105,300
828.551514,319
828.669861,334
828.78833,310
828.906677,310
829.025085,319
829.143433,321
829.261841,315
829.38031,303
829.498657,317
829.617004,313
829.735413,314
829.85376,312
829.972107,319
830.090515,311
830.208862,306
830.327209,329
830.445557,310
830.563904,319
830.682312,312
830.800659,311
830.919006,309
831.037354,316
831.155701,322
831.274048,321
831.392395,306
831.51062,307
831.629028,314
831.747314,320
831.865662,312
831.984009,327
832.102356,321
832.220642,308
832.338928,312
832.457275,312
832.575623,301
832.693909,303
832.812134,321
832.930481,304
833.048828,316
833.167114,300
833.2854,322
833.403687,297
833.521973,321
833.640259,315
833.758545,321
833.876831,317
833.995056,319
834.113281,316
834.231628,322
834.349915,312
834.468201,319
834.586426,315
834.704651,322
834.822998,310
834.941162,327
835.059448,317
835.177673,317
835.295959,308
835.414246,318
835.53241,310
835.650635,308
835.768921,317
835.887146,328
836.005371,306
836.123596,326
836.241821,306
836.360046,318
836.478271,307
836.596497,310
836.714722,320
836.832886,323
836.95105,321
837.069336,328
837.1875,314
837.305725,316
837.423889,301
837.542053,317
837.660339,295
837.778503,320
837.896667,338
838.014832,323
838.132996,315
838.25116,313
838.369385,326
838.487488,324
838.605713,321
838.723877,323
838.84198,315
838.960205,322
839.078308,306
839.196472,332
839.314636,312
839.4328,317
839.550964,326
839.669067,318
839.787231,304
839.905396,331
840.023499,321
840.141602,324
840.259766,305
840.377869,323
840.495972,314
840.614136,318
840.732239,318
840.850342,319
840.968445,313
841.086548,316
841.204651,311
841.322754,311
841.440918,310
841.55896,303
841.677002,304
841.795166,323
841.913208,314
842.031311,311
842.149353,309
842.267456,319
842.385498,311
842.503601,309
842.621643,310
842.739746,310
842.857788,322
842.97583,316
843.093933,328
843.211975,332
843.330017,323
843.44812,324
843.566101,304
843.684204,324
843.802246,317
843.920227,319
844.038269,304
844.156311,317
844.274292,302
844.392395,318
844.510376,316
844.628357,319
844.74646,317
844.864441,311
844.982422,307
845.100403,324
845.218384,313
845.336426,324
845.454468,312
845.572449,311
845.69043,320
845.808411,314
845.926453,318
846.044373,317
846.162354,318
846.280396,321
846.398315,321
846.516296,319
846.634216,323
846.752197,319
846.870178,302
846.988098,315
847.106079,313
847.22406,314
847.34198,314
847.4599,302
847.577881,311
847.695801,314
847.813782,309
847.931641,320
848.049561,305
848.167603,316
848.285461,295
848.403381,321
848.521362,311
848.639221,325
848.75708,313
848.875,308
848.99292,318
849.110901,316
849.22876,325
849.34668,319
849.464539,320
849.582458,308
849.700317,316
849.818176,319
849.936096,314
850.053955,317
850.171875,315
850.289673,329
850.407593,318
850.525452,317
850.643311,316
850.761169,320
850.878967,315
850.996887,331
851.114746,321
851.232544,323
851.350403,308
851.468262,318
851.58606,311
851.703979,317
851.821777,306
851.939636,303
852.057434,318
852.175232,335
852.293091,316
852.410889,323
852.528687,306
852.646545,321
852.764343,304
852.88208,322
852.999939,328
853.117676,304
853.235535,319
853.353271,322
853.471069,317
853.588928,303
853.706604,311
853.824402,309
853.9422,321
854.059998,319
854.177734,320
854.295532,323
854.413269,313
854.531006,316
854.648804,312
854.766541,317
854.884277,311
855.002014,332
855.119751,302
855.237549,323
855.355225,311
855.473022,309
855.590698,312
855.708435,325
855.826172,319
855.943848,323
856.061646,306
856.179321,302
856.296997,320
856.414795,325
856.53241,308
856.650085,307
856.767822,306
856.885559,317
857.003174,325
857.120911,330
857.238586,310
857.356201,316
857.473938,304
857.591614,312
857.709351,295
857.826965,321
857.944641,297
858.062317,317
858.179993,319
858.297668,316
858.415283,303
858.532959,304
858.650574,319
858.768188,310
858.885803,314
859.003479,316
859.121094,312
859.23877,321
859.356384,317
859.473999,321
859.591675,319
859.709229,305
859.826843,309
859.944458,331
860.062012,315
860.179626,305
860.297302,309
860.414856,327
860.532471,311
860.650024,312
860.767639,319
860.885193,323
861.002808,315
861.120361,330
861.237976,313
861.35553,318
861.473022,319
861.590698,310
861.708191,319
861.825745,315
861.943298,317
862.060852,325
862.178406,316
862.295959,317
862.413513,318
862.531006,312
862.64856,306
862.766113,316
862.883667,318
863.00116,312
863.118713,313
863.236206,318
863.353699,316
863.471252,307
863.588745,312
863.706177,321
863.82373,305
863.941162,329
864.058716,311
864.176208,299
864.29364,317
864.411194,314
864.528687,309
864.646118,318
864.763611,314
864.881042,313
864.998535,315
865.116028,319
865.233459,313
865.350891,329
865.468384,317
865.585754,309
865.703308,320
865.820679,316
865.938171,305
866.055542,317
866.173035,304
866.290466,325
866.407837,314
866.52533,314
866.6427,303
866.760071,311
866.877563,312
866.994934,313
867.112305,310
867.229736,318
867.347107,305
867.464539,313
867.58197,314
867.699341,315
867.81665,309
867.934082,314
868.051453,321
868.168823,316
868.286194,315
868.403564,326
868.520935,307
868.638306,321
868.755676,311
868.872986,319
868.990295,311
869.107727,328
869.225037,305
869.342346,319
869.459717,312
869.577026,319
869.694336,299
869.811707,317
869.929016,319
870.046326,328
870.163635,309
870.280945,314
870.398254,311
870.515564,329
870.632812,324
870.750183,329
870.867432,319
870.984741,328
871.102051,326
871.219299,309
871.336609,316
871.453918,310
871.571106,287
871.688416,323
871.805664,302
871.922852,317
872.040222,308
872.157471,333
872.274719,312
872.391968,330
872.509155,317
872.626465,332
872.743652,312
872.860962,311
872.978149,318
873.095337,316
873.212646,330
873.329834,321
873.44696,322
873.564209,311
873.681396,313
873.798645,340
873.915894,319
874.03302,314
874.150208,316
874.267456,316
874.384583,299
874.501831,312
874.618958,311
874.736145,317
874.853333,320
874.970459,309
875.087646,324
875.204834,320
875.32196,322
875.439148,327
875.556274,294
875.673401,320
875.790527,315
875.907715,316
876.024841,303
876.141968,317
876.259094,313
876.376282,323
876.493347,312
876.610474,314
876.7276,309
876.844727,306
876.961853,317
877.078918,309
877.195984,304
877.313171,316
877.430237,326
877.547302,326
877.664368,309
877.781433,321
877.898499,314
878.015625,326
878.13269,321
878.249695,324
878.366821,303
878.483887,328
878.600952,309
878.717957,313
878.834961,307
878.952087,331
879.069092,306
879.186157,321
879.303162,323
879.420227,319
879.537231,306
879.654236,320
879.77124,307
879.888306,325
880.005249,308
880.122314,320
880.239319,313
880.356323,327
880.473328,315
880.590271,326
880.707275,319
880.824341,313
880.941284,320
881.058228,326
881.175232,303
881.292236,312
881.40918,305
881.526123,322
881.643066,319
881.760071,335
881.877014,325
881.993958,311
882.11084,315
882.227783,302
882.344727,319
882.46167,321
882.578613,318
882.695618,319
882.812439,308
882.929382,316
883.046326,305
883.163208,314
883.280151,300
883.397034,321
883.513916,321
883.630798,325
883.747742,309
883.864563,326
883.981506,310
884.098389,317
884.21521,309
884.332153,314
884.448975,320
884.565796,320
884.682678,314
884.7995,312
884.916443,321
885.033264,325
885.150085,315
885.266968,324
885.383789,310
885.500671,325
885.617493,308
885.734314,332
885.851196,300
885.967896,323
886.084717,317
886.201599,323
886.318359,309
886.435181,314
886.552002,323
886.668762,325
886.785645,321
886.902344,329
887.019165,308
887.135925,317
887.252747,313
887.369446,326
887.486267,316
887.603027,316
887.719788,319
887.836548,307
887.953247,314
888.070068,320
888.186829,308
888.303528,314
888.420288,314
888.536987,321
888.653687,313
888.770447,309
888.887146,319
889.003967,321
889.120667,331
889.237305,315
889.354065,298
889.470703,315
889.587463,319
889.704163,322
889.820862,317
889.937561,326
890.054199,314
890.170837,316
890.287598,317
890.404236,304
890.520874,311
890.637634,316
890.754211,321
890.87085,320
890.987549,318
891.104187,320
891.220886,316
891.337463,316
891.454102,316
891.57074,311
891.687378,321
891.804077,315
891.920654,326
892.037231,329
892.15387,323
892.270447,323
892.387085,320
892.503723,320
892.6203,311
892.736877,327
892.853516,311
892.970032,318
893.08667,316
893.203186,316
893.319763,311
893.43634,298
893.552917,314
893.669556,314
893.786011,323
893.902588,320
894.019165,312
894.135681,319
894.252197,311
894.368835,325
894.485291,321
894.601868,313
894.718384,310
894.8349,317
894.951355,312
895.067932,323
895.184448,326
895.300964,326
895.417419,319
895.533936,312
895.650452,314
895.766907,324
895.883423,313
895.999878,331
896.116333,318
896.232849,319
896.349304,316
896.465759,318
896.582214,306
896.698669,322
896.815125,309
896.931641,320
897.048035,323
897.164551,319
897.280884,314
897.397339,327
897.513794,312
897.630249,319
897.746582,321
897.863098,319
897.979431,315
898.095886,318
898.212341,307
898.328674,325
898.445129,326
898.561462,329
898.677795,304
898.794312,325
898.910645,322
899.026978,320
899.143433,325
899.259766,312
899.37616,323
899.492493,306
899.608765,318
899.725159,312
899.841553,325
899.957947,311
900.07428,325
900.190552,316
900.306946,311
900.423157,306
900.53949,312
900.655884,314
900.772156,312
900.888489,327
901.004822,314
901.121033,324
901.237366,311
901.353699,315
901.46991,314
901.586304,321
901.702515,301
901.818787,336
901.93512,310
902.051331,318
902.167603,305
902.283875,321
902.400085,305
902.516418,321
902.632629,302
902.74884,318
902.865112,306
902.981384,325
903.097595,325
903.213867,319
903.330017,308
903.446289,326
903.5625,324
903.67865,328
903.794922,315
903.911072,326
904.027344,303
904.143494,311
904.259705,318
904.375916,303
904.492065,311
904.608215,326
904.724426,298
904.840576,312
904.956726,315
905.072876,317
905.189087,309
905.305176,316
905.421387,308
905.537537,316
905.653687,302
905.769775,329
905.885925,312
906.002014,324
906.118164,308
906.234314,324
906.350403,319
906.466492,309
906.582642,297
906.69873,324
906.814758,317
906.930908,325
907.046936,315
907.163086,324
907.279175,317
907.395264,321
907.511353,306
907.62738,319
907.743408,315
907.859497,316
907.975525,308
908.091553,315
908.207703,306
908.32373,327
908.439758,320
908.555786,327
908.671814,321
908.787842,319
908.90387,315
909.019775,315
909.135864,317
909.251892,324
909.367859,309
909.483826,306
909.599854,315
909.715881,314
909.831848,312
909.947815,329
910.063782,328
910.179749,329
910.295776,318
910.411743,332
910.527649,319
910.643616,334
910.759583,305
910.875488,322
910.991455,318
911.107361,315
911.223267,304
911.339294,306
911.4552,324
911.571106,309
911.687073,298
911.802979,327
911.918823,316
912.034729,316
912.150635,303
912.266602,311
912.382446,313
912.498352,317
912.614197,318
912.730103,315
912.846008,304
