792.44574,302
792.56488,350
792.68396,386
792.80304,372
792.92218,308
793.041199,312
793.160339,314
793.279419,325
793.398499,339
793.517578,289
793.636658,322
793.755737,325
793.874817,344
793.993896,331
794.112976,328
794.232056,326
794.351074,324
794.470215,319
794.589233,321
794.708313,324
794.827393,317
794.946411,318
795.065552,333
795.18457,330
795.303589,326
795.422668,327
795.541687,326
795.660767,320
795.779846,324
795.898865,318
796.017883,326
796.136963,320
796.255981,322
796.375061,319
796.49408,334
796.613037,316
796.732117,315
796.851135,329
796.970154,331
797.089233,317
797.208191,330
797.327271,326
797.446228,324
797.565186,330
797.684265,323
797.803223,324
797.922241,331
798.04126,327
798.160278,317
798.279297,323
798.398315,316
798.517273,321
798.636292,314
798.75531,324
798.874268,327
798.993286,307
799.112244,310
799.231323,314
799.350281,322
799.469238,330
799.588257,318
799.707153,321
799.826111,317
799.945129,321
800.064087,331
800.183044,315
800.302063,316
800.421021,324
800.539978,311
800.658936,325
800.777893,320
800.896912,327
801.015747,327
801.134705,314
801.253723,312
801.37262,329
801.491638,321
801.610535,317
801.729492,313
801.84845,326
801.967407,317
802.086243,328
802.205261,313
802.324158,325
802.443115,313
802.562073,308
802.680969,329
802.799927,318
802.918762,319
803.037659,312
803.156677,331
803.275574,321
803.39447,332
803.513428,321
803.632263,317
803.751221,315
803.870117,324
803.989014,321
804.107971,338
804.226746,307
804.345642,323
804.4646,303
804.583496,330
804.702393,313
804.821228,313
804.940125,315
805.059021,314
805.177917,315
805.296814,302
805.415649,312
805.534546,325
805.653442,317
805.772278,318
805.891113,312
806.01001,305
806.128906,324
806.247742,308
806.366577,324
806.485413,306
806.604309,310
806.723145,331
806.84198,310
806.960876,325
807.079712,322
807.198486,328
807.317383,307
807.436218,313
807.554993,315
807.673889,333
807.792725,321
807.91156,318
808.030396,325
808.14917,328
808.268005,322
808.386841,313
808.505676,321
808.624451,317
808.743286,322
808.862122,314
808.980896,308
809.099731,317
809.218506,312
809.337341,317
809.456116,311
809.57489,309
809.693726,313
809.8125,311
809.931274,345
810.050049,312
810.168884,321
810.287659,317
810.406372,317
810.525269,298
810.643982,318
810.762756,315
810.881531,315
811.000305,316
811.11908,311
811.237854,320
811.356567,322
811.475403,336
811.594116,301
811.71283,325
811.831604,313
811.950378,332
812.069153,321
812.187927,309
812.30658,308
812.425415,318
812.544128,332
812.662781,318
812.781616,308
812.900269,312
813.019043,322
813.137756,312
813.256531,326
813.375244,322
813.493896,320
813.612671,323
813.731384,322
813.850037,309
813.96875,304
814.087524,312
814.206238,322
814.324951,321
814.443604,323
814.562256,308
814.68103,314
814.799683,327
814.918335,322
815.037109,319
815.155762,324
815.274475,312
815.393188,317
815.511841,322
815.630554,327
815.749146,322
815.867859,318
815.986572,298
816.105164,307
816.223877,327
816.342529,312
816.461182,324
816.579895,317
816.698486,314
816.817139,311
816.935791,319
817.054504,325
817.173096,330
817.291748,324
817.4104,312
817.529053,318
817.647644,324
817.766235,315
817.884949,317
818.00354,313
818.122192,317
818.240845,320
818.359436,311
818.478088,319
818.59668,334
818.715271,323
818.833923,318
818.952515,309
819.071106,317
819.189758,322
819.30835,311
819.426941,332
819.545532,320
819.664124,308
819.782715,316
819.901306,329
820.019897,307
820.138489,329
820.25708,305
820.375671,321
820.494202,314
820.612732,340
820.731384,320
820.849915,324
820.968506,316
821.087097,323
821.205627,321
821.324158,324
821.442749,312
821.561279,327
821.679871,313
821.798401,307
821.916931,327
822.035461,314
822.154053,311
822.272583,313
822.391174,314
822.509583,322
822.628174,313
822.746704,322
822.865234,312
822.983765,331
823.102295,324
823.220825,310
823.339294,318
823.457825,317
823.576355,317
823.694824,319
823.813354,307
823.931885,301
824.050354,305
824.168884,307
824.287354,318
824.405823,301
824.524353,302
824.642822,316
824.761353,320
824.879822,305
824.998291,321
825.116699,312
825.235291,326
825.353699,311
825.472168,314
825.590637,330
825.709106,303
825.827576,310
825.946045,319
826.064453,308
826.182983,316
826.301392,319
826.4198,307
826.53833,322
826.656738,322
826.775208,313
826.893677,316
827.012024,318
827.130493,323
827.248962,324
827.36731,312
827.485779,311
827.604248,311
827.722595,315
827.841064,321
827.959412,314
828.077942,317
828.196289,308
828.314636,295
828.433105,315
828.551514,318
828.669861,312
828.78833,313
828.906677,319
829.025085,320
829.143433,322
829.261841,308
829.38031,327
829.498657,310
829.617004,323
829.735413,302
829.85376,321
829.972107,319
830.090515,325
830.208862,312
830.327209,321
830.445557,308
830.563904,314
830.682312,323
830.800659,311
830.919006,311
831.037354,326
831.155701,311
831.274048,315
831.392395,309
831.51062,300
831.629028,314
831.747314,314
831.865662,311
831.984009,322
832.102356,307
832.220642,318
832.338928,312
832.457275,331
832.575623,313
832.693909,315
832.812134,318
832.930481,325
833.048828,326
833.167114,310
833.2854,303
833.403687,313
833.521973,312
833.640259,322
833.758545,315
833.876831,323
833.995056,317
834.113281,319
834.231628,319
834.349915,323
834.468201,310
834.586426,304
834.704651,310
834.822998,306
834.941162,335
835.059448,319
835.177673,308
835.295959,321
835.414246,317
835.53241,320
835.650635,320
835.768921,311
835.887146,302
836.005371,326
836.123596,324
836.241821,311
836.360046,312
836.478271,308
836.596497,314
836.714722,314
836.832886,307
836.95105,321
837.069336,304
837.1875,333
837.305725,312
837.423889,328
837.542053,314
837.660339,315
837.778503,320
837.896667,312
838.014832,317
838.132996,322
838.25116,302
838.369385,322
838.487488,306
838.605713,320
838.723877,316
838.84198,322
838.960205,325
839.078308,312
839.196472,316
839.314636,321
839.4328,315
839.550964,319
839.669067,310
839.787231,333
839.905396,319
840.023499,307
840.141602,317
840.259766,305
840.377869,308
840.495972,336
840.614136,311
840.732239,313
840.850342,321
840.968445,309
841.086548,311
841.204651,324
841.322754,318
841.440918,308
841.55896,313
841.677002,320
841.795166,319
841.913208,322
842.031311,306
842.149353,321
842.267456,311
842.385498,313
842.503601,313
842.621643,311
842.739746,310
842.857788,320
842.97583,325
843.093933,323
843.211975,327
843.330017,310
843.44812,304
843.566101,318
843.684204,314
843.802246,305
843.920227,313
844.038269,316
844.156311,312
844.274292,323
844.392395,318
844.510376,319
844.628357,319
844.74646,317
844.864441,309
844.982422,329
845.100403,323
845.218384,309
845.336426,303
845.454468,307
845.572449,311
845.69043,317
845.808411,325
845.926453,319
846.044373,311
846.162354,321
846.280396,321
846.398315,325
846.516296,299
846.634216,315
846.752197,321
846.870178,319
846.988098,315
847.106079,307
847.22406,316
847.34198,317
847.4599,307
847.577881,318
847.695801,309
847.813782,328
847.931641,319
848.049561,311
848.167603,302
848.285461,320
848.403381,311
848.521362,308
848.639221,302
848.75708,317
848.875,304
848.99292,313
849.110901,322
849.22876,314
849.34668,312
849.464539,313
849.582458,319
849.700317,314
849.818176,298
849.936096,310
850.053955,312
850.171875,337
850.289673,323
850.407593,315
850.525452,320
850.643311,323
850.761169,321
850.878967,302
850.996887,315
851.114746,307
851.232544,315
851.350403,312
851.468262,311
851.58606,317
851.703979,309
851.821777,315
851.939636,316
852.057434,322
852.175232,319
852.293091,312
852.410889,318
852.528687,330
852.646545,314
852.764343,330
852.88208,310
852.999939,325
853.117676,326
853.235535,315
853.353271,320
853.471069,323
853.588928,323
853.706604,313
853.824402,316
853.9422,320
854.059998,317
854.177734,320
854.295532,307
854.413269,315
854.531006,310
854.648804,316
854.766541,320
854.884277,325
855.002014,307
855.119751,321
855.237549,299
855.355225,308
855.473022,308
855.590698,317
855.708435,315
855.826172,308
855.943848,319
856.061646,320
856.179321,328
856.296997,318
856.414795,314
856.53241,309
856.650085,314
856.767822,317
856.885559,314
857.003174,322
857.120911,313
857.238586,315
857.356201,322
857.473938,322
857.591614,313
857.709351,319
857.826965,328
857.944641,325
858.062317,316
858.179993,335
858.297668,316
858.415283,323
858.532959,311
858.650574,311
858.768188,310
858.885803,307
859.003479,323
859.121094,311
859.23877,309
859.356384,324
859.473999,325
859.591675,329
859.709229,314
859.826843,313
859.944458,312
860.062012,312
860.179626,314
860.297302,297
860.414856,314
860.532471,314
860.650024,311
860.767639,308
860.885193,327
861.002808,323
861.120361,311
861.237976,306
861.35553,321
861.473022,312
861.590698,323
861.708191,337
861.825745,321
861.943298,333
862.060852,319
862.178406,324
862.295959,300
862.413513,319
862.531006,316
862.64856,318
862.766113,328
862.883667,323
863.00116,310
863.118713,316
863.236206,303
863.353699,318
863.471252,307
863.588745,320
863.706177,327
863.82373,307
863.941162,314
864.058716,316
864.176208,295
864.29364,329
864.411194,317
864.528687,320
864.646118,314
864.763611,317
864.881042,324
864.998535,315
865.116028,316
865.233459,310
865.350891,304
865.468384,318
865.585754,310
865.703308,315
865.820679,317
865.938171,312
866.055542,316
866.173035,318
866.290466,303
866.407837,306
866.52533,314
866.6427,323
866.760071,309
866.877563,318
866.994934,322
867.112305,322
867.229736,324
867.347107,313
867.464539,320
867.58197,325
867.699341,306
867.81665,326
867.934082,312
868.051453,318
868.168823,310
868.286194,317
868.403564,320
868.520935,320
868.638306,317
868.755676,307
868.872986,312
868.990295,319
869.107727,317
869.225037,316
869.342346,315
869.459717,316
869.577026,316
869.694336,315
869.811707,310
869.929016,305
870.046326,310
870.163635,313
870.280945,315
870.398254,326
870.515564,311
870.632812,322
870.750183,320
870.867432,326
870.984741,317
871.102051,319
871.219299,318
871.336609,324
871.453918,307
871.571106,311
871.688416,307
871.805664,322
871.922852,300
872.040222,303
872.157471,312
872.274719,306
872.391968,319
872.509155,318
872.626465,319
872.743652,315
872.860962,339
872.978149,315
873.095337,319
873.212646,314
873.329834,314
873.44696,328
873.564209,320
873.681396,316
873.798645,315
873.915894,319
874.03302,325
874.150208,311
874.267456,323
874.384583,318
874.501831,313
874.618958,319
874.736145,310
874.853333,307
874.970459,320
875.087646,313
875.204834,320
875.32196,324
875.439148,314
875.556274,332
875.673401,303
875.790527,324
875.907715,314
876.024841,317
876.141968,302
876.259094,313
876.376282,315
876.493347,315
876.610474,315
876.7276,319
876.844727,318
876.961853,323
877.078918,308
877.195984,326
877.313171,307
877.430237,328
877.547302,335
877.664368,314
877.781433,319
877.898499,305
878.015625,310
878.13269,314
878.249695,317
878.366821,313
878.483887,317
878.600952,319
878.717957,305
878.834961,318
878.952087,311
879.069092,317
879.186157,301
879.303162,329
879.420227,305
879.537231,316
879.654236,328
879.77124,314
879.888306,313
880.005249,305
880.122314,310
880.239319,319
880.356323,319
880.473328,320
880.590271,317
880.707275,333
880.824341,323
880.941284,328
881.058228,310
881.175232,317
881.292236,311
881.40918,312
881.526123,322
881.643066,314
881.760071,320
881.877014,330
881.993958,329
882.11084,316
882.227783,312
882.344727,302
882.46167,317
882.578613,331
882.695618,317
882.812439,318
882.929382,303
883.046326,342
883.163208,317
883.280151,305
883.397034,309
883.513916,316
883.630798,332
883.747742,311
883.864563,308
883.981506,318
884.098389,300
884.21521,327
884.332153,321
884.448975,307
884.565796,321
884.682678,327
884.7995,311
884.916443,314
885.033264,306
885.150085,319
885.266968,311
885.383789,308
885.500671,316
885.617493,327
885.734314,303
885.851196,304
885.967896,328
886.084717,314
886.201599,315
886.318359,327
886.435181,315
886.552002,318
886.668762,329
886.785645,311
886.902344,314
887.019165,306
887.135925,307
887.252747,338
887.369446,313
887.486267,323
887.603027,321
887.719788,312
887.836548,310
887.953247,321
888.070068,319
888.186829,321
888.303528,329
888.420288,308
888.536987,317
888.653687,328
888.770447,301
888.887146,322
889.003967,311
889.120667,319
889.237305,324
889.354065,314
889.470703,317
889.587463,297
889.704163,325
889.820862,301
889.937561,297
890.054199,316
890.170837,305
890.287598,314
890.404236,315
890.520874,313
890.637634,319
890.754211,311
890.87085,301
890.987549,321
891.104187,305
891.220886,323
891.337463,309
891.454102,305
891.57074,322
891.687378,312
891.804077,321
891.920654,314
892.037231,321
892.15387,332
892.270447,311
892.387085,320
892.503723,324
892.6203,322
892.736877,317
892.853516,327
892.970032,312
893.08667,315
893.203186,313
893.319763,317
893.43634,315
893.552917,317
893.669556,312
893.786011,317
893.902588,310
894.019165,318
894.135681,319
894.252197,315
894.368835,333
894.485291,319
894.601868,309
894.718384,307
894.8349,308
894.951355,315
895.067932,318
895.184448,320
895.300964,313
895.417419,320
895.533936,305
895.650452,323
895.766907,312
895.883423,320
895.999878,310
896.116333,313
896.232849,308
896.349304,315
896.465759,325
896.582214,324
896.698669,322
896.815125,319
896.931641,301
897.048035,322
897.164551,323
897.280884,313
897.397339,314
897.513794,316
897.630249,320
897.746582,319
897.863098,315
897.979431,321
898.095886,313
898.212341,328
898.328674,315
898.445129,312
898.561462,296
898.677795,314
898.794312,323
898.910645,313
899.026978,317
899.143433,325
899.259766,323
899.37616,328
899.492493,316
899.608765,321
899.725159,309
899.841553,310
899.957947,323
900.07428,320
900.190552,305
900.306946,327
900.423157,304
900.53949,317
900.655884,308
900.772156,319
900.888489,328
901.004822,304
901.121033,315
901.237366,323
901.353699,312
901.46991,310
901.586304,312
901.702515,313
901.818787,311
901.93512,319
902.051331,322
902.167603,303
902.283875,308
902.400085,310
902.516418,301
902.632629,330
902.74884,310
902.865112,323
902.981384,319
903.097595,316
903.213867,304
903.330017,304
903.446289,316
903.5625,316
903.67865,307
903.794922,310
903.911072,314
904.027344,328
904.143494,307
904.259705,329
904.375916,311
904.492065,322
904.608215,325
904.724426,313
904.840576,317
904.956726,324
905.072876,329
905.189087,321
905.305176,313
905.421387,315
905.537537,323
905.653687,312
905.769775,324
905.885925,324
906.002014,310
906.118164,315
906.234314,308
906.350403,318
906.466492,315
906.582642,321
906.69873,313
906.814758,314
906.930908,316
907.046936,326
907.163086,297
907.279175,313
907.395264,321
907.511353,318
907.62738,315
907.743408,316
907.859497,309
907.975525,306
908.091553,308
908.207703,314
908.32373,313
908.439758,320
908.555786,316
908.671814,317
908.787842,312
908.90387,314
909.019775,317
909.135864,307
909.251892,315
909.367859,312
909.483826,307
909.599854,301
909.715881,318
909.831848,310
909.947815,318
910.063782,313
910.179749,320
910.295776,308
910.411743,314
910.527649,329
910.643616,326
910.759583,306
910.875488,312
910.991455,315
911.107361,324
911.223267,323
911.339294,316
911.4552,311
911.571106,318
911.687073,316
911.802979,311
911.918823,319
912.034729,315
912.150635,314
912.266602,309
912.382446,313
912.498352,310
912.614197,308
912.730103,314
912.846008,307
792.44574,305
792.56488,340
792.68396,386
792.80304,383
792.92218,332
793.041199,313
793.160339,315
793.279419,326
793.398499,337
793.517578,311
793.636658,315
793.755737,327
793.874817,343
793.993896,324
794.112976,340
794.232056,330
794.351074,322
794.470215,327
794.589233,307
794.708313,327
794.827393,324
794.946411,315
795.065552,334
795.18457,326
795.303589,326
795.422668,323
795.541687,329
795.660767,320
795.779846,318
795.898865,312
796.017883,316
796.136963,341
796.255981,324
796.375061,326
796.49408,323
796.613037,321
796.732117,323
796.851135,328
796.970154,328
797.089233,320
797.208191,318
797.327271,321
797.446228,329
797.565186,314
797.684265,328
797.803223,334
797.922241,320
798.04126,327
798.160278,332
798.279297,330
798.398315,313
798.517273,316
798.636292,315
798.75531,328
798.874268,325
798.993286,317
799.112244,317
799.231323,328
799.350281,322
799.469238,314
799.588257,335
799.707153,327
799.826111,329
799.945129,313
800.064087,336
800.183044,321
800.302063,314
800.421021,322
800.539978,315
800.658936,316
800.777893,320
800.896912,324
801.015747,317
801.134705,311
801.253723,325
801.37262,318
801.491638,314
801.610535,320
801.729492,319
801.84845,326
801.967407,336
802.086243,313
802.205261,317
802.324158,321
802.443115,316
802.562073,324
802.680969,329
802.799927,322
802.918762,323
803.037659,328
803.156677,315
803.275574,324
803.39447,321
803.513428,314
803.632263,315
803.751221,309
803.870117,324
803.989014,321
804.107971,323
804.226746,312
804.345642,323
804.4646,315
804.583496,320
804.702393,318
804.821228,323
804.940125,328
805.059021,315
805.177917,324
805.296814,317
805.415649,321
805.534546,318
805.653442,316
805.772278,317
805.891113,324
806.01001,317
806.128906,318
806.247742,330
806.366577,325
806.485413,325
806.604309,321
806.723145,320
806.84198,325
806.960876,302
807.079712,327
807.198486,323
807.317383,316
807.436218,323
807.554993,313
807.673889,325
807.792725,308
807.91156,332
808.030396,321
808.14917,308
808.268005,315
808.386841,324
808.505676,329
808.624451,320
808.743286,311
808.862122,313
808.980896,313
809.099731,325
809.218506,316
809.337341,317
809.456116,333
809.57489,319
809.693726,323
809.8125,317
809.931274,315
810.050049,322
810.168884,313
810.287659,306
810.406372,315
810.525269,324
810.643982,314
810.762756,313
810.881531,329
811.000305,309
811.11908,332
811.237854,310
811.356567,320
811.475403,316
811.594116,316
811.71283,319
811.831604,336
811.950378,311
812.069153,326
812.187927,319
812.30658,316
812.425415,323
812.544128,333
812.662781,314
812.781616,317
812.900269,312
813.019043,313
813.137756,316
813.256531,325
813.375244,322
813.493896,324
813.612671,320
813.731384,316
813.850037,320
813.96875,319
814.087524,303
814.206238,319
814.324951,315
814.443604,318
814.562256,312
814.68103,312
814.799683,318
814.918335,324
815.037109,313
815.155762,329
815.274475,311
815.393188,317
815.511841,321
815.630554,319
815.749146,313
815.867859,314
815.986572,325
816.105164,309
816.223877,326
816.342529,338
816.461182,311
816.579895,315
816.698486,320
816.817139,323
816.935791,320
817.054504,314
817.173096,326
817.291748,309
817.4104,316
817.529053,320
817.647644,318
817.766235,330
817.884949,314
818.00354,311
818.122192,319
818.240845,318
818.359436,310
818.478088,306
818.59668,313
818.715271,314
818.833923,311
818.952515,332
819.071106,308
819.189758,313
819.30835,319
819.426941,329
819.545532,307
819.664124,313
819.782715,311
819.901306,323
820.019897,311
820.138489,319
820.25708,318
820.375671,304
820.494202,309
820.612732,300
820.731384,307
820.849915,319
820.968506,311
821.087097,318
821.205627,305
821.324158,310
821.442749,328
821.561279,308
821.679871,310
821.798401,326
821.916931,299
822.035461,322
822.154053,306
822.272583,321
822.391174,314
822.509583,321
822.628174,307
822.746704,310
822.865234,312
822.983765,317
823.102295,325
823.220825,321
823.339294,323
823.457825,317
823.576355,328
823.694824,311
823.813354,312
823.931885,320
824.050354,312
824.168884,310
824.287354,323
824.405823,316
824.524353,332
824.642822,310
824.761353,326
824.879822,319
824.998291,327
825.116699,311
825.235291,313
825.353699,321
825.472168,340
825.590637,303
825.709106,312
825.827576,320
825.946045,307
826.064453,307
826.182983,317
826.301392,312
826.4198,313
826.53833,307
826.656738,309
826.775208,315
826.893677,320
827.012024,320
827.130493,295
827.248962,327
827.36731,332
827.485779,325
827.604248,315
827.722595,321
827.841064,314
827.959412,299
828.077942,315
828.196289,324
828.314636,312
828.433105,317
828.551514,322
828.669861,308
828.78833,320
828.906677,313
829.025085,312
829.143433,306
829.261841,318
829.38031,308
829.498657,312
829.617004,303
829.735413,332
829.85376,323
829.972107,312
830.090515,331
830.208862,311
830.327209,313
830.445557,319
830.563904,323
830.682312,318
830.800659,319
830.919006,310
831.037354,319
831.155701,319
831.274048,309
831.392395,316
831.51062,326
831.629028,315
831.747314,319
831.865662,315
831.984009,296
832.102356,305
832.220642,320
832.338928,314
832.457275,305
832.575623,314
832.693909,310
832.812134,323
832.930481,315
833.048828,313
833.167114,326
833.2854,323
833.403687,309
833.521973,308
833.640259,314
833.758545,309
833.876831,320
833.995056,308
834.113281,323
834.231628,316
834.349915,323
834.468201,315
834.586426,319
834.704651,310
834.822998,306
834.941162,316
835.059448,330
835.177673,317
835.295959,323
835.414246,327
835.53241,328
835.650635,327
835.768921,316
835.887146,304
836.005371,322
836.123596,305
836.241821,320
836.360046,312
836.478271,329
836.596497,304
836.714722,321
836.832886,316
836.95105,315
837.069336,317
837.1875,315
837.305725,314
837.423889,318
837.542053,310
837.660339,321
837.778503,313
837.896667,310
838.014832,319
838.132996,308
838.25116,328
838.369385,309
838.487488,309
838.605713,319
838.723877,315
838.84198,317
838.960205,313
839.078308,312
839.196472,309
839.314636,317
839.4328,317
839.550964,310
839.669067,321
839.787231,332
839.905396,316
840.023499,313
840.141602,321
840.259766,327
840.377869,300
840.495972,304
840.614136,324
840.732239,318
840.850342,313
840.968445,317
841.086548,316
841.204651,322
841.322754,314
841.440918,311
841.55896,316
841.677002,326
841.795166,320
841.913208,314
842.031311,322
842.149353,317
842.267456,299
842.385498,331
842.503601,299
842.621643,315
842.739746,340
842.857788,311
842.97583,317
843.093933,332
843.211975,315
843.330017,302
843.44812,318
843.566101,297
843.684204,314
843.802246,309
843.920227,317
844.038269,314
844.156311,328
844.274292,324
844.392395,313
844.510376,312
844.628357,316
844.74646,318
844.864441,337
844.982422,323
845.100403,312
845.218384,320
845.336426,312
845.454468,326
845.572449,324
845.69043,321
845.808411,313
845.926453,311
846.044373,313
846.162354,327
846.280396,317
846.398315,317
846.516296,309
846.634216,308
846.752197,314
846.870178,303
846.988098,314
847.106079,318
847.22406,318
847.34198,308
847.4599,311
847.577881,314
847.695801,329
847.813782,324
847.931641,310
848.049561,306
848.167603,326
848.285461,319
848.403381,323
848.521362,326
848.639221,307
848.75708,314
848.875,306
848.99292,319
849.110901,317
849.22876,318
849.34668,315
849.464539,319
849.582458,320
849.700317,303
849.818176,312
849.936096,323
850.053955,309
850.171875,315
850.289673,314
850.407593,313
850.525452,317
850.643311,316
850.761169,304
850.878967,315
850.996887,315
851.114746,315
851.232544,308
851.350403,299
851.468262,330
851.58606,319
851.703979,297
851.821777,330
851.939636,311
852.057434,326
852.175232,322
852.293091,316
852.410889,309
852.528687,331
852.646545,319
852.764343,316
852.88208,324
852.999939,324
853.117676,316
853.235535,308
853.353271,306
853.471069,308
853.588928,317
853.706604,313
853.824402,303
853.9422,311
854.059998,316
854.177734,318
854.295532,319
854.413269,315
854.531006,317
854.648804,322
854.766541,315
854.884277,320
855.002014,317
855.119751,324
855.237549,324
855.355225,312
855.473022,312
855.590698,318
855.708435,308
855.826172,323
855.943848,308
856.061646,305
856.179321,315
856.296997,321
856.414795,306
856.53241,320
856.650085,309
856.767822,315
856.885559,312
857.003174,326
857.120911,324
857.238586,328
857.356201,309
857.473938,318
857.591614,311
857.709351,321
857.826965,315
857.944641,320
858.062317,298
858.179993,311
858.297668,324
858.415283,322
858.532959,318
858.650574,318
858.768188,316
858.885803,316
859.003479,315
859.121094,319
859.23877,302
859.356384,315
859.473999,314
859.591675,314
859.709229,309
859.826843,317
859.944458,313
860.062012,334
860.179626,309
860.297302,301
860.414856,330
860.532471,315
860.650024,296
860.767639,314
860.885193,315
861.002808,319
861.120361,320
861.237976,325
861.35553,307
861.473022,316
861.590698,318
861.708191,308
861.825745,306
861.943298,317
862.060852,321
862.178406,326
862.295959,307
862.413513,322
862.531006,301
862.64856,315
862.766113,318
862.883667,332
863.00116,317
863.118713,321
863.236206,302
863.353699,317
863.471252,317
863.588745,319
863.706177,319
863.82373,316
863.941162,323
864.058716,321
864.176208,314
864.29364,324
864.411194,308
864.528687,313
864.646118,314
864.763611,321
864.881042,310
864.998535,309
865.116028,323
865.233459,322
865.350891,310
865.468384,306
865.585754,312
865.703308,317
865.820679,311
865.938171,326
866.055542,323
866.173035,313
866.290466,325
866.407837,307
866.52533,318
866.6427,320
866.760071,314
866.877563,316
866.994934,308
867.112305,319
867.229736,316
867.347107,316
867.464539,314
867.58197,312
867.699341,322
867.81665,323
867.934082,308
868.051453,325
868.168823,302
868.286194,326
868.403564,313
868.520935,313
868.638306,308
868.755676,305
868.872986,317
868.990295,323
869.107727,310
869.225037,322
869.342346,315
869.459717,306
869.577026,308
869.694336,323
869.811707,307
869.929016,312
870.046326,309
870.163635,323
870.280945,303
870.398254,323
870.515564,312
870.632812,323
870.750183,327
870.867432,316
870.984741,314
871.102051,324
871.219299,328
871.336609,308
871.453918,313
871.571106,318
871.688416,300
871.805664,340
871.922852,316
872.040222,302
872.157471,320
872.274719,319
872.391968,323
872.509155,324
872.626465,315
872.743652,325
872.860962,304
872.978149,323
873.095337,337
873.212646,318
873.329834,312
873.44696,307
873.564209,321
873.681396,323
873.798645,310
873.915894,300
874.03302,313
874.150208,309
874.267456,317
874.384583,305
874.501831,304
874.618958,320
874.736145,314
874.853333,311
874.970459,314
875.087646,309
875.204834,305
875.32196,322
875.439148,315
875.556274,308
875.673401,322
875.790527,305
875.907715,303
876.024841,316
876.141968,317
876.259094,308
876.376282,320
876.493347,321
876.610474,309
876.7276,311
876.844727,318
876.961853,333
877.078918,313
877.195984,318
877.313171,310
877.430237,324
877.547302,307
877.664368,312
877.781433,318
877.898499,315
878.015625,330
878.13269,322
878.249695,318
878.366821,326
878.483887,309
878.600952,318
878.717957,313
878.834961,316
878.952087,323
879.069092,318
879.186157,313
879.303162,318
879.420227,305
879.537231,329
879.654236,327
879.77124,320
879.888306,325
880.005249,313
880.122314,320
880.239319,315
880.356323,306
880.473328,312
880.590271,324
880.707275,322
880.824341,314
880.941284,312
881.058228,324
881.175232,313
881.292236,312
881.40918,317
881.526123,313
881.643066,312
881.760071,313
881.877014,317
881.993958,315
882.11084,316
882.227783,304
882.344727,321
882.46167,316
882.578613,309
882.695618,321
882.812439,316
882.929382,310
883.046326,312
883.163208,314
883.280151,312
883.397034,310
883.513916,324
883.630798,308
883.747742,303
883.864563,313
883.981506,309
884.098389,316
884.21521,320
884.332153,311
884.448975,312
884.565796,310
884.682678,312
884.7995,316
884.916443,320
885.033264,296
885.150085,308
885.266968,312
885.383789,315
885.500671,316
885.617493,314
885.734314,316
885.851196,323
885.967896,315
886.084717,317
886.201599,328
886.318359,318
886.435181,313
886.552002,316
886.668762,301
886.785645,330
886.902344,303
887.019165,321
887.135925,327
887.252747,325
887.369446,304
887.486267,319
887.603027,310
887.719788,323
887.836548,319
887.953247,327
888.070068,321
888.186829,311
888.303528,316
888.420288,318
888.536987,326
888.653687,319
888.770447,316
888.887146,327
889.003967,300
889.120667,302
889.237305,302
889.354065,327
889.470703,325
889.587463,323
889.704163,321
889.820862,320
889.937561,317
890.054199,330
890.170837,324
890.287598,323
890.404236,317
890.520874,314
890.637634,313
890.754211,325
890.87085,315
890.987549,310
891.104187,313
891.220886,325
891.337463,309
891.454102,308
891.57074,308
891.687378,316
891.804077,304
891.920654,324
892.037231,322
892.15387,304
892.270447,329
892.387085,323
892.503723,314
892.6203,325
892.736877,314
892.853516,331
892.970032,331
893.08667,321
893.203186,312
893.319763,304
893.43634,323
893.552917,316
893.669556,313
893.786011,321
893.902588,295
894.019165,316
894.135681,329
894.252197,322
894.368835,320
894.485291,317
894.601868,319
894.718384,326
894.8349,303
894.951355,325
895.067932,301
895.184448,321
895.300964,308
895.417419,313
895.533936,329
895.650452,321
895.766907,326
895.883423,322
895.999878,303
896.116333,325
896.232849,320
896.349304,321
896.465759,322
896.582214,318
896.698669,324
896.815125,315
896.931641,312
897.048035,318
897.164551,315
897.280884,314
897.397339,323
897.513794,307
897.630249,328
897.746582,327
897.863098,322
897.979431,317
898.095886,331
898.212341,326
898.328674,314
898.445129,322
898.561462,320
898.677795,319
898.794312,317
898.910645,314
899.026978,318
899.143433,320
899.259766,317
899.37616,322
899.492493,322
899.608765,324
899.725159,314
899.841553,319
899.957947,310
900.07428,308
900.190552,323
900.306946,318
900.423157,315
900.53949,324
900.655884,305
900.772156,321
900.888489,302
901.004822,325
901.121033,312
901.237366,307
901.353699,319
901.46991,307
901.586304,316
901.702515,321
901.818787,327
901.93512,305
902.051331,311
902.167603,316
902.283875,332
902.400085,312
902.516418,309
902.632629,311
902.74884,316
902.865112,319
902.981384,331
903.097595,318
903.213867,303
903.330017,323
903.446289,317
903.5625,313
903.67865,311
903.794922,308
903.911072,316
904.027344,322
904.143494,308
904.259705,315
904.375916,318
904.492065,316
904.608215,309
904.724426,318
904.840576,318
904.956726,326
905.072876,320
905.189087,333
905.305176,324
905.421387,326
905.537537,315
905.653687,326
905.769775,324
905.885925,322
906.002014,316
906.118164,312
906.234314,318
906.350403,313
906.466492,319
906.582642,310
906.69873,297
906.814758,321
906.930908,332
907.046936,323
907.163086,322
907.279175,320
907.395264,313
907.511353,316
907.62738,318
907.743408,313
907.859497,298
907.975525,313
908.091553,310
908.207703,314
908.32373,320
908.439758,316
908.555786,315
908.671814,308
908.787842,315
908.90387,328
909.019775,308
909.135864,313
909.251892,315
909.367859,312
909.483826,312
909.599854,306
909.715881,307
909.831848,321
909.947815,306
910.063782,312
910.179749,327
910.295776,318
910.411743,314
910.527649,332
910.643616,317
910.759583,321
910.875488,316
910.991455,318
911.107361,317
911.223267,313
911.339294,313
911.4552,317
911.571106,327
911.687073,320
911.802979,327
911.918823,317
912.034729,310
912.150635,312
912.266602,313
912.382446,312
912.498352,308
912.614197,317
912.730103,316
912.846008,322
792.44574,298
792.56488,334
792.68396,389
792.80304,371
792.92218,329
793.041199,325
793.160339,310
793.279419,325
793.398499,328
793.517578,295
793.636658,323
793.755737,337
793.874817,331
793.993896,334
794.112976,313
794.232056,312
794.351074,324
794.470215,312
794.589233,327
794.708313,323
794.827393,314
794.946411,312
795.065552,316
795.18457,322
795.303589,316
795.422668,309
795.541687,316
795.660767,317
795.779846,332
795.898865,327
796.017883,317
796.136963,327
796.255981,315
796.375061,325
796.49408,319
796.613037,323
796.732117,315
796.851135,307
796.970154,316
797.089233,330
797.208191,330
797.327271,310
797.446228,328
797.565186,317
797.684265,324
797.803223,321
797.922241,315
798.04126,324
798.160278,320
798.279297,324
798.398315,319
798.517273,329
798.636292,316
798.75531,310
798.874268,315
798.993286,327
799.112244,312
799.231323,320
799.350281,315
799.469238,314
799.588257,320
799.707153,326
799.826111,321
799.945129,323
800.064087,318
800.183044,320
800.302063,322
800.421021,316
800.539978,318
800.658936,318
800.777893,323
800.896912,307
801.015747,317
801.134705,327
801.253723,320
801.37262,316
801.491638,319
801.610535,309
801.729492,320
801.84845,306
801.967407,314
802.086243,308
802.205261,308
802.324158,314
802.443115,318
802.562073,325
802.680969,330
802.799927,330
802.918762,325
803.037659,305
803.156677,309
803.275574,318
803.39447,331
803.513428,336
803.632263,320
803.751221,316
803.870117,321
803.989014,304
804.107971,323
804.226746,328
804.345642,310
804.4646,330
804.583496,320
804.702393,324
804.821228,324
804.940125,321
805.059021,333
805.177917,307
805.296814,319
805.415649,324
805.534546,310
805.653442,327
805.772278,320
805.891113,308
806.01001,307
806.128906,321
806.247742,316
806.366577,312
806.485413,324
806.604309,309
806.723145,320
806.84198,324
806.960876,305
807.079712,317
807.198486,316
807.317383,320
807.436218,323
807.554993,314
807.673889,326
807.792725,312
807.91156,328
808.030396,319
808.14917,326
808.268005,308
808.386841,320
808.505676,316
808.624451,321
808.743286,325
808.862122,319
808.980896,321
809.099731,316
809.218506,318
809.337341,312
809.456116,309
809.57489,327
809.693726,312
809.8125,332
809.931274,314
810.050049,316
810.168884,312
810.287659,313
810.406372,319
810.525269,313
810.643982,324
810.762756,311
810.881531,317
811.000305,318
811.11908,312
811.237854,322
811.356567,333
811.475403,316
811.594116,320
811.71283,319
811.831604,317
811.950378,315
812.069153,321
812.187927,313
812.30658,324
812.425415,308
812.544128,309
812.662781,307
812.781616,324
812.900269,319
813.019043,320
813.137756,310
813.256531,317
813.375244,316
813.493896,322
813.612671,313
813.731384,321
813.850037,322
813.96875,322
814.087524,333
814.206238,314
814.324951,324
814.443604,326
814.562256,333
814.68103,308
814.799683,296
814.918335,315
815.037109,317
815.155762,321
815.274475,327
815.393188,331
815.511841,310
815.630554,324
815.749146,314
815.867859,316
815.986572,311
816.105164,322
816.223877,310
816.342529,319
816.461182,334
816.579895,323
816.698486,313
816.817139,313
816.935791,319
817.054504,314
817.173096,301
817.291748,303
817.4104,336
817.529053,324
817.647644,329
817.766235,308
817.884949,319
818.00354,322
818.122192,319
818.240845,315
818.359436,297
818.478088,329
818.59668,315
818.715271,320
818.833923,315
818.952515,301
819.071106,319
819.189758,325
819.30835,313
819.426941,319
819.545532,314
819.664124,321
819.782715,314
819.901306,311
820.019897,316
820.138489,311
820.25708,329
820.375671,310
820.494202,324
820.612732,309
820.731384,334
820.849915,309
820.968506,324
821.087097,335
821.205627,322
821.324158,319
821.442749,297
821.561279,317
821.679871,317
821.798401,318
821.916931,320
822.035461,316
822.154053,321
822.272583,323
822.391174,326
822.509583,320
822.628174,307
822.746704,319
822.865234,318
822.983765,309
823.102295,322
823.220825,314
823.339294,309
823.457825,320
823.576355,328
823.694824,308
823.813354,311
823.931885,315
824.050354,318
824.168884,315
824.287354,317
824.405823,310
824.524353,317
824.642822,305
824.761353,329
824.879822,298
824.998291,329
825.116699,315
825.235291,322
825.353699,319
825.472168,312
825.590637,317
825.709106,311
825.827576,329
825.946045,323
826.064453,310
826.182983,317
826.301392,317
826.4198,308
826.53833,321
826.656738,317
826.775208,321
826.893677,327
827.012024,313
827.130493,319
827.248962,324
827.36731,302
827.485779,322
827.604248,322
827.722595,322
827.841064,315
827.959412,311
828.077942,313
828.196289,313
828.314636,314
828.433105,317
828.551514,310
828.669861,325
828.78833,308
828.906677,319
829.025085,309
829.143433,305
829.261841,313
829.38031,320
829.498657,310
829.617004,309
829.735413,311
829.85376,320
829.972107,302
830.090515,312
830.208862,322
830.327209,326
830.445557,313
830.563904,309
830.682312,305
830.800659,328
830.919006,314
831.037354,311
831.155701,309
831.274048,316
831.392395,304
831.51062,308
831.629028,328
831.747314,320
831.865662,319
831.984009,318
832.102356,308
832.220642,316
832.338928,307
832.457275,309
832.575623,319
832.693909,318
832.812134,308
832.930481,326
833.048828,311
833.167114,317
833.2854,307
833.403687,316
833.521973,316
833.640259,317
833.758545,318
833.876831,324
833.995056,299
834.113281,322
834.231628,311
834.349915,323
834.468201,317
834.586426,329
834.704651,302
834.822998,326
834.941162,311
835.059448,315
835.177673,317
835.295959,320
835.414246,317
835.53241,322
835.650635,315
835.768921,312
835.887146,317
836.005371,299
836.123596,320
836.241821,321
836.360046,302
836.478271,322
836.596497,306
836.714722,314
836.832886,312
836.95105,329
837.069336,313
837.1875,311
837.305725,316
837.423889,317
837.542053,325
837.660339,316
837.778503,315
837.896667,320
838.014832,319
838.132996,310
838.25116,308
838.369385,313
838.487488,312
838.605713,321
838.723877,319
838.84198,315
838.960205,309
839.078308,323
839.196472,310
839.314636,314
839.4328,302
839.550964,319
839.669067,318
839.787231,328
839.905396,313
840.023499,329
840.141602,313
840.259766,328
840.377869,316
840.495972,322
840.614136,301
840.732239,324
840.850342,313
840.968445,328
841.086548,317
841.204651,313
841.322754,307
841.440918,320
841.55896,320
841.677002,321
841.795166,304
841.913208,306
842.031311,336
842.149353,309
842.267456,326
842.385498,329
842.503601,304
842.621643,322
842.739746,313
842.857788,315
842.97583,315
843.093933,317
843.211975,323
843.330017,307
843.44812,309
843.566101,327
843.684204,322
843.802246,327
843.920227,317
844.038269,313
844.156311,328
844.274292,313
844.392395,316
844.510376,291
844.628357,309
844.74646,307
844.864441,312
844.982422,326
845.100403,311
845.218384,319
845.336426,318
845.454468,319
845.572449,312
845.69043,325
845.808411,320
845.926453,320
846.044373,316
846.162354,318
846.280396,313
846.398315,326
846.516296,310
846.634216,319
846.752197,324
846.870178,305
846.988098,317
847.106079,323
847.22406,303
847.34198,312
847.4599,309
847.577881,331
847.695801,312
847.813782,312
847.931641,314
848.049561,313
848.167603,302
848.285461,313
848.403381,312
848.521362,327
848.639221,300
848.75708,320
848.875,300
848.99292,330
849.110901,312
849.22876,319
849.34668,314
849.464539,306
849.582458,332
849.700317,326
849.818176,314
849.936096,321
850.053955,310
850.171875,309
850.289673,318
850.407593,321
850.525452,311
850.643311,305
850.761169,316
850.878967,323
850.996887,320
851.114746,310
851.232544,325
851.350403,324
851.468262,321
851.58606,318
851.703979,317
851.821777,321
851.939636,315
852.057434,321
852.175232,314
852.293091,328
852.410889,304
852.528687,313
852.646545,319
852.764343,325
852.88208,313
852.999939,327
853.117676,307
853.235535,301
853.353271,307
853.471069,319
853.588928,302
853.706604,304
853.824402,323
853.9422,311
854.059998,307
854.177734,313
854.295532,316
854.413269,301
854.531006,312
854.648804,325
854.766541,303
854.884277,320
855.002014,313
855.119751,300
855.237549,322
855.355225,305
855.473022,310
855.590698,322
855.708435,313
855.826172,323
855.943848,309
856.061646,304
856.179321,317
856.296997,314
856.414795,328
856.53241,311
856.650085,304
856.767822,315
856.885559,308
857.003174,304
857.120911,303
857.238586,317
857.356201,314
857.473938,314
857.591614,317
857.709351,314
857.826965,313
857.944641,307
858.062317,317
858.179993,318
858.297668,304
858.415283,305
858.532959,323
858.650574,317
858.768188,317
858.885803,321
859.003479,310
859.121094,314
859.23877,317
859.356384,310
859.473999,309
859.591675,312
859.709229,318
859.826843,314
859.944458,317
860.062012,310
860.179626,317
860.297302,314
860.414856,312
860.532471,318
860.650024,309
860.767639,318
860.885193,321
861.002808,308
861.120361,311
861.237976,311
861.35553,321
861.473022,324
861.590698,311
861.708191,323
861.825745,314
861.943298,320
862.060852,316
862.178406,325
862.295959,302
862.413513,325
862.531006,301
862.64856,314
862.766113,312
862.883667,323
863.00116,316
863.118713,324
863.236206,318
863.353699,315
863.471252,317
863.588745,319
863.706177,322
863.82373,319
863.941162,314
864.058716,314
864.176208,316
864.29364,312
864.411194,304
864.528687,295
864.646118,316
864.763611,303
864.881042,319
864.998535,324
865.116028,311
865.233459,311
865.350891,320
865.468384,309
865.585754,307
865.703308,319
865.820679,322
865.938171,321
866.055542,311
866.173035,317
866.290466,304
866.407837,322
866.52533,317
866.6427,322
866.760071,323
866.877563,314
866.994934,327
867.112305,319
867.229736,316
867.347107,311
867.464539,311
867.58197,321
867.699341,319
867.81665,320
867.934082,321
868.051453,300
868.168823,327
868.286194,317
868.403564,313
868.520935,319
868.638306,295
868.755676,317
868.872986,313
868.990295,312
869.107727,312
869.225037,333
869.342346,317
869.459717,325
869.577026,299
869.694336,319
869.811707,317
869.929016,323
870.046326,320
870.163635,314
870.280945,309
870.398254,305
870.515564,312
870.632812,328
870.750183,313
870.867432,319
870.984741,322
871.102051,318
871.219299,324
871.336609,315
871.453918,310
871.571106,330
871.688416,316
871.805664,320
871.922852,309
872.040222,327
872.157471,306
872.274719,317
872.391968,312
872.509155,313
872.626465,323
872.743652,325
872.860962,313
872.978149,326
873.095337,307
873.212646,321
873.329834,316
873.44696,310
873.564209,319
873.681396,317
873.798645,307
873.915894,322
874.03302,321
874.150208,326
874.267456,314
874.384583,325
874.501831,311
874.618958,314
874.736145,321
874.853333,313
874.970459,318
875.087646,316
875.204834,320
875.32196,320
875.439148,314
875.556274,334
875.673401,317
875.790527,325
875.907715,308
876.024841,308
876.141968,319
876.259094,329
876.376282,313
876.493347,317
876.610474,323
876.7276,320
876.844727,334
876.961853,311
877.078918,294
877.195984,309
877.313171,320
877.430237,316
877.547302,314
877.664368,304
877.781433,303
877.898499,317
878.015625,314
878.13269,320
878.249695,318
878.366821,303
878.483887,306
878.600952,315
878.717957,309
878.834961,319
878.952087,322
879.069092,312
879.186157,325
879.303162,328
879.420227,304
879.537231,315
879.654236,316
879.77124,318
879.888306,307
880.005249,321
880.122314,315
880.239319,318
880.356323,310
880.473328,329
880.590271,307
880.707275,318
880.824341,321
880.941284,319
881.058228,330
881.175232,314
881.292236,310
881.40918,316
881.526123,316
881.643066,329
881.760071,309
881.877014,319
881.993958,331
882.11084,316
882.227783,313
882.344727,307
882.46167,324
882.578613,312
882.695618,313
882.812439,329
882.929382,314
883.046326,331
883.163208,318
883.280151,309
883.397034,323
883.513916,314
883.630798,305
883.747742,326
883.864563,311
883.981506,316
884.098389,324
884.21521,323
884.332153,305
884.448975,320
884.565796,317
884.682678,331
884.7995,315
884.916443,312
885.033264,308
885.150085,321
885.266968,317
885.383789,325
885.500671,311
885.617493,318
885.734314,313
885.851196,315
885.967896,302
886.084717,319
886.201599,309
886.318359,316
886.435181,325
886.552002,310
886.668762,317
886.785645,321
886.902344,316
887.019165,329
887.135925,305
887.252747,321
887.369446,315
887.486267,321
887.603027,311
887.719788,313
887.836548,295
887.953247,319
888.070068,323
888.186829,326
888.303528,322
888.420288,322
888.536987,314
888.653687,312
888.770447,325
888.887146,316
889.003967,311
889.120667,318
889.237305,308
889.354065,325
889.470703,310
889.587463,330
889.704163,312
889.820862,317
889.937561,316
890.054199,318
890.170837,319
890.287598,327
890.404236,316
890.520874,309
890.637634,318
890.754211,314
890.87085,321
890.987549,309
891.104187,332
891.220886,318
891.337463,302
891.454102,322
891.57074,307
891.687378,311
891.804077,313
891.920654,313
892.037231,310
892.15387,314
892.270447,315
892.387085,321
892.503723,317
892.6203,314
892.736877,310
892.853516,326
892.970032,318
893.08667,317
893.203186,317
893.319763,325
893.43634,309
893.552917,326
893.669556,323
893.786011,313
893.902588,319
894.019165,321
894.135681,329
894.252197,315
894.368835,301
894.485291,321
894.601868,322
894.718384,310
894.8349,313
894.951355,320
895.067932,316
895.184448,322
895.300964,303
895.417419,318
895.533936,314
895.650452,311
895.766907,313
895.883423,322
895.999878,302
896.116333,322
896.232849,313
896.349304,323
896.465759,317
896.582214,325
896.698669,319
896.815125,329
896.931641,313
897.048035,322
897.164551,325
897.280884,317
897.397339,313
897.513794,316
897.630249,316
897.746582,299
897.863098,302
897.979431,321
898.095886,321
898.212341,306
898.328674,324
898.445129,314
898.561462,304
898.677795,312
898.794312,305
898.910645,324
899.026978,327
899.143433,327
899.259766,306
899.37616,333
899.492493,310
899.608765,301
899.725159,309
899.841553,331
899.957947,303
900.07428,317
900.190552,321
900.306946,317
900.423157,319
900.53949,311
900.655884,305
900.772156,311
900.888489,320
901.004822,332
901.121033,319
901.237366,330
901.353699,308
901.46991,311
901.586304,322
901.702515,312
901.818787,318
901.93512,309
902.051331,324
902.167603,318
902.283875,303
902.400085,323
902.516418,309
902.632629,314
902.74884,305
902.865112,318
902.981384,316
903.097595,320
903.213867,315
903.330017,305
903.446289,323
903.5625,316
903.67865,312
903.794922,315
903.911072,323
904.027344,328
904.143494,312
904.259705,321
904.375916,320
904.492065,315
904.608215,303
904.724426,318
904.840576,309
904.956726,333
905.072876,316
905.189087,329
905.305176,333
905.421387,316
905.537537,308
905.653687,326
905.769775,310
905.885925,324
906.002014,312
906.118164,306
906.234314,320
906.350403,328
906.466492,312
906.582642,321
906.69873,325
906.814758,319
906.930908,300
907.046936,322
907.163086,313
907.279175,316
907.395264,308
907.511353,314
907.62738,315
907.743408,319
907.859497,320
907.975525,314
908.091553,303
908.207703,315
908.32373,315
908.439758,322
908.555786,315
908.671814,320
908.787842,321
908.90387,321
909.019775,321
909.135864,329
909.251892,320
909.367859,320
909.483826,315
909.599854,321
909.715881,316
909.831848,314
909.947815,322
910.063782,315
910.179749,318
910.295776,323
910.411743,300
910.527649,323
910.643616,311
910.759583,333
910.875488,307
910.991455,321
911.107361,302
911.223267,313
911.339294,305
911.4552,333
911.571106,307
911.687073,319
911.802979,311
911.918823,315
912.034729,316
912.150635,313
912.266602,307
912.382446,311
912.498352,312
912.614197,323
912.730103,316
912.846008,326
