792.44574,324
792.56488,340
792.68396,407
792.80304,383
792.92218,357
793.041199,319
793.160339,320
793.279419,326
793.398499,334
793.517578,304
793.636658,316
793.755737,330
793.874817,350
793.993896,337
794.112976,344
794.232056,340
794.351074,324
794.470215,326
794.589233,326
794.708313,343
794.827393,334
794.946411,327
795.065552,344
795.18457,325
795.303589,343
795.422668,331
795.541687,327
795.660767,327
795.779846,331
795.898865,341
796.017883,334
796.136963,340
796.255981,338
796.375061,326
796.49408,338
796.613037,316
796.732117,337
796.851135,332
796.970154,321
797.089233,329
797.208191,331
797.327271,312
797.446228,321
797.565186,322
797.684265,319
797.803223,321
797.922241,331
798.04126,326
798.160278,323
798.279297,336
798.398315,330
798.517273,340
798.636292,326
798.75531,335
798.874268,344
798.993286,332
799.112244,323
799.231323,331
799.350281,316
799.469238,325
799.588257,316
799.707153,335
799.826111,339
799.945129,311
800.064087,326
800.183044,326
800.302063,324
800.421021,327
800.539978,330
800.658936,317
800.777893,328
800.896912,331
801.015747,347
801.134705,321
801.253723,347
801.37262,319
801.491638,329
801.610535,325
801.729492,341
801.84845,321
801.967407,323
802.086243,338
802.205261,322
802.324158,315
802.443115,319
802.562073,334
802.680969,349
802.799927,325
802.918762,333
803.037659,330
803.156677,327
803.275574,316
803.39447,315
803.513428,316
803.632263,324
803.751221,319
803.870117,325
803.989014,344
804.107971,331
804.226746,323
804.345642,329
804.4646,324
804.583496,332
804.702393,323
804.821228,329
804.940125,337
805.059021,335
805.177917,321
805.296814,326
805.415649,342
805.534546,330
805.653442,329
805.772278,332
805.891113,322
806.01001,328
806.128906,335
806.247742,333
806.366577,324
806.485413,343
806.604309,328
806.723145,326
806.84198,329
806.960876,336
807.079712,324
807.198486,339
807.317383,331
807.436218,337
807.554993,328
807.673889,326
807.792725,329
807.91156,332
808.030396,325
808.14917,342
808.268005,325
808.386841,332
808.505676,332
808.624451,333
808.743286,315
808.862122,346
808.980896,341
809.099731,332
809.218506,318
809.337341,343
809.456116,326
809.57489,330
809.693726,323
809.8125,317
809.931274,325
810.050049,332
810.168884,330
810.287659,324
810.406372,331
810.525269,323
810.643982,316
810.762756,338
810.881531,321
811.000305,341
811.11908,330
811.237854,327
811.356567,332
811.475403,333
811.594116,341
811.71283,319
811.831604,335
811.950378,331
812.069153,322
812.187927,340
812.30658,338
812.425415,329
812.544128,324
812.662781,331
812.781616,314
812.900269,320
813.019043,338
813.137756,333
813.256531,326
813.375244,335
813.493896,321
813.612671,317
813.731384,345
813.850037,328
813.96875,314
814.087524,337
814.206238,320
814.324951,339
814.443604,331
814.562256,330
814.68103,321
814.799683,339
814.918335,324
815.037109,336
815.155762,318
815.274475,332
815.393188,328
815.511841,334
815.630554,329
815.749146,335
815.867859,336
815.986572,322
816.105164,321
816.223877,341
816.342529,331
816.461182,330
816.579895,339
816.698486,326
816.817139,320
816.935791,334
817.054504,335
817.173096,328
817.291748,332
817.4104,329
817.529053,341
817.647644,324
817.766235,328
817.884949,328
818.00354,334
818.122192,327
818.240845,338
818.359436,331
818.478088,313
818.59668,314
818.715271,327
818.833923,316
818.952515,325
819.071106,311
819.189758,317
819.30835,324
819.426941,319
819.545532,315
819.664124,311
819.782715,304
819.901306,325
820.019897,336
820.138489,310
820.25708,318
820.375671,323
820.494202,325
820.612732,340
820.731384,324
820.849915,312
820.968506,317
821.087097,315
821.205627,320
821.324158,306
821.442749,316
821.561279,317
821.679871,332
821.798401,313
821.916931,322
822.035461,332
822.154053,311
822.272583,322
822.391174,320
822.509583,322
822.628174,324
822.746704,311
822.865234,317
822.983765,318
823.102295,333
823.220825,308
823.339294,320
823.457825,320
823.576355,312
823.694824,311
823.813354,314
823.931885,313
824.050354,315
824.168884,304
824.287354,307
824.405823,314
824.524353,316
824.642822,320
824.761353,325
824.879822,301
824.998291,308
825.116699,315
825.235291,309
825.353699,308
825.472168,319
825.590637,325
825.709106,331
825.827576,313
825.946045,312
826.064453,311
826.182983,324
826.301392,311
826.4198,316
826.53833,311
826.656738,326
826.775208,318
826.893677,320
827.012024,312
827.130493,342
827.248962,304
827.36731,321
827.485779,297
827.604248,333
827.722595,321
827.841064,310
827.959412,316
828.077942,326
828.196289,319
828.314636,320
828.433105,305
828.551514,322
828.669861,304
828.78833,325
828.906677,307
829.025085,315
829.143433,313
829.261841,313
829.38031,313
829.498657,316
829.617004,310
829.735413,323
829.85376,323
829.972107,315
830.090515,325
830.208862,317
830.327209,322
830.445557,313
830.563904,321
830.682312,323
830.800659,298
830.919006,332
831.037354,323
831.155701,315
831.274048,323
831.392395,321
831.51062,326
831.629028,322
831.747314,326
831.865662,326
831.984009,307
832.102356,308
832.220642,316
832.338928,317
832.457275,318
832.575623,328
832.693909,315
832.812134,330
832.930481,301
833.048828,324
833.167114,307
833.2854,315
833.403687,298
833.521973,320
833.640259,311
833.758545,323
833.876831,318
833.995056,319
834.113281,315
834.231628,313
834.349915,328
834.468201,308
834.586426,310
834.704651,315
834.822998,307
834.941162,327
835.059448,304
835.177673,327
835.295959,301
835.414246,321
835.53241,319
835.650635,320
835.768921,312
835.887146,310
836.005371,311
836.123596,316
836.241821,316
836.360046,321
836.478271,295
836.596497,323
836.714722,304
836.832886,323
836.95105,309
837.069336,307
837.1875,318
837.305725,317
837.423889,319
837.542053,326
837.660339,312
837.778503,303
837.896667,320
838.014832,322
838.132996,311
838.25116,318
838.369385,320
838.487488,327
838.605713,316
838.723877,315
838.84198,322
838.960205,317
839.078308,311
839.196472,310
839.314636,306
839.4328,327
839.550964,324
839.669067,318
839.787231,322
839.905396,328
840.023499,319
840.141602,320
840.259766,307
840.377869,307
840.495972,315
840.614136,317
840.732239,317
840.850342,327
840.968445,317
841.086548,312
841.204651,315
841.322754,327
841.440918,316
841.55896,329
841.677002,304
841.795166,313
841.913208,318
842.031311,331
842.149353,323
842.267456,320
842.385498,312
842.503601,316
842.621643,300
842.739746,305
842.857788,317
842.97583,318
843.093933,313
843.211975,309
843.330017,318
843.44812,316
843.566101,313
843.684204,311
843.802246,307
843.920227,305
844.038269,320
844.156311,322
844.274292,298
844.392395,312
844.510376,324
844.628357,325
844.74646,319
844.864441,312
844.982422,298
845.100403,325
845.218384,302
845.336426,306
845.454468,332
845.572449,317
845.69043,306
845.808411,321
845.926453,311
846.044373,328
846.162354,311
846.280396,309
846.398315,322
846.516296,331
846.634216,311
846.752197,321
846.870178,316
846.988098,318
847.106079,319
847.22406,322
847.34198,312
847.4599,319
847.577881,321
847.695801,328
847.813782,315
847.931641,317
848.049561,315
848.167603,317
848.285461,313
848.403381,319
848.521362,308
848.639221,319
848.75708,323
848.875,317
848.99292,303
849.110901,326
849.22876,316
849.34668,328
849.464539,317
849.582458,315
849.700317,309
849.818176,320
849.936096,315
850.053955,322
850.171875,318
850.289673,316
850.407593,304
850.525452,325
850.643311,316
850.761169,320
850.878967,313
850.996887,323
851.114746,302
851.232544,316
851.350403,291
851.468262,318
851.58606,317
851.703979,327
851.821777,316
851.939636,331
852.057434,304
852.175232,317
852.293091,321
852.410889,329
852.528687,309
852.646545,319
852.764343,316
852.88208,314
852.999939,324
853.117676,317
853.235535,314
853.353271,327
853.471069,331
853.588928,309
853.706604,299
853.824402,303
853.9422,308
854.059998,324
854.177734,314
854.295532,322
854.413269,313
854.531006,322
854.648804,311
854.766541,324
854.884277,318
855.002014,318
855.119751,312
855.237549,303
855.355225,313
855.473022,321
855.590698,333
855.708435,310
855.826172,300
855.943848,329
856.061646,330
856.179321,312
856.296997,308
856.414795,297
856.53241,322
856.650085,323
856.767822,304
856.885559,317
857.003174,313
857.120911,322
857.238586,318
857.356201,316
857.473938,319
857.591614,319
857.709351,316
857.826965,326
857.944641,319
858.062317,323
858.179993,311
858.297668,326
858.415283,300
858.532959,314
858.650574,316
858.768188,319
858.885803,325
859.003479,319
859.121094,306
859.23877,316
859.356384,315
859.473999,320
859.591675,314
859.709229,330
859.826843,313
859.944458,315
860.062012,311
860.179626,311
860.297302,316
860.414856,304
860.532471,322
860.650024,341
860.767639,326
860.885193,306
861.002808,318
861.120361,319
861.237976,314
861.35553,303
861.473022,317
861.590698,320
861.708191,329
861.825745,316
861.943298,309
862.060852,311
862.178406,314
862.295959,315
862.413513,319
862.531006,308
862.64856,328
862.766113,320
862.883667,314
863.00116,314
863.118713,318
863.236206,311
863.353699,306
863.471252,306
863.588745,314
863.706177,310
863.82373,326
863.941162,306
864.058716,307
864.176208,320
864.29364,309
864.411194,324
864.528687,318
864.646118,328
864.763611,321
864.881042,308
864.998535,303
865.116028,317
865.233459,320
865.350891,318
865.468384,317
865.585754,319
865.703308,313
865.820679,322
865.938171,324
866.055542,305
866.173035,319
866.290466,312
866.407837,306
866.52533,332
866.6427,322
866.760071,331
866.877563,317
866.994934,317
867.112305,308
867.229736,299
867.347107,304
867.464539,327
867.58197,313
867.699341,324
867.81665,313
867.934082,320
868.051453,315
868.168823,316
868.286194,308
868.403564,321
868.520935,311
868.638306,317
868.755676,318
868.872986,323
868.990295,307
869.107727,320
869.225037,315
869.342346,320
869.459717,313
869.577026,317
869.694336,319
869.811707,305
869.929016,302
870.046326,331
870.163635,314
870.280945,312
870.398254,321
870.515564,315
870.632812,324
870.750183,309
870.867432,314
870.984741,335
871.102051,316
871.219299,307
871.336609,317
871.453918,322
871.571106,320
871.688416,319
871.805664,316
871.922852,320
872.040222,310
872.157471,315
872.274719,313
872.391968,325
872.509155,317
872.626465,320
872.743652,322
872.860962,314
872.978149,319
873.095337,317
873.212646,310
873.329834,306
873.44696,304
873.564209,333
873.681396,331
873.798645,310
873.915894,318
874.03302,311
874.150208,324
874.267456,318
874.384583,313
874.501831,324
874.618958,310
874.736145,327
874.853333,317
874.970459,323
875.087646,314
875.204834,328
875.32196,317
875.439148,324
875.556274,310
875.673401,327
875.790527,319
875.907715,340
876.024841,323
876.141968,326
876.259094,326
876.376282,315
876.493347,320
876.610474,317
876.7276,321
876.844727,327
876.961853,322
877.078918,327
877.195984,318
877.313171,319
877.430237,310
877.547302,321
877.664368,322
877.781433,308
877.898499,316
878.015625,314
878.13269,302
878.249695,321
878.366821,310
878.483887,309
878.600952,313
878.717957,319
878.834961,323
878.952087,317
879.069092,322
879.186157,318
879.303162,321
879.420227,323
879.537231,314
879.654236,322
879.77124,314
879.888306,318
880.005249,312
880.122314,322
880.239319,312
880.356323,322
880.473328,312
880.590271,330
880.707275,314
880.824341,327
880.941284,319
881.058228,319
881.175232,310
881.292236,314
881.40918,310
881.526123,309
881.643066,320
881.760071,328
881.877014,318
881.993958,323
882.11084,312
882.227783,321
882.344727,321
882.46167,325
882.578613,301
882.695618,318
882.812439,309
882.929382,310
883.046326,321
883.163208,301
883.280151,318
883.397034,310
883.513916,313
883.630798,322
883.747742,305
883.864563,320
883.981506,332
884.098389,323
884.21521,323
884.332153,318
884.448975,309
884.565796,320
884.682678,316
884.7995,308
884.916443,312
885.033264,315
885.150085,315
885.266968,321
885.383789,317
885.500671,329
885.617493,314
885.734314,316
885.851196,318
885.967896,317
886.084717,309
886.201599,319
886.318359,310
886.435181,325
886.552002,325
886.668762,335
886.785645,307
886.902344,320
887.019165,307
887.135925,323
887.252747,314
887.369446,316
887.486267,294
887.603027,318
887.719788,318
887.836548,320
887.953247,302
888.070068,324
888.186829,338
888.303528,317
888.420288,316
888.536987,311
888.653687,315
888.770447,312
888.887146,303
889.003967,325
889.120667,327
889.237305,325
889.354065,319
889.470703,320
889.587463,305
889.704163,308
889.820862,306
889.937561,327
890.054199,309
890.170837,311
890.287598,308
890.404236,333
890.520874,324
890.637634,319
890.754211,308
890.87085,332
890.987549,314
891.104187,325
891.220886,319
891.337463,308
891.454102,317
891.57074,317
891.687378,324
891.804077,326
891.920654,326
892.037231,316
892.15387,332
892.270447,309
892.387085,308
892.503723,315
892.6203,322
892.736877,316
892.853516,310
892.970032,309
893.08667,306
893.203186,321
893.319763,312
893.43634,317
893.552917,318
893.669556,319
893.786011,305
893.902588,316
894.019165,321
894.135681,321
894.252197,311
894.368835,324
894.485291,304
894.601868,322
894.718384,312
894.8349,315
894.951355,326
895.067932,323
895.184448,315
895.300964,326
895.417419,300
895.533936,319
895.650452,318
895.766907,322
895.883423,320
895.999878,318
896.116333,318
896.232849,323
896.349304,310
896.465759,313
896.582214,303
896.698669,325
896.815125,310
896.931641,325
897.048035,315
897.164551,328
897.280884,328
897.397339,310
897.513794,303
897.630249,319
897.746582,324
897.863098,329
897.979431,320
898.095886,319
898.212341,321
898.328674,313
898.445129,313
898.561462,320
898.677795,306
898.794312,316
898.910645,309
899.026978,311
899.143433,314
899.259766,319
899.37616,308
899.492493,317
899.608765,305
899.725159,313
899.841553,316
899.957947,325
900.07428,309
900.190552,312
900.306946,302
900.423157,326
900.53949,316
900.655884,315
900.772156,312
900.888489,324
901.004822,309
901.121033,323
901.237366,301
901.353699,321
901.46991,313
901.586304,326
901.702515,320
901.818787,314
901.93512,318
902.051331,321
902.167603,326
902.283875,338
902.400085,325
902.516418,317
902.632629,306
902.74884,319
902.865112,305
902.981384,314
903.097595,318
903.213867,323
903.330017,315
903.446289,307
903.5625,315
903.67865,320
903.794922,304
903.911072,325
904.027344,314
904.143494,321
904.259705,323
904.375916,315
904.492065,300
904.608215,328
904.724426,326
904.840576,311
904.956726,301
905.072876,336
905.189087,317
905.305176,307
905.421387,306
905.537537,326
905.653687,326
905.769775,310
905.885925,321
906.002014,320
906.118164,312
906.234314,336
906.350403,321
906.466492,326
906.582642,313
906.69873,338
906.814758,310
906.930908,326
907.046936,307
907.163086,309
907.279175,329
907.395264,331
907.511353,316
907.62738,323
907.743408,314
907.859497,308
907.975525,322
908.091553,325
908.207703,304
908.32373,328
908.439758,324
908.555786,326
908.671814,314
908.787842,322
908.90387,316
909.019775,316
909.135864,307
909.251892,319
909.367859,314
909.483826,317
909.599854,315
909.715881,312
909.831848,318
909.947815,311
910.063782,323
910.179749,318
910.295776,307
910.411743,319
910.527649,323
910.643616,322
910.759583,306
910.875488,320
910.991455,303
911.107361,326
911.223267,326
911.339294,322
911.4552,320
911.571106,312
911.687073,314
911.802979,323
911.918823,309
912.034729,330
912.150635,333
912.266602,322
912.382446,330
912.498352,321
912.614197,318
912.730103,309
912.846008,298
792.44574,325
792.56488,356
792.68396,409
792.80304,372
792.92218,343
793.041199,326
793.160339,322
793.279419,341
793.398499,339
793.517578,321
793.636658,307
793.755737,341
793.874817,355
793.993896,328
794.112976,347
794.232056,326
794.351074,319
794.470215,345
794.589233,337
794.708313,321
794.827393,331
794.946411,330
795.065552,356
795.18457,336
795.303589,347
795.422668,330
795.541687,337
795.660767,321
795.779846,329
795.898865,324
796.017883,342
796.136963,333
796.255981,334
796.375061,345
796.49408,337
796.613037,341
796.732117,324
796.851135,334
796.970154,328
797.089233,318
797.208191,326
797.327271,330
797.446228,344
797.565186,340
797.684265,316
797.803223,330
797.922241,324
798.04126,331
798.160278,341
798.279297,340
798.398315,336
798.517273,313
798.636292,329
798.75531,336
798.874268,328
798.993286,323
799.112244,329
799.231323,315
799.350281,327
799.469238,319
799.588257,340
799.707153,339
799.826111,333
799.945129,332
800.064087,341
800.183044,325
800.302063,333
800.421021,330
800.539978,338
800.658936,329
800.777893,326
800.896912,326
801.015747,328
801.134705,323
801.253723,326
801.37262,338
801.491638,330
801.610535,334
801.729492,325
801.84845,334
801.967407,341
802.086243,331
802.205261,331
802.324158,331
802.443115,327
802.562073,333
802.680969,335
802.799927,335
802.918762,338
803.037659,328
803.156677,330
803.275574,332
803.39447,328
803.513428,335
803.632263,331
803.751221,332
803.870117,331
803.989014,327
804.107971,324
804.226746,338
804.345642,332
804.4646,327
804.583496,339
804.702393,325
804.821228,335
804.940125,322
805.059021,333
805.177917,329
805.296814,332
805.415649,337
805.534546,329
805.653442,335
805.772278,334
805.891113,320
806.01001,322
806.128906,330
806.247742,328
806.366577,328
806.485413,328
806.604309,329
806.723145,339
806.84198,335
806.960876,339
807.079712,330
807.198486,322
807.317383,333
807.436218,343
807.554993,326
807.673889,324
807.792725,334
807.91156,335
808.030396,337
808.14917,333
808.268005,329
808.386841,343
808.505676,332
808.624451,329
808.743286,324
808.862122,321
808.980896,333
809.099731,340
809.218506,320
809.337341,329
809.456116,314
809.57489,334
809.693726,325
809.8125,326
809.931274,339
810.050049,337
810.168884,333
810.287659,354
810.406372,329
810.525269,343
810.643982,324
810.762756,339
810.881531,336
811.000305,344
811.11908,324
811.237854,349
811.356567,337
811.475403,332
811.594116,335
811.71283,323
811.831604,332
811.950378,329
812.069153,341
812.187927,323
812.30658,329
812.425415,326
812.544128,320
812.662781,341
812.781616,328
812.900269,335
813.019043,344
813.137756,338
813.256531,341
813.375244,321
813.493896,334
813.612671,339
813.731384,336
813.850037,330
813.96875,336
814.087524,330
814.206238,325
814.324951,319
814.443604,332
814.562256,342
814.68103,330
814.799683,322
814.918335,345
815.037109,322
815.155762,333
815.274475,318
815.393188,349
815.511841,334
815.630554,323
815.749146,322
815.867859,332
815.986572,328
816.105164,327
816.223877,331
816.342529,326
816.461182,329
816.579895,328
816.698486,331
816.817139,332
816.935791,327
817.054504,333
817.173096,324
817.291748,322
817.4104,328
817.529053,343
817.647644,338
817.766235,325
817.884949,327
818.00354,320
818.122192,327
818.240845,322
818.359436,329
818.478088,318
818.59668,314
818.715271,325
818.833923,329
818.952515,315
819.071106,327
819.189758,309
819.30835,322
819.426941,317
819.545532,328
819.664124,312
819.782715,323
819.901306,318
820.019897,318
820.138489,327
820.25708,330
820.375671,321
820.494202,321
820.612732,328
820.731384,326
820.849915,309
820.968506,316
821.087097,313
821.205627,311
821.324158,313
821.442749,321
821.561279,321
821.679871,298
821.798401,322
821.916931,315
822.035461,324
822.154053,317
822.272583,322
822.391174,318
822.509583,321
822.628174,321
822.746704,332
822.865234,321
822.983765,320
823.102295,326
823.220825,317
823.339294,330
823.457825,302
823.576355,321
823.694824,321
823.813354,316
823.931885,312
824.050354,312
824.168884,310
824.287354,323
824.405823,320
824.524353,321
824.642822,314
824.761353,332
824.879822,327
824.998291,317
825.116699,322
825.235291,316
825.353699,319
825.472168,325
825.590637,319
825.709106,340
825.827576,319
825.946045,321
826.064453,327
826.182983,321
826.301392,315
826.4198,327
826.53833,325
826.656738,316
826.775208,316
826.893677,325
827.012024,314
827.130493,326
827.248962,330
827.36731,312
827.485779,309
827.604248,317
827.722595,311
827.841064,324
827.959412,312
828.077942,321
828.196289,318
828.314636,327
828.433105,312
828.551514,318
828.669861,320
828.78833,332
828.906677,318
829.025085,309
829.143433,317
829.261841,306
829.38031,312
829.498657,318
829.617004,327
829.735413,307
829.85376,323
829.972107,321
830.090515,326
830.208862,313
830.327209,320
830.445557,308
830.563904,311
830.682312,325
830.800659,310
830.919006,325
831.037354,327
831.155701,324
831.274048,314
831.392395,323
831.51062,318
831.629028,336
831.747314,313
831.865662,330
831.984009,313
832.102356,316
832.220642,306
832.338928,323
832.457275,305
832.575623,323
832.693909,320
832.812134,327
832.930481,311
833.048828,325
833.167114,313
833.2854,319
833.403687,307
833.521973,327
833.640259,317
833.758545,311
833.876831,308
833.995056,323
834.113281,310
834.231628,312
834.349915,322
834.468201,321
834.586426,320
834.704651,321
834.822998,319
834.941162,324
835.059448,314
835.177673,330
835.295959,333
835.414246,328
835.53241,317
835.650635,313
835.768921,324
835.887146,326
836.005371,314
836.123596,334
836.241821,306
836.360046,316
836.478271,306
836.596497,329
836.714722,318
836.832886,327
836.95105,312
837.069336,332
837.1875,325
837.305725,330
837.423889,314
837.542053,322
837.660339,318
837.778503,320
837.896667,324
838.014832,320
838.132996,321
838.25116,321
838.369385,303
838.487488,328
838.605713,320
838.723877,332
838.84198,312
838.960205,305
839.078308,317
839.196472,314
839.314636,303
839.4328,322
839.550964,319
839.669067,319
839.787231,311
839.905396,320
840.023499,322
840.141602,328
840.259766,309
840.377869,319
840.495972,315
840.614136,317
840.732239,313
840.850342,322
840.968445,319
841.086548,319
841.204651,325
841.322754,333
841.440918,319
841.55896,324
841.677002,311
841.795166,322
841.913208,322
842.031311,309
842.149353,327
842.267456,321
842.385498,315
842.503601,317
842.621643,297
842.739746,313
842.857788,320
842.97583,323
843.093933,330
843.211975,316
843.330017,316
843.44812,312
843.566101,324
843.684204,327
843.802246,306
843.920227,327
844.038269,324
844.156311,323
844.274292,319
844.392395,324
844.510376,325
844.628357,322
844.74646,319
844.864441,315
844.982422,311
845.100403,314
845.218384,315
845.336426,322
845.454468,300
845.572449,329
845.69043,314
845.808411,311
845.926453,304
846.044373,326
846.162354,320
846.280396,316
846.398315,329
846.516296,318
846.634216,313
846.752197,319
846.870178,317
846.988098,322
847.106079,308
847.22406,310
847.34198,327
847.4599,307
847.577881,310
847.695801,323
847.813782,319
847.931641,323
848.049561,320
848.167603,312
848.285461,329
848.403381,317
848.521362,314
848.639221,310
848.75708,313
848.875,317
848.99292,313
849.110901,318
849.22876,306
849.34668,324
849.464539,328
849.582458,325
849.700317,307
849.818176,320
849.936096,307
850.053955,315
850.171875,324
850.289673,313
850.407593,315
850.525452,322
850.643311,313
850.761169,325
850.878967,322
850.996887,325
851.114746,315
851.232544,315
851.350403,312
851.468262,299
851.58606,306
851.703979,332
851.821777,299
851.939636,328
852.057434,309
852.175232,318
852.293091,322
852.410889,319
852.528687,309
852.646545,311
852.764343,312
852.88208,330
852.999939,310
853.117676,320
853.235535,322
853.353271,319
853.471069,305
853.588928,309
853.706604,308
853.824402,317
853.9422,314
854.059998,322
854.177734,312
854.295532,323
854.413269,307
854.531006,309
854.648804,317
854.766541,322
854.884277,321
855.002014,325
855.119751,314
855.237549,326
855.355225,331
855.473022,310
855.590698,322
855.708435,329
855.826172,336
855.943848,328
856.061646,320
856.179321,307
856.296997,300
856.414795,311
856.53241,312
856.650085,333
856.767822,320
856.885559,318
857.003174,314
857.120911,330
857.238586,309
857.356201,321
857.473938,328
857.591614,315
857.709351,310
857.826965,323
857.944641,319
858.062317,320
858.179993,322
858.297668,320
858.415283,303
858.532959,336
858.650574,316
858.768188,312
858.885803,319
859.003479,322
859.121094,313
859.23877,325
859.356384,324
859.473999,331
859.591675,307
859.709229,316
859.826843,317
859.944458,312
860.062012,307
860.179626,315
860.297302,305
860.414856,315
860.532471,320
860.650024,321
860.767639,324
860.885193,320
861.002808,313
861.120361,325
861.237976,314
861.35553,324
861.473022,307
861.590698,321
861.708191,305
861.825745,328
861.943298,319
862.060852,329
862.178406,329
862.295959,316
862.413513,303
862.531006,325
862.64856,319
862.766113,318
862.883667,323
863.00116,320
863.118713,316
863.236206,335
863.353699,302
863.471252,320
863.588745,309
863.706177,318
863.82373,312
863.941162,321
864.058716,319
864.176208,329
864.29364,313
864.411194,315
864.528687,327
864.646118,315
864.763611,314
864.881042,324
864.998535,313
865.116028,329
865.233459,311
865.350891,310
865.468384,318
865.585754,321
865.703308,319
865.820679,322
865.938171,303
866.055542,315
866.173035,320
866.290466,316
866.407837,311
866.52533,318
866.6427,315
866.760071,310
866.877563,318
866.994934,322
867.112305,315
867.229736,306
867.347107,312
867.464539,327
867.58197,329
867.699341,314
867.81665,322
867.934082,319
868.051453,316
868.168823,316
868.286194,309
868.403564,319
868.520935,318
868.638306,323
868.755676,319
868.872986,316
868.990295,325
869.107727,319
869.225037,315
869.342346,323
869.459717,309
869.577026,340
869.694336,313
869.811707,324
869.929016,310
870.046326,323
870.163635,325
870.280945,318
870.398254,315
870.515564,309
870.632812,321
870.750183,324
870.867432,326
870.984741,318
871.102051,316
871.219299,316
871.336609,320
871.453918,314
871.571106,314
871.688416,322
871.805664,311
871.922852,318
872.040222,315
872.157471,325
872.274719,328
872.391968,322
872.509155,326
872.626465,325
872.743652,313
872.860962,326
872.978149,317
873.095337,320
873.212646,324
873.329834,314
873.44696,319
873.564209,319
873.681396,316
873.798645,314
873.915894,310
874.03302,319
874.150208,314
874.267456,321
874.384583,318
874.501831,329
874.618958,330
874.736145,303
874.853333,326
874.970459,316
875.087646,308
875.204834,318
875.32196,324
875.439148,327
875.556274,303
875.673401,316
875.790527,319
875.907715,319
876.024841,321
876.141968,314
876.259094,310
876.376282,335
876.493347,316
876.610474,319
876.7276,318
876.844727,316
876.961853,317
877.078918,324
877.195984,314
877.313171,325
877.430237,306
877.547302,312
877.664368,319
877.781433,319
877.898499,316
878.015625,319
878.13269,307
878.249695,323
878.366821,311
878.483887,325
878.600952,313
878.717957,327
878.834961,315
878.952087,317
879.069092,327
879.186157,324
879.303162,317
879.420227,319
879.537231,307
879.654236,332
879.77124,306
879.888306,325
880.005249,321
880.122314,332
880.239319,320
880.356323,303
880.473328,330
880.590271,315
880.707275,319
880.824341,324
880.941284,306
881.058228,328
881.175232,324
881.292236,333
881.40918,313
881.526123,330
881.643066,315
881.760071,332
881.877014,318
881.993958,322
882.11084,305
882.227783,335
882.344727,313
882.46167,319
882.578613,318
882.695618,327
882.812439,310
882.929382,309
883.046326,311
883.163208,316
883.280151,313
883.397034,326
883.513916,316
883.630798,324
883.747742,312
883.864563,307
883.981506,320
884.098389,309
884.21521,324
884.332153,322
884.448975,313
884.565796,320
884.682678,317
884.7995,331
884.916443,309
885.033264,325
885.150085,319
885.266968,312
885.383789,310
885.500671,339
885.617493,313
885.734314,323
885.851196,312
885.967896,334
886.084717,312
886.201599,316
886.318359,317
886.435181,315
886.552002,321
886.668762,321
886.785645,320
886.902344,318
887.019165,311
887.135925,323
887.252747,318
887.369446,324
887.486267,320
887.603027,324
887.719788,331
887.836548,314
887.953247,318
888.070068,320
888.186829,317
888.303528,321
888.420288,313
888.536987,322
888.653687,322
888.770447,315
888.887146,345
889.003967,328
889.120667,319
889.237305,330
889.354065,312
889.470703,331
889.587463,310
889.704163,302
889.820862,313
889.937561,326
890.054199,316
890.170837,322
890.287598,312
890.404236,325
890.520874,319
890.637634,330
890.754211,326
890.87085,323
890.987549,315
891.104187,313
891.220886,320
891.337463,319
891.454102,312
891.57074,324
891.687378,320
891.804077,329
891.920654,322
892.037231,318
892.15387,323
892.270447,328
892.387085,319
892.503723,321
892.6203,317
892.736877,324
892.853516,308
892.970032,319
893.08667,305
893.203186,318
893.319763,323
893.43634,323
893.552917,316
893.669556,325
893.786011,327
893.902588,316
894.019165,311
894.135681,324
894.252197,318
894.368835,318
894.485291,321
894.601868,317
894.718384,309
894.8349,328
894.951355,326
895.067932,326
895.184448,305
895.300964,317
895.417419,321
895.533936,319
895.650452,306
895.766907,313
895.883423,315
895.999878,323
896.116333,319
896.232849,324
896.349304,311
896.465759,318
896.582214,317
896.698669,327
896.815125,322
896.931641,307
897.048035,318
897.164551,320
897.280884,312
897.397339,313
897.513794,315
897.630249,313
897.746582,312
897.863098,317
897.979431,325
898.095886,310
898.212341,315
898.328674,314
898.445129,308
898.561462,319
898.677795,329
898.794312,316
898.910645,313
899.026978,313
899.143433,324
899.259766,325
899.37616,326
899.492493,327
899.608765,324
899.725159,326
899.841553,321
899.957947,315
900.07428,313
900.190552,320
900.306946,327
900.423157,308
900.53949,323
900.655884,323
900.772156,312
900.888489,313
901.004822,324
901.121033,327
901.237366,309
901.353699,317
901.46991,317
901.586304,323
901.702515,318
901.818787,327
901.93512,319
902.051331,321
902.167603,316
902.283875,311
902.400085,302
902.516418,335
902.632629,315
902.74884,313
902.865112,312
902.981384,319
903.097595,316
903.213867,329
903.330017,320
903.446289,322
903.5625,309
903.67865,325
903.794922,316
903.911072,318
904.027344,319
904.143494,320
904.259705,330
904.375916,319
904.492065,320
904.608215,319
904.724426,329
904.840576,321
904.956726,320
905.072876,322
905.189087,312
905.305176,325
905.421387,313
905.537537,316
905.653687,315
905.769775,328
905.885925,319
906.002014,316
906.118164,319
906.234314,329
906.350403,323
906.466492,320
906.582642,324
906.69873,315
906.814758,315
906.930908,329
907.046936,310
907.163086,326
907.279175,331
907.395264,317
907.511353,317
907.62738,313
907.743408,323
907.859497,324
907.975525,325
908.091553,317
908.207703,310
908.32373,333
908.439758,310
908.555786,325
908.671814,326
908.787842,318
908.90387,300
909.019775,308
909.135864,301
909.251892,314
909.367859,321
909.483826,331
909.599854,302
909.715881,321
909.831848,311
909.947815,322
910.063782,330
910.179749,320
910.295776,310
910.411743,321
910.527649,319
910.643616,319
910.759583,328
910.875488,329
910.991455,315
911.107361,326
911.223267,312
911.339294,318
911.4552,324
911.571106,322
911.687073,324
911.802979,319
911.918823,303
912.034729,331
912.150635,316
912.266602,325
912.382446,317
912.498352,317
912.614197,312
912.730103,319
912.846008,313
792.44574,323
792.56488,364
792.68396,408
792.80304,381
792.92218,353
793.041199,321
793.160339,324
793.279419,337
793.398499,332
793.517578,326
793.636658,318
793.755737,329
793.874817,355
793.993896,348
794.112976,341
794.232056,332
794.351074,331
794.470215,342
794.589233,318
794.708313,328
794.827393,344
794.946411,339
795.065552,342
795.18457,345
795.303589,335
795.422668,337
795.541687,350
795.660767,325
795.779846,343
795.898865,323
796.017883,340
796.136963,335
796.255981,339
796.375061,317
796.49408,348
796.613037,322
796.732117,341
796.851135,327
796.970154,343
797.089233,337
797.208191,310
797.327271,329
797.446228,332
797.565186,326
797.684265,325
797.803223,331
797.922241,326
798.04126,325
798.160278,329
798.279297,322
798.398315,318
798.517273,332
798.636292,319
798.75531,334
798.874268,338
798.993286,312
799.112244,331
799.231323,328
799.350281,333
799.469238,318
799.588257,334
799.707153,322
799.826111,317
799.945129,332
800.064087,344
800.183044,329
800.302063,333
800.421021,334
800.539978,338
800.658936,325
800.777893,346
800.896912,323
801.015747,339
801.134705,328
801.253723,324
801.37262,329
801.491638,335
801.610535,326
801.729492,331
801.84845,331
801.967407,330
802.086243,327
802.205261,330
802.324158,319
802.443115,324
802.562073,337
802.680969,330
802.799927,313
802.918762,320
803.037659,337
803.156677,350
803.275574,320
803.39447,338
803.513428,326
803.632263,329
803.751221,322
803.870117,334
803.989014,323
804.107971,332
804.226746,320
804.345642,335
804.4646,313
804.583496,328
804.702393,327
804.821228,335
804.940125,334
805.059021,347
805.177917,318
805.296814,324
805.415649,331
805.534546,332
805.653442,324
805.772278,337
805.891113,329
806.01001,322
806.128906,330
806.247742,333
806.366577,318
806.485413,331
806.604309,319
806.723145,335
806.84198,332
806.960876,329
807.079712,323
807.198486,332
807.317383,335
807.436218,341
807.554993,327
807.673889,323
807.792725,326
807.91156,316
808.030396,337
808.14917,326
808.268005,328
808.386841,326
808.505676,328
808.624451,345
808.743286,310
808.862122,323
808.980896,336
809.099731,336
809.218506,322
809.337341,325
809.456116,318
809.57489,325
809.693726,321
809.8125,332
809.931274,333
810.050049,324
810.168884,341
810.287659,333
810.406372,330
810.525269,339
810.643982,330
810.762756,339
810.881531,327
811.000305,335
811.11908,335
811.237854,344
811.356567,334
811.475403,327
811.594116,335
811.71283,337
811.831604,314
811.950378,344
812.069153,330
812.187927,329
812.30658,331
812.425415,326
812.544128,326
812.662781,331
812.781616,328
812.900269,343
813.019043,322
813.137756,317
813.256531,318
813.375244,328
813.493896,324
813.612671,335
813.731384,336
813.850037,322
813.96875,335
814.087524,343
814.206238,328
814.324951,322
814.443604,325
814.562256,334
814.68103,318
814.799683,343
814.918335,338
815.037109,335
815.155762,335
815.274475,325
815.393188,327
815.511841,339
815.630554,329
815.749146,336
815.867859,340
815.986572,334
816.105164,326
816.223877,325
816.342529,325
816.461182,327
816.579895,312
816.698486,324
816.817139,328
816.935791,327
817.054504,335
817.173096,320
817.291748,341
817.4104,333
817.529053,329
817.647644,318
817.766235,337
817.884949,326
818.00354,316
818.122192,330
818.240845,327
818.359436,323
818.478088,336
818.59668,327
818.715271,320
818.833923,328
818.952515,319
819.071106,314
819.189758,328
819.30835,329
819.426941,311
819.545532,317
819.664124,316
819.782715,336
819.901306,314
820.019897,336
820.138489,319
820.25708,321
820.375671,312
820.494202,320
820.612732,313
820.731384,324
820.849915,315
820.968506,318
821.087097,323
821.205627,312
821.324158,317
821.442749,318
821.561279,323
821.679871,314
821.798401,319
821.916931,325
822.035461,313
822.154053,311
822.272583,313
822.391174,316
822.509583,310
822.628174,330
822.746704,320
822.865234,323
822.983765,323
823.102295,323
823.220825,327
823.339294,315
823.457825,314
823.576355,306
823.694824,325
823.813354,314
823.931885,317
824.050354,324
824.168884,320
824.287354,327
824.405823,311
824.524353,316
824.642822,309
824.761353,314
824.879822,309
824.998291,329
825.116699,317
825.235291,337
825.353699,303
825.472168,326
825.590637,324
825.709106,312
825.827576,328
825.946045,335
826.064453,303
826.182983,331
826.301392,310
826.4198,321
826.53833,324
826.656738,323
826.775208,302
826.893677,327
827.012024,331
827.130493,326
827.248962,325
827.36731,318
827.485779,303
827.604248,330
827.722595,301
827.841064,338
827.959412,318
828.077942,322
828.196289,320
828.314636,308
828.433105,316
828.551514,326
828.669861,318
828.78833,317
828.906677,303
829.025085,305
829.143433,308
829.261841,319
829.38031,323
829.498657,319
829.617004,316
829.735413,318
829.85376,309
829.972107,324
830.090515,321
830.208862,318
830.327209,304
830.445557,325
830.563904,317
830.682312,319
830.800659,318
830.919006,318
831.037354,304
831.155701,326
831.274048,309
831.392395,328
831.51062,321
831.629028,316
831.747314,316
831.865662,321
831.984009,322
832.102356,316
832.220642,320
832.338928,328
832.457275,306
832.575623,322
832.693909,314
832.812134,310
832.930481,320
833.048828,324
833.167114,318
833.2854,334
833.403687,315
833.521973,316
833.640259,317
833.758545,320
833.876831,331
833.995056,315
834.113281,312
834.231628,327
834.349915,314
834.468201,313
834.586426,299
834.704651,321
834.822998,317
834.941162,311
835.059448,324
835.177673,306
835.295959,314
835.414246,319
835.53241,303
835.650635,334
835.768921,325
835.887146,327
836.005371,328
836.123596,319
836.241821,329
836.360046,320
836.478271,311
836.596497,320
836.714722,316
836.832886,316
836.95105,317
837.069336,331
837.1875,312
837.305725,305
837.423889,304
837.542053,328
837.660339,319
837.778503,319
837.896667,333
838.014832,313
838.132996,319
838.25116,323
838.369385,335
838.487488,327
838.605713,301
838.723877,325
838.84198,313
838.960205,316
839.078308,315
839.196472,303
839.314636,323
839.4328,328
839.550964,314
839.669067,321
839.787231,311
839.905396,315
840.023499,323
840.141602,304
840.259766,322
840.377869,316
840.495972,321
840.614136,317
840.732239,312
840.850342,313
840.968445,316
841.086548,315
841.204651,313
841.322754,316
841.440918,297
841.55896,319
841.677002,313
841.795166,320
841.913208,316
842.031311,326
842.149353,318
842.267456,317
842.385498,309
842.503601,332
842.621643,305
842.739746,308
842.857788,311
842.97583,326
843.093933,325
843.211975,323
843.330017,312
843.44812,322
843.566101,323
843.684204,313
843.802246,319
843.920227,330
844.038269,325
844.156311,315
844.274292,319
844.392395,316
844.510376,316
844.628357,324
844.74646,319
844.864441,317
844.982422,304
845.100403,325
845.218384,313
845.336426,327
845.454468,303
845.572449,318
845.69043,311
845.808411,331
845.926453,319
846.044373,324
846.162354,305
846.280396,323
846.398315,310
846.516296,320
846.634216,315
846.752197,309
846.870178,323
846.988098,319
847.106079,317
847.22406,328
847.34198,317
847.4599,323
847.577881,309
847.695801,333
847.813782,297
847.931641,322
848.049561,324
848.167603,318
848.285461,318
848.403381,304
848.521362,315
848.639221,308
848.75708,310
848.875,332
848.99292,309
849.110901,313
849.22876,314
849.34668,324
849.464539,324
849.582458,317
849.700317,310
849.818176,329
849.936096,314
850.053955,324
850.171875,322
850.289673,327
850.407593,317
850.525452,326
850.643311,324
850.761169,320
850.878967,319
850.996887,305
851.114746,301
851.232544,322
851.350403,314
851.468262,327
851.58606,310
851.703979,317
851.821777,323
851.939636,320
852.057434,318
852.175232,327
852.293091,303
852.410889,317
852.528687,316
852.646545,307
852.764343,323
852.88208,309
852.999939,308
853.117676,322
853.235535,315
853.353271,320
853.471069,304
853.588928,318
853.706604,315
853.824402,322
853.9422,309
854.059998,325
854.177734,306
854.295532,330
854.413269,307
854.531006,322
854.648804,312
854.766541,319
854.884277,309
855.002014,322
855.119751,321
855.237549,320
855.355225,316
855.473022,309
855.590698,303
855.708435,331
855.826172,307
855.943848,333
856.061646,311
856.179321,319
856.296997,313
856.414795,325
856.53241,311
856.650085,324
856.767822,307
856.885559,317
857.003174,309
857.120911,321
857.238586,319
857.356201,325
857.473938,320
857.591614,322
857.709351,322
857.826965,322
857.944641,316
858.062317,323
858.179993,309
858.297668,342
858.415283,312
858.532959,321
858.650574,313
858.768188,320
858.885803,311
859.003479,325
859.121094,310
859.23877,331
859.356384,321
859.473999,329
859.591675,310
859.709229,313
859.826843,323
859.944458,323
860.062012,309
860.179626,308
860.297302,313
860.414856,321
860.532471,313
860.650024,315
860.767639,314
860.885193,315
861.002808,309
861.120361,328
861.237976,310
861.35553,319
861.473022,323
861.590698,318
861.708191,322
861.825745,321
861.943298,304
862.060852,316
862.178406,334
862.295959,327
862.413513,327
862.531006,317
862.64856,311
862.766113,321
862.883667,315
863.00116,317
863.118713,315
863.236206,315
863.353699,315
863.471252,316
863.588745,314
863.706177,314
863.82373,318
863.941162,329
864.058716,286
864.176208,336
864.29364,313
864.411194,321
864.528687,314
864.646118,318
864.763611,312
864.881042,328
864.998535,302
865.116028,323
865.233459,322
865.350891,322
865.468384,315
865.585754,328
865.703308,305
865.820679,327
865.938171,322
866.055542,318
866.173035,315
866.290466,322
866.407837,316
866.52533,331
866.6427,317
866.760071,327
866.877563,310
866.994934,307
867.112305,317
867.229736,316
867.347107,306
867.464539,338
867.58197,303
867.699341,336
867.81665,297
867.934082,316
868.051453,319
868.168823,312
868.286194,307
868.403564,332
868.520935,323
868.638306,323
868.755676,318
868.872986,326
868.990295,311
869.107727,315
869.225037,321
869.342346,340
869.459717,314
869.577026,310
869.694336,312
869.811707,319
869.929016,303
870.046326,326
870.163635,330
870.280945,323
870.398254,324
870.515564,321
870.632812,316
870.750183,330
870.867432,324
870.984741,318
871.102051,308
871.219299,319
871.336609,327
871.453918,329
871.571106,314
871.688416,318
871.805664,304
871.922852,341
872.040222,314
872.157471,315
872.274719,324
872.391968,323
872.509155,318
872.626465,321
872.743652,322
872.860962,329
872.978149,319
873.095337,323
873.212646,311
873.329834,314
873.44696,307
873.564209,326
873.681396,313
873.798645,322
873.915894,319
874.03302,326
874.150208,305
874.267456,333
874.384583,316
874.501831,324
874.618958,305
874.736145,319
874.853333,319
874.970459,312
875.087646,313
875.204834,324
875.32196,322
875.439148,309
875.556274,320
875.673401,315
875.790527,309
875.907715,309
876.024841,321
876.141968,319
876.259094,306
876.376282,313
876.493347,312
876.610474,318
876.7276,311
876.844727,320
876.961853,313
877.078918,320
877.195984,301
877.313171,317
877.430237,324
877.547302,320
877.664368,306
877.781433,311
877.898499,299
878.015625,322
878.13269,310
878.249695,319
878.366821,316
878.483887,323
878.600952,321
878.717957,326
878.834961,322
878.952087,336
879.069092,317
879.186157,328
879.303162,325
879.420227,310
879.537231,318
879.654236,318
879.77124,315
879.888306,318
880.005249,321
880.122314,320
880.239319,316
880.356323,312
880.473328,309
880.590271,319
880.707275,326
880.824341,313
880.941284,324
881.058228,332
881.175232,316
881.292236,314
881.40918,303
881.526123,313
881.643066,305
881.760071,324
881.877014,306
881.993958,324
882.11084,322
882.227783,329
882.344727,308
882.46167,311
882.578613,319
882.695618,323
882.812439,330
882.929382,328
883.046326,307
883.163208,308
883.280151,323
883.397034,308
883.513916,320
883.630798,325
883.747742,306
883.864563,326
883.981506,310
884.098389,321
884.21521,321
884.332153,314
884.448975,311
884.565796,317
884.682678,329
884.7995,315
884.916443,314
885.033264,315
885.150085,314
885.266968,312
885.383789,322
885.500671,329
885.617493,312
885.734314,331
885.851196,335
885.967896,331
886.084717,311
886.201599,315
886.318359,327
886.435181,334
886.552002,312
886.668762,317
886.785645,320
886.902344,301
887.019165,314
887.135925,317
887.252747,306
887.369446,323
887.486267,310
887.603027,322
887.719788,322
887.836548,308
887.953247,313
888.070068,316
888.186829,325
888.303528,322
888.420288,319
888.536987,324
888.653687,303
888.770447,340
888.887146,327
889.003967,326
889.120667,313
889.237305,323
889.354065,320
889.470703,314
889.587463,316
889.704163,320
889.820862,312
889.937561,319
890.054199,319
890.170837,311
890.287598,317
890.404236,319
890.520874,311
890.637634,304
890.754211,320
890.87085,316
890.987549,306
891.104187,315
891.220886,316
891.337463,315
891.454102,322
891.57074,317
891.687378,330
891.804077,306
891.920654,313
892.037231,324
892.15387,318
892.270447,318
892.387085,315
892.503723,320
892.6203,314
892.736877,320
892.853516,313
892.970032,322
893.08667,311
893.203186,325
893.319763,319
893.43634,326
893.552917,311
893.669556,304
893.786011,320
893.902588,317
894.019165,307
894.135681,320
894.252197,309
894.368835,318
894.485291,322
894.601868,316
894.718384,321
894.8349,315
894.951355,327
895.067932,315
895.184448,329
895.300964,308
895.417419,311
895.533936,322
895.650452,318
895.766907,324
895.883423,310
895.999878,312
896.116333,328
896.232849,315
896.349304,309
896.465759,322
896.582214,314
896.698669,327
896.815125,303
896.931641,324
897.048035,315
897.164551,318
897.280884,324
897.397339,323
897.513794,318
897.630249,323
897.746582,321
897.863098,322
897.979431,302
898.095886,331
898.212341,302
898.328674,310
898.445129,319
898.561462,319
898.677795,320
898.794312,325
898.910645,307
899.026978,319
899.143433,302
899.259766,334
899.37616,312
899.492493,319
899.608765,318
899.725159,305
899.841553,322
899.957947,334
900.07428,303
900.190552,317
900.306946,307
900.423157,326
900.53949,320
900.655884,316
900.772156,314
900.888489,321
901.004822,323
901.121033,327
901.237366,320
901.353699,324
901.46991,318
901.586304,330
901.702515,319
901.818787,322
901.93512,300
902.051331,317
902.167603,324
902.283875,317
902.400085,315
902.516418,330
902.632629,323
902.74884,318
902.865112,301
902.981384,326
903.097595,315
903.213867,316
903.330017,313
903.446289,327
903.5625,309
903.67865,321
903.794922,311
903.911072,327
904.027344,314
904.143494,324
904.259705,308
904.375916,333
904.492065,333
904.608215,332
904.724426,316
904.840576,327
904.956726,308
905.072876,333
905.189087,323
905.305176,325
905.421387,305
905.537537,320
905.653687,321
905.769775,337
905.885925,309
906.002014,325
906.118164,304
906.234314,320
906.350403,324
906.466492,320
906.582642,313
906.69873,316
906.814758,328
906.930908,318
907.046936,318
907.163086,315
907.279175,312
907.395264,322
907.511353,326
907.62738,319
907.743408,321
907.859497,311
907.975525,328
908.091553,309
908.207703,330
908.32373,308
908.439758,312
908.555786,330
908.671814,318
908.787842,315
908.90387,314
909.019775,334
909.135864,311
909.251892,322
909.367859,318
909.483826,322
909.599854,315
909.715881,349
909.831848,323
909.947815,314
910.063782,319
910.179749,313
910.295776,319
910.411743,332
910.527649,322
910.643616,317
910.759583,316
910.875488,328
910.991455,315
911.107361,325
911.223267,316
911.339294,323
911.4552,312
911.571106,330
911.687073,302
911.802979,324
911.918823,315
912.034729,320
912.150635,312
912.266602,329
912.382446,312
912.498352,336
912.614197,322
912.730103,314
912.846008,313
