792.44574,322
792.56488,344
792.68396,391
792.80304,394
792.92218,334
793.041199,314
793.160339,331
793.279419,339
793.398499,337
793.517578,322
793.636658,324
793.755737,331
793.874817,332
793.993896,348
794.112976,333
794.232056,338
794.351074,316
794.470215,339
794.589233,320
794.708313,342
794.827393,327
794.946411,340
795.065552,336
795.18457,330
795.303589,332
795.422668,339
795.541687,327
795.660767,343
795.779846,317
795.898865,338
796.017883,314
796.136963,338
796.255981,336
796.375061,324
796.49408,338
796.613037,325
796.732117,333
796.851135,316
796.970154,322
797.089233,339
797.208191,323
797.327271,321
797.446228,323
797.565186,324
797.684265,331
797.803223,334
797.922241,318
798.04126,315
798.160278,313
798.279297,317
798.398315,339
798.517273,332
798.636292,327
798.75531,329
798.874268,313
798.993286,337
799.112244,324
799.231323,331
799.350281,322
799.469238,334
799.588257,327
799.707153,323
799.826111,324
799.945129,322
800.064087,336
800.183044,321
800.302063,323
800.421021,321
800.539978,321
800.658936,322
800.777893,352
800.896912,320
801.015747,336
801.134705,323
801.253723,310
801.37262,323
801.491638,323
801.610535,334
801.729492,318
801.84845,333
801.967407,320
802.086243,330
802.205261,331
802.324158,314
802.443115,319
802.562073,328
802.680969,317
802.799927,330
802.918762,311
803.037659,331
803.156677,305
803.275574,332
803.39447,320
803.513428,332
803.632263,325
803.751221,331
803.870117,324
803.989014,341
804.107971,335
804.226746,330
804.345642,325
804.4646,320
804.583496,331
804.702393,316
804.821228,326
804.940125,319
805.059021,324
805.177917,342
805.296814,314
805.415649,323
805.534546,300
805.653442,332
805.772278,306
805.891113,323
806.01001,324
806.128906,328
806.247742,328
806.366577,328
806.485413,333
806.604309,327
806.723145,314
806.84198,325
806.960876,339
807.079712,315
807.198486,326
807.317383,322
807.436218,324
807.554993,339
807.673889,325
807.792725,331
807.91156,324
808.030396,324
808.14917,323
808.268005,324
808.386841,328
808.505676,332
808.624451,322
808.743286,332
808.862122,324
808.980896,329
809.099731,326
809.218506,321
809.337341,320
809.456116,319
809.57489,321
809.693726,341
809.8125,312
809.931274,334
810.050049,324
810.168884,320
810.287659,338
810.406372,335
810.525269,325
810.643982,328
810.762756,319
810.881531,351
811.000305,332
811.11908,325
811.237854,302
811.356567,332
811.475403,321
811.594116,317
811.71283,332
811.831604,330
811.950378,350
812.069153,323
812.187927,326
812.30658,332
812.425415,312
812.544128,335
812.662781,319
812.781616,323
812.900269,328
813.019043,311
813.137756,304
813.256531,316
813.375244,339
813.493896,333
813.612671,334
813.731384,327
813.850037,340
813.96875,326
814.087524,329
814.206238,313
814.324951,321
814.443604,333
814.562256,326
814.68103,326
814.799683,324
814.918335,319
815.037109,317
815.155762,323
815.274475,323
815.393188,312
815.511841,331
815.630554,329
815.749146,317
815.867859,318
815.986572,322
816.105164,326
816.223877,324
816.342529,337
816.461182,319
816.579895,312
816.698486,324
816.817139,335
816.935791,344
817.054504,325
817.173096,317
817.291748,322
817.4104,325
817.529053,334
817.647644,310
817.766235,315
817.884949,321
818.00354,320
818.122192,341
818.240845,310
818.359436,313
818.478088,324
818.59668,322
818.715271,333
818.833923,319
818.952515,328
819.071106,318
819.189758,321
819.30835,315
819.426941,328
819.545532,310
819.664124,325
819.782715,307
819.901306,321
820.019897,329
820.138489,323
820.25708,315
820.375671,311
820.494202,321
820.612732,320
820.731384,317
820.849915,329
820.968506,328
821.087097,310
821.205627,329
821.324158,323
821.442749,329
821.561279,318
821.679871,322
821.798401,328
821.916931,311
822.035461,321
822.154053,314
822.272583,308
822.391174,312
822.509583,317
822.628174,315
822.746704,308
822.865234,332
822.983765,314
823.102295,315
823.220825,316
823.339294,311
823.457825,327
823.576355,306
823.694824,325
823.813354,328
823.931885,316
824.050354,325
824.168884,316
824.287354,304
824.405823,330
824.524353,313
824.642822,327
824.761353,320
824.879822,319
824.998291,317
825.116699,308
825.235291,315
825.353699,310
825.472168,319
825.590637,323
825.709106,316
825.827576,322
825.946045,335
826.064453,331
826.182983,322
826.301392,306
826.4198,319
826.53833,318
826.656738,307
826.775208,315
826.893677,321
827.012024,323
827.130493,332
827.248962,320
827.36731,317
827.485779,325
827.604248,321
827.722595,322
827.841064,315
827.959412,317
828.077942,319
828.196289,318
828.314636,328
828.433105,316
828.551514,311
828.669861,322
828.78833,324
828.906677,323
829.025085,316
829.143433,324
829.261841,324
829.38031,329
829.498657,313
829.617004,322
829.735413,313
829.85376,310
829.972107,320
830.090515,313
830.208862,311
830.327209,330
830.445557,305
830.563904,315
830.682312,319
830.800659,318
830.919006,313
831.037354,317
831.155701,313
831.274048,332
831.392395,317
831.51062,315
831.629028,317
831.747314,322
831.865662,317
831.984009,313
832.102356,322
832.220642,316
832.338928,331
832.457275,311
832.575623,317
832.693909,315
832.812134,324
832.930481,321
833.048828,330
833.167114,309
833.2854,319
833.403687,302
833.521973,320
833.640259,305
833.758545,316
833.876831,322
833.995056,315
834.113281,330
834.231628,320
834.349915,308
834.468201,321
834.586426,310
834.704651,311
834.822998,309
834.941162,310
835.059448,315
835.177673,312
835.295959,320
835.414246,318
835.53241,317
835.650635,337
835.768921,319
835.887146,315
836.005371,322
836.123596,306
836.241821,315
836.360046,314
836.478271,320
836.596497,307
836.714722,307
836.832886,318
836.95105,317
837.069336,309
837.1875,309
837.305725,321
837.423889,324
837.542053,317
837.660339,327
837.778503,310
837.896667,332
838.014832,312
838.132996,320
838.25116,316
838.369385,321
838.487488,318
838.605713,313
838.723877,314
838.84198,326
838.960205,310
839.078308,322
839.196472,322
839.314636,324
839.4328,313
839.550964,329
839.669067,308
839.787231,322
839.905396,323
840.023499,313
840.141602,312
840.259766,309
840.377869,321
840.495972,319
840.614136,313
840.732239,303
840.850342,310
840.968445,306
841.086548,327
841.204651,303
841.322754,313
841.440918,317
841.55896,322
841.677002,317
841.795166,314
841.913208,311
842.031311,320
842.149353,322
842.267456,316
842.385498,317
842.503601,319
842.621643,324
842.739746,319
842.857788,317
842.97583,314
843.093933,314
843.211975,316
843.330017,333
843.44812,319
843.566101,319
843.684204,301
843.802246,321
843.920227,316
844.038269,334
844.156311,329
844.274292,329
844.392395,315
844.510376,314
844.628357,317
844.74646,319
844.864441,316
844.982422,308
845.100403,322
845.218384,323
845.336426,317
845.454468,330
845.572449,317
845.69043,316
845.808411,312
845.926453,313
846.044373,326
846.162354,339
846.280396,312
846.398315,321
846.516296,320
846.634216,318
846.752197,317
846.870178,309
846.988098,318
847.106079,327
847.22406,325
847.34198,306
847.4599,327
847.577881,317
847.695801,306
847.813782,310
847.931641,328
848.049561,306
848.167603,323
848.285461,320
848.403381,314
848.521362,315
848.639221,315
848.75708,329
848.875,318
848.99292,311
849.110901,318
849.22876,325
849.34668,321
849.464539,321
849.582458,333
849.700317,315
849.818176,318
849.936096,316
850.053955,321
850.171875,326
850.289673,309
850.407593,321
850.525452,325
850.643311,318
850.761169,306
850.878967,313
850.996887,324
851.114746,321
851.232544,320
851.350403,328
851.468262,328
851.58606,312
851.703979,301
851.821777,308
851.939636,307
852.057434,321
852.175232,317
852.293091,325
852.410889,311
852.528687,322
852.646545,325
852.764343,321
852.88208,310
852.999939,319
853.117676,322
853.235535,320
853.353271,328
853.471069,317
853.588928,314
853.706604,322
853.824402,318
853.9422,318
854.059998,317
854.177734,322
854.295532,315
854.413269,310
854.531006,310
854.648804,314
854.766541,311
854.884277,321
855.002014,321
855.119751,332
855.237549,312
855.355225,301
855.473022,321
855.590698,313
855.708435,302
855.826172,329
855.943848,327
856.061646,310
856.179321,304
856.296997,314
856.414795,314
856.53241,325
856.650085,318
856.767822,336
856.885559,309
857.003174,319
857.120911,315
857.238586,320
857.356201,310
857.473938,331
857.591614,321
857.709351,317
857.826965,320
857.944641,315
858.062317,322
858.179993,315
858.297668,321
858.415283,320
858.532959,301
858.650574,318
858.768188,319
858.885803,314
859.003479,318
859.121094,323
859.23877,328
859.356384,323
859.473999,327
859.591675,317
859.709229,313
859.826843,329
859.944458,313
860.062012,326
860.179626,300
860.297302,311
860.414856,323
860.532471,327
860.650024,322
860.767639,330
860.885193,312
861.002808,316
861.120361,322
861.237976,318
861.35553,309
861.473022,326
861.590698,316
861.708191,324
861.825745,308
861.943298,306
862.060852,309
862.178406,321
862.295959,309
862.413513,315
862.531006,321
862.64856,335
862.766113,306
862.883667,325
863.00116,320
863.118713,326
863.236206,321
863.353699,324
863.471252,307
863.588745,317
863.706177,326
863.82373,306
863.941162,323
864.058716,306
864.176208,311
864.29364,315
864.411194,318
864.528687,318
864.646118,312
864.763611,328
864.881042,323
864.998535,328
865.116028,325
865.233459,318
865.350891,318
865.468384,309
865.585754,301
865.703308,321
865.820679,307
865.938171,322
866.055542,309
866.173035,311
866.290466,335
866.407837,316
866.52533,310
866.6427,318
866.760071,311
866.877563,317
866.994934,304
867.112305,315
867.229736,328
867.347107,327
867.464539,326
867.58197,325
867.699341,320
867.81665,327
867.934082,328
868.051453,306
868.168823,307
868.286194,326
868.403564,316
868.520935,320
868.638306,319
868.755676,334
868.872986,325
868.990295,311
869.107727,307
869.225037,315
869.342346,310
869.459717,311
869.577026,308
869.694336,323
869.811707,325
869.929016,325
870.046326,324
870.163635,316
870.280945,307
870.398254,318
870.515564,303
870.632812,325
870.750183,317
870.867432,324
870.984741,321
871.102051,317
871.219299,319
871.336609,328
871.453918,308
871.571106,321
871.688416,311
871.805664,315
871.922852,310
872.040222,321
872.157471,309
872.274719,320
872.391968,330
872.509155,315
872.626465,320
872.743652,338
872.860962,314
872.978149,320
873.095337,303
873.212646,311
873.329834,321
873.44696,308
873.564209,324
873.681396,313
873.798645,305
873.915894,318
874.03302,302
874.150208,318
874.267456,314
874.384583,329
874.501831,301
874.618958,318
874.736145,320
874.853333,330
874.970459,315
875.087646,321
875.204834,312
875.32196,316
875.439148,312
875.556274,322
875.673401,312
875.790527,329
875.907715,310
876.024841,321
876.141968,316
876.259094,310
876.376282,318
876.493347,322
876.610474,329
876.7276,331
876.844727,310
876.961853,326
877.078918,321
877.195984,322
877.313171,305
877.430237,317
877.547302,318
877.664368,312
877.781433,316
877.898499,320
878.015625,314
878.13269,325
878.249695,315
878.366821,325
878.483887,326
878.600952,317
878.717957,318
878.834961,305
878.952087,310
879.069092,322
879.186157,321
879.303162,325
879.420227,314
879.537231,323
879.654236,320
879.77124,330
879.888306,319
880.005249,323
880.122314,309
880.239319,328
880.356323,320
880.473328,327
880.590271,310
880.707275,328
880.824341,309
880.941284,314
881.058228,300
881.175232,317
881.292236,311
881.40918,318
881.526123,317
881.643066,315
881.760071,308
881.877014,323
881.993958,312
882.11084,316
882.227783,314
882.344727,325
882.46167,332
882.578613,306
882.695618,315
882.812439,322
882.929382,301
883.046326,316
883.163208,313
883.280151,299
883.397034,311
883.513916,327
883.630798,318
883.747742,327
883.864563,309
883.981506,318
884.098389,314
884.21521,307
884.332153,319
884.448975,316
884.565796,327
884.682678,330
884.7995,325
884.916443,312
885.033264,314
885.150085,329
885.266968,320
885.383789,330
885.500671,302
885.617493,316
885.734314,316
885.851196,313
885.967896,302
886.084717,321
886.201599,322
886.318359,316
886.435181,327
886.552002,328
886.668762,329
886.785645,323
886.902344,318
887.019165,333
887.135925,334
887.252747,315
887.369446,317
887.486267,328
887.603027,329
887.719788,337
887.836548,309
887.953247,318
888.070068,323
888.186829,314
888.303528,315
888.420288,322
888.536987,314
888.653687,306
888.770447,318
888.887146,315
889.003967,293
889.120667,317
889.237305,319
889.354065,333
889.470703,319
889.587463,321
889.704163,314
889.820862,311
889.937561,325
890.054199,312
890.170837,316
890.287598,328
890.404236,307
890.520874,327
890.637634,321
890.754211,301
890.87085,315
890.987549,324
891.104187,319
891.220886,329
891.337463,324
891.454102,318
891.57074,312
891.687378,321
891.804077,314
891.920654,313
892.037231,300
892.15387,311
892.270447,311
892.387085,323
892.503723,321
892.6203,323
892.736877,300
892.853516,317
892.970032,310
893.08667,306
893.203186,321
893.319763,328
893.43634,316
893.552917,323
893.669556,309
893.786011,325
893.902588,308
894.019165,315
894.135681,321
894.252197,312
894.368835,321
894.485291,311
894.601868,331
894.718384,332
894.8349,316
894.951355,316
895.067932,316
895.184448,319
895.300964,321
895.417419,307
895.533936,325
895.650452,314
895.766907,314
895.883423,324
895.999878,310
896.116333,317
896.232849,332
896.349304,324
896.465759,325
896.582214,323
896.698669,318
896.815125,313
896.931641,311
897.048035,318
897.164551,334
897.280884,330
897.397339,315
897.513794,320
897.630249,317
897.746582,315
897.863098,321
897.979431,322
898.095886,307
898.212341,314
898.328674,311
898.445129,320
898.561462,321
898.677795,311
898.794312,321
898.910645,323
899.026978,322
899.143433,325
899.259766,303
899.37616,320
899.492493,316
899.608765,316
899.725159,310
899.841553,324
899.957947,307
900.07428,334
900.190552,324
900.306946,302
900.423157,315
900.53949,325
900.655884,311
900.772156,315
900.888489,317
901.004822,332
901.121033,303
901.237366,310
901.353699,322
901.46991,326
901.586304,314
901.702515,320
901.818787,301
901.93512,337
902.051331,332
902.167603,316
902.283875,308
902.400085,325
902.516418,328
902.632629,324
902.74884,309
902.865112,315
902.981384,322
903.097595,327
903.213867,311
903.330017,318
903.446289,323
903.5625,303
903.67865,324
903.794922,307
903.911072,320
904.027344,315
904.143494,312
904.259705,310
904.375916,311
904.492065,319
904.608215,315
904.724426,322
904.840576,321
904.956726,320
905.072876,319
905.189087,325
905.305176,313
905.421387,330
905.537537,320
905.653687,304
905.769775,309
905.885925,325
906.002014,311
906.118164,314
906.234314,331
906.350403,312
906.466492,302
906.582642,320
906.69873,328
906.814758,326
906.930908,326
907.046936,323
907.163086,298
907.279175,326
907.395264,318
907.511353,316
907.62738,318
907.743408,323
907.859497,312
907.975525,328
908.091553,319
908.207703,319
908.32373,326
908.439758,314
908.555786,301
908.671814,323
908.787842,312
908.90387,317
909.019775,328
909.135864,334
909.251892,322
909.367859,303
909.483826,315
909.599854,321
909.715881,324
909.831848,318
909.947815,308
910.063782,332
910.179749,306
910.295776,307
910.411743,319
910.527649,314
910.643616,315
910.759583,317
910.875488,322
910.991455,315
911.107361,304
911.223267,317
911.339294,311
911.4552,331
911.571106,333
911.687073,318
911.802979,323
911.918823,331
912.034729,316
912.150635,318
912.266602,316
912.382446,314
912.498352,315
912.614197,330
912.730103,314
912.846008,309
792.44574,328
792.56488,352
792.68396,391
792.80304,387
792.92218,332
793.041199,317
793.160339,318
793.279419,335
793.398499,340
793.517578,304
793.636658,321
793.755737,330
793.874817,353
793.993896,339
794.112976,341
794.232056,325
794.351074,325
794.470215,336
794.589233,334
794.708313,314
794.827393,332
794.946411,326
795.065552,326
795.18457,350
795.303589,332
795.422668,336
795.541687,332
795.660767,339
795.779846,322
795.898865,334
796.017883,323
796.136963,314
796.255981,350
796.375061,329
796.49408,328
796.613037,332
796.732117,322
796.851135,324
796.970154,337
797.089233,325
797.208191,325
797.327271,316
797.446228,334
797.565186,310
797.684265,335
797.803223,323
797.922241,322
798.04126,331
798.160278,327
798.279297,331
798.398315,328
798.517273,329
798.636292,335
798.75531,331
798.874268,317
798.993286,329
799.112244,317
799.231323,329
799.350281,329
799.469238,322
799.588257,330
799.707153,331
799.826111,320
799.945129,324
800.064087,314
800.183044,333
800.302063,314
800.421021,326
800.539978,329
800.658936,326
800.777893,318
800.896912,318
801.015747,327
801.134705,322
801.253723,332
801.37262,319
801.491638,327
801.610535,325
801.729492,314
801.84845,330
801.967407,332
802.086243,320
802.205261,332
802.324158,317
802.443115,326
802.562073,329
802.680969,329
802.799927,324
802.918762,320
803.037659,317
803.156677,313
803.275574,325
803.39447,327
803.513428,324
803.632263,327
803.751221,325
803.870117,320
803.989014,315
804.107971,328
804.226746,325
804.345642,309
804.4646,299
804.583496,337
804.702393,327
804.821228,334
804.940125,327
805.059021,318
805.177917,318
805.296814,319
805.415649,316
805.534546,321
805.653442,334
805.772278,341
805.891113,316
806.01001,325
806.128906,321
806.247742,328
806.366577,329
806.485413,327
806.604309,323
806.723145,336
806.84198,317
806.960876,332
807.079712,329
807.198486,320
807.317383,330
807.436218,314
807.554993,320
807.673889,319
807.792725,319
807.91156,329
808.030396,319
808.14917,324
808.268005,316
808.386841,325
808.505676,332
808.624451,314
808.743286,325
808.862122,320
808.980896,324
809.099731,331
809.218506,327
809.337341,329
809.456116,324
809.57489,319
809.693726,325
809.8125,331
809.931274,332
810.050049,339
810.168884,318
810.287659,334
810.406372,327
810.525269,321
810.643982,330
810.762756,324
810.881531,331
811.000305,329
811.11908,334
811.237854,326
811.356567,329
811.475403,318
811.594116,319
811.71283,314
811.831604,320
811.950378,315
812.069153,328
812.187927,327
812.30658,335
812.425415,324
812.544128,338
812.662781,330
812.781616,328
812.900269,331
813.019043,320
813.137756,340
813.256531,323
813.375244,333
813.493896,332
813.612671,313
813.731384,309
813.850037,329
813.96875,318
814.087524,332
814.206238,312
814.324951,315
814.443604,312
814.562256,309
814.68103,322
814.799683,333
814.918335,318
815.037109,329
815.155762,312
815.274475,335
815.393188,309
815.511841,316
815.630554,317
815.749146,315
815.867859,324
815.986572,324
816.105164,316
816.223877,307
816.342529,312
816.461182,325
816.579895,325
816.698486,312
816.817139,311
816.935791,310
817.054504,330
817.173096,329
817.291748,332
817.4104,336
817.529053,314
817.647644,313
817.766235,319
817.884949,315
818.00354,321
818.122192,320
818.240845,332
818.359436,325
818.478088,318
818.59668,317
818.715271,329
818.833923,326
818.952515,305
819.071106,316
819.189758,321
819.30835,315
819.426941,320
819.545532,317
819.664124,306
819.782715,314
819.901306,320
820.019897,332
820.138489,312
820.25708,320
820.375671,314
820.494202,322
820.612732,308
820.731384,312
820.849915,320
820.968506,314
821.087097,316
821.205627,319
821.324158,319
821.442749,316
821.561279,321
821.679871,312
821.798401,309
821.916931,312
822.035461,317
822.154053,313
822.272583,311
822.391174,327
822.509583,339
822.628174,312
822.746704,312
822.865234,321
822.983765,317
823.102295,309
823.220825,319
823.339294,319
823.457825,320
823.576355,330
823.694824,319
823.813354,313
823.931885,314
824.050354,329
824.168884,320
824.287354,307
824.405823,317
824.524353,316
824.642822,315
824.761353,330
824.879822,307
824.998291,328
825.116699,320
825.235291,333
825.353699,329
825.472168,319
825.590637,324
825.709106,325
825.827576,312
825.946045,320
826.064453,316
826.182983,325
826.301392,304
826.4198,313
826.53833,318
826.656738,326
826.775208,317
826.893677,323
827.012024,317
827.130493,319
827.248962,317
827.36731,311
827.485779,323
827.604248,320
827.722595,318
827.841064,316
827.959412,301
828.077942,315
828.196289,307
828.314636,321
828.433105,322
828.551514,328
828.669861,316
828.78833,317
828.906677,319
829.025085,316
829.143433,312
829.261841,321
829.38031,323
829.498657,321
829.617004,312
829.735413,312
829.85376,303
829.972107,312
830.090515,314
830.208862,320
830.327209,321
830.445557,306
830.563904,303
830.682312,318
830.800659,310
830.919006,334
831.037354,314
831.155701,310
831.274048,314
831.392395,310
831.51062,314
831.629028,326
831.747314,313
831.865662,313
831.984009,320
832.102356,313
832.220642,343
832.338928,302
832.457275,316
832.575623,325
832.693909,327
832.812134,312
832.930481,324
833.048828,312
833.167114,322
833.2854,328
833.403687,329
833.521973,325
833.640259,311
833.758545,317
833.876831,321
833.995056,325
834.113281,306
834.231628,309
834.349915,317
834.468201,309
834.586426,319
834.704651,322
834.822998,328
834.941162,320
835.059448,319
835.177673,324
835.295959,315
835.414246,319
835.53241,318
835.650635,311
835.768921,318
835.887146,308
836.005371,305
836.123596,313
836.241821,306
836.360046,321
836.478271,322
836.596497,309
836.714722,308
836.832886,329
836.95105,321
837.069336,310
837.1875,327
837.305725,309
837.423889,310
837.542053,313
837.660339,320
837.778503,316
837.896667,312
838.014832,319
838.132996,312
838.25116,304
838.369385,309
838.487488,315
838.605713,319
838.723877,314
838.84198,306
838.960205,315
839.078308,319
839.196472,325
839.314636,302
839.4328,310
839.550964,324
839.669067,318
839.787231,323
839.905396,330
840.023499,315
840.141602,310
840.259766,309
840.377869,317
840.495972,319
840.614136,327
840.732239,322
840.850342,317
840.968445,324
841.086548,315
841.204651,298
841.322754,317
841.440918,307
841.55896,303
841.677002,328
841.795166,313
841.913208,311
842.031311,318
842.149353,314
842.267456,322
842.385498,322
842.503601,320
842.621643,314
842.739746,317
842.857788,307
842.97583,309
843.093933,307
843.211975,315
843.330017,310
843.44812,317
843.566101,315
843.684204,326
843.802246,315
843.920227,323
844.038269,310
844.156311,313
844.274292,325
844.392395,310
844.510376,308
844.628357,324
844.74646,313
844.864441,316
844.982422,309
845.100403,319
845.218384,317
845.336426,329
845.454468,320
845.572449,316
845.69043,310
845.808411,325
845.926453,311
846.044373,329
846.162354,308
846.280396,327
846.398315,309
846.516296,315
846.634216,309
846.752197,316
846.870178,315
846.988098,318
847.106079,307
847.22406,333
847.34198,320
847.4599,320
847.577881,318
847.695801,323
847.813782,320
847.931641,323
848.049561,299
848.167603,317
848.285461,317
848.403381,324
848.521362,318
848.639221,325
848.75708,320
848.875,313
848.99292,308
849.110901,313
849.22876,320
849.34668,337
849.464539,330
849.582458,330
849.700317,322
849.818176,312
849.936096,306
850.053955,322
850.171875,326
850.289673,319
850.407593,322
850.525452,318
850.643311,317
850.761169,319
850.878967,302
850.996887,322
851.114746,313
851.232544,321
851.350403,309
851.468262,313
851.58606,306
851.703979,307
851.821777,312
851.939636,303
852.057434,315
852.175232,322
852.293091,309
852.410889,322
852.528687,316
852.646545,319
852.764343,313
852.88208,314
852.999939,320
853.117676,323
853.235535,316
853.353271,317
853.471069,327
853.588928,319
853.706604,329
853.824402,319
853.9422,305
854.059998,326
854.177734,306
854.295532,311
854.413269,308
854.531006,329
854.648804,313
854.766541,314
854.884277,313
855.002014,324
855.119751,305
855.237549,313
855.355225,308
855.473022,312
855.590698,301
855.708435,311
855.826172,317
855.943848,313
856.061646,313
856.179321,319
856.296997,317
856.414795,320
856.53241,309
856.650085,317
856.767822,315
856.885559,325
857.003174,319
857.120911,319
857.238586,315
857.356201,311
857.473938,316
857.591614,319
857.709351,309
857.826965,322
857.944641,316
858.062317,329
858.179993,322
858.297668,324
858.415283,328
858.532959,312
858.650574,310
858.768188,340
858.885803,321
859.003479,316
859.121094,308
859.23877,309
859.356384,316
859.473999,334
859.591675,317
859.709229,319
859.826843,309
859.944458,324
860.062012,307
860.179626,319
860.297302,326
860.414856,318
860.532471,314
860.650024,320
860.767639,320
860.885193,319
861.002808,329
861.120361,312
861.237976,327
861.35553,322
861.473022,324
861.590698,323
861.708191,329
861.825745,308
861.943298,320
862.060852,316
862.178406,318
862.295959,311
862.413513,307
862.531006,308
862.64856,323
862.766113,324
862.883667,317
863.00116,331
863.118713,298
863.236206,320
863.353699,302
863.471252,323
863.588745,313
863.706177,323
863.82373,318
863.941162,320
864.058716,317
864.176208,318
864.29364,316
864.411194,317
864.528687,305
864.646118,331
864.763611,293
864.881042,306
864.998535,316
865.116028,313
865.233459,313
865.350891,315
865.468384,318
865.585754,320
865.703308,316
865.820679,322
865.938171,303
866.055542,329
866.173035,311
866.290466,313
866.407837,317
866.52533,316
866.6427,305
866.760071,323
866.877563,313
866.994934,313
867.112305,314
867.229736,319
867.347107,315
867.464539,302
867.58197,320
867.699341,320
867.81665,326
867.934082,317
868.051453,316
868.168823,331
868.286194,309
868.403564,325
868.520935,307
868.638306,315
868.755676,310
868.872986,319
868.990295,318
869.107727,314
869.225037,314
869.342346,312
869.459717,328
869.577026,327
869.694336,316
869.811707,332
869.929016,316
870.046326,327
870.163635,320
870.280945,325
870.398254,316
870.515564,310
870.632812,309
870.750183,322
870.867432,319
870.984741,317
871.102051,314
871.219299,318
871.336609,313
871.453918,319
871.571106,309
871.688416,306
871.805664,327
871.922852,323
872.040222,318
872.157471,320
872.274719,319
872.391968,307
872.509155,323
872.626465,321
872.743652,305
872.860962,313
872.978149,328
873.095337,333
873.212646,317
873.329834,302
873.44696,311
873.564209,307
873.681396,322
873.798645,328
873.915894,308
874.03302,313
874.150208,323
874.267456,316
874.384583,313
874.501831,328
874.618958,330
874.736145,330
874.853333,313
874.970459,323
875.087646,306
875.204834,329
875.32196,315
875.439148,330
875.556274,320
875.673401,308
875.790527,323
875.907715,332
876.024841,317
876.141968,314
876.259094,315
876.376282,327
876.493347,307
876.610474,321
876.7276,313
876.844727,321
876.961853,329
877.078918,313
877.195984,325
877.313171,322
877.430237,319
877.547302,322
877.664368,303
877.781433,306
877.898499,319
878.015625,320
878.13269,309
878.249695,324
878.366821,313
878.483887,317
878.600952,301
878.717957,323
878.834961,310
878.952087,327
879.069092,311
879.186157,322
879.303162,322
879.420227,303
879.537231,318
879.654236,323
879.77124,303
879.888306,311
880.005249,316
880.122314,330
880.239319,323
880.356323,314
880.473328,308
880.590271,329
880.707275,316
880.824341,324
880.941284,301
881.058228,318
881.175232,319
881.292236,306
881.40918,305
881.526123,325
881.643066,320
881.760071,321
881.877014,317
881.993958,326
882.11084,309
882.227783,315
882.344727,324
882.46167,311
882.578613,315
882.695618,321
882.812439,311
882.929382,327
883.046326,322
883.163208,316
883.280151,313
883.397034,322
883.513916,307
883.630798,318
883.747742,313
883.864563,329
883.981506,323
884.098389,310
884.21521,316
884.332153,317
884.448975,321
884.565796,313
884.682678,312
884.7995,321
884.916443,323
885.033264,309
885.150085,306
885.266968,325
885.383789,322
885.500671,315
885.617493,310
885.734314,315
885.851196,305
885.967896,325
886.084717,311
886.201599,319
886.318359,320
886.435181,311
886.552002,321
886.668762,320
886.785645,310
886.902344,323
887.019165,319
887.135925,320
887.252747,318
887.369446,311
887.486267,308
887.603027,314
887.719788,318
887.836548,308
887.953247,326
888.070068,334
888.186829,289
888.303528,305
888.420288,310
888.536987,318
888.653687,323
888.770447,311
888.887146,323
889.003967,321
889.120667,309
889.237305,319
889.354065,313
889.470703,318
889.587463,332
889.704163,319
889.820862,303
889.937561,324
890.054199,322
890.170837,330
890.287598,306
890.404236,331
890.520874,321
890.637634,311
890.754211,318
890.87085,315
890.987549,316
891.104187,314
891.220886,331
891.337463,310
891.454102,319
891.57074,333
891.687378,323
891.804077,331
891.920654,302
892.037231,330
892.15387,321
892.270447,322
892.387085,318
892.503723,328
892.6203,310
892.736877,313
892.853516,310
892.970032,328
893.08667,313
893.203186,326
893.319763,306
893.43634,309
893.552917,313
893.669556,320
893.786011,306
893.902588,317
894.019165,317
894.135681,320
894.252197,319
894.368835,328
894.485291,315
894.601868,313
894.718384,327
894.8349,318
894.951355,303
895.067932,312
895.184448,316
895.300964,313
895.417419,314
895.533936,322
895.650452,318
895.766907,326
895.883423,312
895.999878,311
896.116333,323
896.232849,325
896.349304,315
896.465759,303
896.582214,312
896.698669,327
896.815125,316
896.931641,324
897.048035,327
897.164551,313
897.280884,311
897.397339,317
897.513794,314
897.630249,333
897.746582,320
897.863098,316
897.979431,326
898.095886,322
898.212341,314
898.328674,325
898.445129,321
898.561462,314
898.677795,311
898.794312,325
898.910645,314
899.026978,322
899.143433,320
899.259766,328
899.37616,333
899.492493,306
899.608765,310
899.725159,325
899.841553,308
899.957947,315
900.07428,319
900.190552,306
900.306946,322
900.423157,309
900.53949,326
900.655884,324
900.772156,304
900.888489,326
901.004822,314
901.121033,329
901.237366,323
901.353699,314
901.46991,305
901.586304,329
901.702515,320
901.818787,326
901.93512,312
902.051331,320
902.167603,316
902.283875,320
902.400085,318
902.516418,324
902.632629,321
902.74884,313
902.865112,315
902.981384,322
903.097595,303
903.213867,321
903.330017,318
903.446289,333
903.5625,320
903.67865,319
903.794922,313
903.911072,322
904.027344,309
904.143494,314
904.259705,306
904.375916,317
904.492065,319
904.608215,318
904.724426,335
904.840576,315
904.956726,311
905.072876,316
905.189087,322
905.305176,325
905.421387,306
905.537537,320
905.653687,321
905.769775,323
905.885925,312
906.002014,325
906.118164,319
906.234314,324
906.350403,311
906.466492,320
906.582642,314
906.69873,331
906.814758,313
906.930908,331
907.046936,308
907.163086,308
907.279175,321
907.395264,324
907.511353,313
907.62738,323
907.743408,323
907.859497,315
907.975525,319
908.091553,328
908.207703,316
908.32373,327
908.439758,317
908.555786,317
908.671814,321
908.787842,325
908.90387,308
909.019775,330
909.135864,303
909.251892,317
909.367859,316
909.483826,305
909.599854,322
909.715881,325
909.831848,312
909.947815,312
910.063782,315
910.179749,325
910.295776,321
910.411743,330
910.527649,310
910.643616,316
910.759583,323
910.875488,315
910.991455,316
911.107361,316
911.223267,317
911.339294,316
911.4552,310
911.571106,324
911.687073,311
911.802979,320
911.918823,330
912.034729,311
912.150635,313
912.266602,330
912.382446,296
912.498352,330
912.614197,302
912.730103,310
912.846008,316
792.44574,318
792.56488,357
792.68396,394
792.80304,383
792.92218,346
793.041199,311
793.160339,312
793.279419,346
793.398499,330
793.517578,312
793.636658,312
793.755737,314
793.874817,347
793.993896,345
794.112976,335
794.232056,326
794.351074,318
794.470215,341
794.589233,326
794.708313,329
794.827393,343
794.946411,331
795.065552,338
795.18457,329
795.303589,330
795.422668,317
795.541687,333
795.660767,321
795.779846,330
795.898865,328
796.017883,335
796.136963,339
796.255981,320
796.375061,321
796.49408,337
796.613037,316
796.732117,321
796.851135,328
796.970154,322
797.089233,312
797.208191,332
797.327271,340
797.446228,315
797.565186,330
797.684265,330
797.803223,325
797.922241,338
798.04126,317
798.160278,339
798.279297,318
798.398315,317
798.517273,335
798.636292,318
798.75531,330
798.874268,326
798.993286,329
799.112244,336
799.231323,331
799.350281,340
799.469238,319
799.588257,332
799.707153,327
799.826111,340
799.945129,325
800.064087,324
800.183044,328
800.302063,318
800.421021,336
800.539978,326
800.658936,322
800.777893,336
800.896912,317
801.015747,332
801.134705,310
801.253723,326
801.37262,312
801.491638,337
801.610535,315
801.729492,320
801.84845,326
801.967407,335
802.086243,327
802.205261,314
802.324158,335
802.443115,316
802.562073,329
802.680969,326
802.799927,328
802.918762,324
803.037659,314
803.156677,336
803.275574,326
803.39447,323
803.513428,323
803.632263,326
803.751221,323
803.870117,323
803.989014,331
804.107971,325
804.226746,330
804.345642,332
804.4646,330
804.583496,312
804.702393,327
804.821228,320
804.940125,338
805.059021,323
805.177917,316
805.296814,315
805.415649,332
805.534546,335
805.653442,309
805.772278,335
805.891113,323
806.01001,324
806.128906,331
806.247742,325
806.366577,333
806.485413,315
806.604309,320
806.723145,337
806.84198,320
806.960876,331
807.079712,323
807.198486,325
807.317383,332
807.436218,336
807.554993,317
807.673889,327
807.792725,315
807.91156,324
808.030396,314
808.14917,329
808.268005,315
808.386841,346
808.505676,326
808.624451,313
808.743286,331
808.862122,325
808.980896,320
809.099731,319
809.218506,331
809.337341,309
809.456116,318
809.57489,339
809.693726,321
809.8125,331
809.931274,320
810.050049,319
810.168884,336
810.287659,314
810.406372,326
810.525269,326
810.643982,320
810.762756,325
810.881531,329
811.000305,320
811.11908,316
811.237854,325
811.356567,337
811.475403,334
811.594116,338
811.71283,312
811.831604,320
811.950378,333
812.069153,340
812.187927,334
812.30658,324
812.425415,318
812.544128,319
812.662781,326
812.781616,321
812.900269,331
813.019043,327
813.137756,321
813.256531,323
813.375244,327
813.493896,328
813.612671,326
813.731384,330
813.850037,322
813.96875,317
814.087524,327
814.206238,323
814.324951,329
814.443604,322
814.562256,333
814.68103,310
814.799683,318
814.918335,317
815.037109,320
815.155762,330
815.274475,323
815.393188,326
815.511841,328
815.630554,316
815.749146,345
815.867859,323
815.986572,335
816.105164,322
816.223877,322
816.342529,303
816.461182,334
816.579895,319
816.698486,321
816.817139,334
816.935791,322
817.054504,331
817.173096,317
817.291748,312
817.4104,322
817.529053,327
817.647644,323
817.766235,320
817.884949,330
818.00354,336
818.122192,325
818.240845,310
818.359436,320
818.478088,306
818.59668,319
818.715271,322
818.833923,327
818.952515,326
819.071106,324
819.189758,318
819.30835,325
819.426941,323
819.545532,329
819.664124,311
819.782715,319
819.901306,316
820.019897,328
820.138489,334
820.25708,328
820.375671,316
820.494202,314
820.612732,313
820.731384,320
820.849915,305
820.968506,331
821.087097,316
821.205627,309
821.324158,321
821.442749,309
821.561279,321
821.679871,322
821.798401,312
821.916931,318
822.035461,310
822.154053,312
822.272583,309
822.391174,311
822.509583,311
822.628174,333
822.746704,325
822.865234,327
822.983765,318
823.102295,318
823.220825,329
823.339294,328
823.457825,318
823.576355,313
823.694824,312
823.813354,326
823.931885,328
824.050354,328
824.168884,326
824.287354,324
824.405823,313
824.524353,317
824.642822,312
824.761353,314
824.879822,319
824.998291,308
825.116699,323
825.235291,309
825.353699,312
825.472168,316
825.590637,311
825.709106,316
825.827576,325
825.946045,315
826.064453,314
826.182983,314
826.301392,304
826.4198,340
826.53833,304
826.656738,332
826.775208,318
826.893677,308
827.012024,321
827.130493,314
827.248962,314
827.36731,322
827.485779,317
827.604248,317
827.722595,299
827.841064,314
827.959412,316
828.077942,319
828.196289,309
828.314636,333
828.433105,308
828.551514,303
828.669861,308
828.78833,311
828.906677,308
829.025085,312
829.143433,302
829.261841,329
829.38031,307
829.498657,306
829.617004,315
829.735413,326
829.85376,320
829.972107,320
830.090515,312
830.208862,318
830.327209,311
830.445557,318
830.563904,321
830.682312,308
830.800659,314
830.919006,315
831.037354,313
831.155701,330
831.274048,319
831.392395,322
831.51062,318
831.629028,316
831.747314,318
831.865662,325
831.984009,317
832.102356,319
832.220642,325
832.338928,317
832.457275,316
832.575623,326
832.693909,312
832.812134,311
832.930481,316
833.048828,322
833.167114,319
833.2854,328
833.403687,319
833.521973,308
833.640259,325
833.758545,323
833.876831,315
833.995056,339
834.113281,317
834.231628,323
834.349915,322
834.468201,311
834.586426,329
834.704651,322
834.822998,317
834.941162,313
835.059448,304
835.177673,318
835.295959,316
835.414246,328
835.53241,305
835.650635,320
835.768921,316
835.887146,310
836.005371,304
836.123596,321
836.241821,309
836.360046,330
836.478271,327
836.596497,327
836.714722,321
836.832886,310
836.95105,323
837.069336,313
837.1875,301
837.305725,322
837.423889,325
837.542053,321
837.660339,328
837.778503,320
837.896667,315
838.014832,316
838.132996,305
838.25116,315
838.369385,313
838.487488,338
838.605713,321
838.723877,328
838.84198,323
838.960205,307
839.078308,323
839.196472,331
839.314636,325
839.4328,328
839.550964,314
839.669067,325
839.787231,309
839.905396,325
840.023499,309
840.141602,320
840.259766,323
840.377869,321
840.495972,309
840.614136,329
840.732239,302
840.850342,331
840.968445,314
841.086548,314
841.204651,315
841.322754,327
841.440918,310
841.55896,333
841.677002,301
841.795166,317
841.913208,317
842.031311,316
842.149353,296
842.267456,327
842.385498,309
842.503601,315
842.621643,299
842.739746,314
842.857788,311
842.97583,311
843.093933,323
843.211975,316
843.330017,316
843.44812,328
843.566101,317
843.684204,322
843.802246,333
843.920227,316
844.038269,318
844.156311,303
844.274292,317
844.392395,331
844.510376,317
844.628357,315
844.74646,320
844.864441,322
844.982422,325
845.100403,323
845.218384,314
845.336426,341
845.454468,311
845.572449,321
845.69043,300
845.808411,319
845.926453,315
846.044373,315
846.162354,306
846.280396,331
846.398315,323
846.516296,337
846.634216,318
846.752197,326
846.870178,320
846.988098,322
847.106079,309
847.22406,316
847.34198,322
847.4599,314
847.577881,323
847.695801,318
847.813782,314
847.931641,314
848.049561,316
848.167603,311
848.285461,312
848.403381,321
848.521362,315
848.639221,315
848.75708,327
848.875,307
848.99292,323
849.110901,320
849.22876,304
849.34668,327
849.464539,319
849.582458,316
849.700317,314
849.818176,318
849.936096,307
850.053955,321
850.171875,319
850.289673,329
850.407593,315
850.525452,320
850.643311,308
850.761169,330
850.878967,312
850.996887,319
851.114746,306
851.232544,316
851.350403,320
851.468262,322
851.58606,314
851.703979,319
851.821777,317
851.939636,304
852.057434,320
852.175232,313
852.293091,304
852.410889,322
852.528687,326
852.646545,312
852.764343,324
852.88208,305
852.999939,308
853.117676,313
853.235535,313
853.353271,317
853.471069,318
853.588928,324
853.706604,313
853.824402,329
853.9422,305
854.059998,319
854.177734,324
854.295532,320
854.413269,300
854.531006,324
854.648804,306
854.766541,334
854.884277,314
855.002014,321
855.119751,321
855.237549,312
855.355225,326
855.473022,303
855.590698,305
855.708435,326
855.826172,311
855.943848,331
856.061646,319
856.179321,315
856.296997,314
856.414795,326
856.53241,317
856.650085,314
856.767822,318
856.885559,312
857.003174,315
857.120911,332
857.238586,314
857.356201,324
857.473938,312
857.591614,328
857.709351,309
857.826965,325
857.944641,317
858.062317,315
858.179993,317
858.297668,314
858.415283,313
858.532959,308
858.650574,323
858.768188,318
858.885803,311
859.003479,323
859.121094,309
859.23877,330
859.356384,300
859.473999,317
859.591675,313
859.709229,312
859.826843,325
859.944458,326
860.062012,325
860.179626,307
860.297302,315
860.414856,325
860.532471,316
860.650024,320
860.767639,316
860.885193,321
861.002808,309
861.120361,313
861.237976,323
861.35553,324
861.473022,306
861.590698,316
861.708191,305
861.825745,319
861.943298,317
862.060852,323
862.178406,320
862.295959,324
862.413513,321
862.531006,317
862.64856,320
862.766113,313
862.883667,315
863.00116,329
863.118713,311
863.236206,319
863.353699,305
863.471252,317
863.588745,325
863.706177,328
863.82373,317
863.941162,316
864.058716,323
864.176208,314
864.29364,315
864.411194,310
864.528687,308
864.646118,319
864.763611,324
864.881042,315
864.998535,329
865.116028,318
865.233459,313
865.350891,333
865.468384,314
865.585754,318
865.703308,322
865.820679,307
865.938171,314
866.055542,310
866.173035,300
866.290466,318
866.407837,305
866.52533,317
866.6427,317
866.760071,327
866.877563,313
866.994934,335
867.112305,327
867.229736,319
867.347107,308
867.464539,325
867.58197,321
867.699341,307
867.81665,324
867.934082,325
868.051453,302
868.168823,327
868.286194,311
868.403564,321
868.520935,308
868.638306,322
868.755676,317
868.872986,304
868.990295,307
869.107727,301
869.225037,315
869.342346,324
869.459717,324
869.577026,307
869.694336,328
869.811707,325
869.929016,312
870.046326,316
870.163635,318
870.280945,320
870.398254,308
870.515564,319
870.632812,317
870.750183,319
870.867432,308
870.984741,324
871.102051,311
871.219299,325
871.336609,317
871.453918,316
871.571106,322
871.688416,322
871.805664,310
871.922852,326
872.040222,308
872.157471,318
872.274719,317
872.391968,321
872.509155,293
872.626465,316
872.743652,327
872.860962,321
872.978149,316
873.095337,324
873.212646,317
873.329834,325
873.44696,323
873.564209,336
873.681396,319
873.798645,323
873.915894,313
874.03302,316
874.150208,314
874.267456,332
874.384583,325
874.501831,323
874.618958,313
874.736145,334
874.853333,311
874.970459,319
875.087646,305
875.204834,318
875.32196,308
875.439148,309
875.556274,311
875.673401,314
875.790527,313
875.907715,316
876.024841,310
876.141968,321
876.259094,314
876.376282,330
876.493347,324
876.610474,314
876.7276,306
876.844727,322
876.961853,317
877.078918,334
877.195984,309
877.313171,332
877.430237,301
877.547302,323
877.664368,314
877.781433,334
877.898499,307
878.015625,313
878.13269,319
878.249695,313
878.366821,319
878.483887,319
878.600952,323
878.717957,312
878.834961,317
878.952087,323
879.069092,320
879.186157,337
879.303162,321
879.420227,320
879.537231,322
879.654236,329
879.77124,314
879.888306,319
880.005249,322
880.122314,313
880.239319,316
880.356323,310
880.473328,313
880.590271,323
880.707275,313
880.824341,326
880.941284,305
881.058228,321
881.175232,311
881.292236,327
881.40918,313
881.526123,315
881.643066,308
881.760071,311
881.877014,310
881.993958,313
882.11084,315
882.227783,326
882.344727,298
882.46167,321
882.578613,321
882.695618,314
882.812439,308
882.929382,330
883.046326,324
883.163208,313
883.280151,318
883.397034,330
883.513916,320
883.630798,314
883.747742,320
883.864563,314
883.981506,316
884.098389,315
884.21521,313
884.332153,310
884.448975,309
884.565796,330
884.682678,298
884.7995,323
884.916443,326
885.033264,326
885.150085,305
885.266968,328
885.383789,315
885.500671,322
885.617493,320
885.734314,336
885.851196,311
885.967896,317
886.084717,320
886.201599,321
886.318359,321
886.435181,307
886.552002,316
886.668762,322
886.785645,324
886.902344,327
887.019165,312
887.135925,325
887.252747,304
887.369446,320
887.486267,326
887.603027,312
887.719788,312
887.836548,320
887.953247,312
888.070068,320
888.186829,302
888.303528,315
888.420288,305
888.536987,316
888.653687,318
888.770447,316
888.887146,319
889.003967,315
889.120667,295
889.237305,315
889.354065,322
889.470703,313
889.587463,307
889.704163,326
889.820862,322
889.937561,324
890.054199,311
890.170837,319
890.287598,300
890.404236,335
890.520874,315
890.637634,326
890.754211,317
890.87085,326
890.987549,311
891.104187,322
891.220886,315
891.337463,315
891.454102,310
891.57074,331
891.687378,315
891.804077,317
891.920654,314
892.037231,307
892.15387,320
892.270447,323
892.387085,324
892.503723,331
892.6203,316
892.736877,317
892.853516,308
892.970032,315
893.08667,327
893.203186,319
893.319763,319
893.43634,322
893.552917,318
893.669556,314
893.786011,303
893.902588,329
894.019165,313
894.135681,315
894.252197,308
894.368835,315
894.485291,315
894.601868,317
894.718384,318
894.8349,327
894.951355,315
895.067932,319
895.184448,316
895.300964,316
895.417419,321
895.533936,305
895.650452,318
895.766907,316
895.883423,298
895.999878,314
896.116333,304
896.232849,328
896.349304,321
896.465759,331
896.582214,321
896.698669,323
896.815125,311
896.931641,321
897.048035,308
897.164551,322
897.280884,306
897.397339,339
897.513794,328
897.630249,310
897.746582,302
897.863098,321
897.979431,313
898.095886,319
898.212341,311
898.328674,330
898.445129,314
898.561462,333
898.677795,329
898.794312,312
898.910645,320
899.026978,313
899.143433,311
899.259766,313
899.37616,320
899.492493,327
899.608765,310
899.725159,303
899.841553,322
899.957947,315
900.07428,310
900.190552,323
900.306946,313
900.423157,311
900.53949,312
900.655884,320
900.772156,311
900.888489,323
901.004822,311
901.121033,321
901.237366,322
901.353699,324
901.46991,321
901.586304,313
901.702515,312
901.818787,314
901.93512,307
902.051331,313
902.167603,321
902.283875,321
902.400085,317
902.516418,319
902.632629,322
902.74884,323
902.865112,318
902.981384,325
903.097595,317
903.213867,324
903.330017,327
903.446289,317
903.5625,312
903.67865,318
903.794922,316
903.911072,315
904.027344,320
904.143494,320
904.259705,313
904.375916,327
904.492065,317
904.608215,317
904.724426,313
904.840576,327
904.956726,315
905.072876,330
905.189087,313
905.305176,342
905.421387,317
905.537537,318
905.653687,314
905.769775,332
905.885925,323
906.002014,320
906.118164,321
906.234314,318
906.350403,315
906.466492,318
906.582642,311
906.69873,312
906.814758,330
906.930908,333
907.046936,314
907.163086,318
907.279175,317
907.395264,331
907.511353,315
907.62738,315
907.743408,316
907.859497,316
907.975525,315
908.091553,312
908.207703,318
908.32373,333
908.439758,316
908.555786,323
908.671814,306
908.787842,334
908.90387,307
909.019775,318
909.135864,320
909.251892,310
909.367859,328
909.483826,315
909.599854,323
909.715881,319
909.831848,313
909.947815,314
910.063782,305
910.179749,320
910.295776,324
910.411743,316
910.527649,315
910.643616,319
910.759583,318
910.875488,336
910.991455,320
911.107361,323
911.223267,310
911.339294,330
911.4552,310
911.571106,322
911.687073,314
911.802979,325
911.918823,330
912.034729,319
912.150635,310
912.266602,325
912.382446,313
912.498352,322
912.614197,309
912.730103,315
912.846008,314
