792.44574,319
792.56488,341
792.68396,399
792.80304,380
792.92218,339
793.041199,325
793.160339,325
793.279419,353
793.398499,322
793.517578,321
793.636658,337
793.755737,341
793.874817,337
793.993896,340
794.112976,333
794.232056,328
794.351074,326
794.470215,335
794.589233,344
794.708313,326
794.827393,325
794.946411,313
795.065552,335
795.18457,351
795.303589,329
795.422668,336
795.541687,335
795.660767,337
795.779846,337
795.898865,338
796.017883,323
796.136963,336
796.255981,328
796.375061,341
796.49408,327
796.613037,321
796.732117,333
796.851135,339
796.970154,328
797.089233,348
797.208191,318
797.327271,326
797.446228,324
797.565186,341
797.684265,325
797.803223,321
797.922241,333
798.04126,336
798.160278,334
798.279297,336
798.398315,332
798.517273,332
798.636292,338
798.75531,332
798.874268,322
798.993286,327
799.112244,322
799.231323,327
799.350281,335
799.469238,324
799.588257,323
799.707153,335
799.826111,327
799.945129,335
800.064087,346
800.183044,335
800.302063,336
800.421021,341
800.539978,340
800.658936,345
800.777893,321
800.896912,316
801.015747,322
801.134705,332
801.253723,314
801.37262,325
801.491638,325
801.610535,336
801.729492,323
801.84845,333
801.967407,329
802.086243,330
802.205261,343
802.324158,333
802.443115,337
802.562073,331
802.680969,332
802.799927,321
802.918762,331
803.037659,334
803.156677,322
803.275574,329
803.39447,321
803.513428,334
803.632263,337
803.751221,320
803.870117,335
803.989014,335
804.107971,341
804.226746,327
804.345642,332
804.4646,324
804.583496,342
804.702393,346
804.821228,318
804.940125,322
805.059021,328
805.177917,336
805.296814,344
805.415649,319
805.534546,318
805.653442,332
805.772278,333
805.891113,325
806.01001,336
806.128906,328
806.247742,337
806.366577,321
806.485413,341
806.604309,332
806.723145,341
806.84198,327
806.960876,334
807.079712,327
807.198486,342
807.317383,338
807.436218,340
807.554993,338
807.673889,332
807.792725,326
807.91156,339
808.030396,334
808.14917,329
808.268005,328
808.386841,340
808.505676,329
808.624451,340
808.743286,337
808.862122,329
808.980896,330
809.099731,331
809.218506,340
809.337341,334
809.456116,346
809.57489,326
809.693726,329
809.8125,322
809.931274,340
810.050049,325
810.168884,335
810.287659,329
810.406372,337
810.525269,341
810.643982,348
810.762756,335
810.881531,329
811.000305,321
811.11908,330
811.237854,330
811.356567,340
811.475403,322
811.594116,334
811.71283,320
811.831604,324
811.950378,334
812.069153,338
812.187927,340
812.30658,333
812.425415,327
812.544128,332
812.662781,348
812.781616,336
812.900269,338
813.019043,330
813.137756,327
813.256531,338
813.375244,315
813.493896,342
813.612671,331
813.731384,343
813.850037,328
813.96875,327
814.087524,338
814.206238,335
814.324951,354
814.443604,333
814.562256,342
814.68103,321
814.799683,325
814.918335,321
815.037109,332
815.155762,335
815.274475,313
815.393188,335
815.511841,338
815.630554,326
815.749146,323
815.867859,343
815.986572,328
816.105164,339
816.223877,333
816.342529,325
816.461182,326
816.579895,337
816.698486,335
816.817139,336
816.935791,337
817.054504,332
817.173096,325
817.291748,343
817.4104,346
817.529053,313
817.647644,331
817.766235,331
817.884949,333
818.00354,342
818.122192,333
818.240845,321
818.359436,320
818.478088,324
818.59668,321
818.715271,326
818.833923,320
818.952515,329
819.071106,330
819.189758,331
819.30835,328
819.426941,324
819.545532,332
819.664124,330
819.782715,316
819.901306,344
820.019897,317
820.138489,308
820.25708,331
820.375671,327
820.494202,314
820.612732,306
820.731384,313
820.849915,327
820.968506,317
821.087097,330
821.205627,312
821.324158,330
821.442749,315
821.561279,325
821.679871,317
821.798401,326
821.916931,332
822.035461,313
822.154053,319
822.272583,317
822.391174,317
822.509583,317
822.628174,314
822.746704,319
822.865234,324
822.983765,309
823.102295,324
823.220825,307
823.339294,321
823.457825,317
823.576355,318
823.694824,319
823.813354,310
823.931885,323
824.050354,322
824.168884,319
824.287354,323
824.405823,319
824.524353,313
824.642822,326
824.761353,322
824.879822,326
824.998291,318
825.116699,314
825.235291,296
825.353699,321
825.472168,313
825.590637,310
825.709106,320
825.827576,311
825.946045,305
826.064453,332
826.182983,303
826.301392,325
826.4198,320
826.53833,310
826.656738,329
826.775208,326
826.893677,327
827.012024,315
827.130493,314
827.248962,324
827.36731,325
827.485779,321
827.604248,331
827.722595,315
827.841064,307
827.959412,319
828.077942,313
828.196289,328
828.314636,322
828.433105,312
828.551514,316
828.669861,317
828.78833,311
828.906677,307
829.025085,329
829.143433,321
829.261841,318
829.38031,311
829.498657,322
829.617004,318
829.735413,319
829.85376,316
829.972107,316
830.090515,312
830.208862,328
830.327209,317
830.445557,323
830.563904,319
830.682312,323
830.800659,327
830.919006,325
831.037354,309
831.155701,319
831.274048,314
831.392395,328
831.51062,314
831.629028,320
831.747314,323
831.865662,321
831.984009,318
832.102356,311
832.220642,318
832.338928,300
832.457275,307
832.575623,322
832.693909,313
832.812134,318
832.930481,316
833.048828,319
833.167114,319
833.2854,320
833.403687,329
833.521973,322
833.640259,328
833.758545,326
833.876831,318
833.995056,321
834.113281,321
834.231628,310
834.349915,316
834.468201,315
834.586426,322
834.704651,331
834.822998,316
834.941162,322
835.059448,309
835.177673,317
835.295959,326
835.414246,306
835.53241,316
835.650635,311
835.768921,330
835.887146,325
836.005371,309
836.123596,333
836.241821,311
836.360046,300
836.478271,325
836.596497,318
836.714722,308
836.832886,333
836.95105,317
837.069336,308
837.1875,328
837.305725,314
837.423889,326
837.542053,327
837.660339,319
837.778503,317
837.896667,336
838.014832,321
838.132996,313
838.25116,319
838.369385,327
838.487488,325
838.605713,329
838.723877,312
838.84198,317
838.960205,333
839.078308,328
839.196472,306
839.314636,324
839.4328,322
839.550964,323
839.669067,329
839.787231,321
839.905396,331
840.023499,331
840.141602,317
840.259766,333
840.377869,315
840.495972,316
840.614136,321
840.732239,308
840.850342,318
840.968445,321
841.086548,317
841.204651,313
841.322754,316
841.440918,318
841.55896,322
841.677002,314
841.795166,317
841.913208,309
842.031311,319
842.149353,315
842.267456,315
842.385498,321
842.503601,316
842.621643,320
842.739746,315
842.857788,314
842.97583,325
843.093933,322
843.211975,330
843.330017,311
843.44812,313
843.566101,307
843.684204,314
843.802246,318
843.920227,315
844.038269,309
844.156311,316
844.274292,310
844.392395,310
844.510376,318
844.628357,315
844.74646,331
844.864441,316
844.982422,317
845.100403,320
845.218384,315
845.336426,302
845.454468,318
845.572449,307
845.69043,317
845.808411,309
845.926453,322
846.044373,318
846.162354,313
846.280396,328
846.398315,310
846.516296,320
846.634216,326
846.752197,327
846.870178,321
846.988098,322
847.106079,327
847.22406,327
847.34198,314
847.4599,317
847.577881,303
847.695801,325
847.813782,321
847.931641,315
848.049561,325
848.167603,307
848.285461,316
848.403381,330
848.521362,316
848.639221,323
848.75708,318
848.875,304
848.99292,322
849.110901,320
849.22876,303
849.34668,320
849.464539,321
849.582458,330
849.700317,315
849.818176,328
849.936096,316
850.053955,319
850.171875,320
850.289673,318
850.407593,322
850.525452,312
850.643311,323
850.761169,315
850.878967,322
850.996887,321
851.114746,320
851.232544,319
851.350403,325
851.468262,323
851.58606,313
851.703979,312
851.821777,326
851.939636,307
852.057434,320
852.175232,324
852.293091,317
852.410889,319
852.528687,312
852.646545,316
852.764343,332
852.88208,311
852.999939,326
853.117676,306
853.235535,326
853.353271,317
853.471069,316
853.588928,311
853.706604,325
853.824402,316
853.9422,324
854.059998,309
854.177734,314
854.295532,317
854.413269,313
854.531006,321
854.648804,323
854.766541,328
854.884277,330
855.002014,314
855.119751,318
855.237549,319
855.355225,322
855.473022,311
855.590698,323
855.708435,304
855.826172,316
855.943848,321
856.061646,308
856.179321,319
856.296997,320
856.414795,314
856.53241,312
856.650085,322
856.767822,321
856.885559,319
857.003174,311
857.120911,327
857.238586,320
857.356201,333
857.473938,329
857.591614,318
857.709351,312
857.826965,322
857.944641,330
858.062317,321
858.179993,306
858.297668,318
858.415283,318
858.532959,320
858.650574,321
858.768188,314
858.885803,321
859.003479,324
859.121094,316
859.23877,319
859.356384,326
859.473999,320
859.591675,325
859.709229,321
859.826843,330
859.944458,307
860.062012,324
860.179626,323
860.297302,319
860.414856,313
860.532471,319
860.650024,335
860.767639,314
860.885193,307
861.002808,337
861.120361,316
861.237976,320
861.35553,305
861.473022,326
861.590698,313
861.708191,305
861.825745,315
861.943298,322
862.060852,321
862.178406,314
862.295959,328
862.413513,321
862.531006,313
862.64856,332
862.766113,309
862.883667,318
863.00116,308
863.118713,330
863.236206,326
863.353699,316
863.471252,310
863.588745,328
863.706177,320
863.82373,322
863.941162,315
864.058716,327
864.176208,315
864.29364,315
864.411194,326
864.528687,314
864.646118,325
864.763611,331
864.881042,321
864.998535,319
865.116028,310
865.233459,319
865.350891,320
865.468384,319
865.585754,314
865.703308,319
865.820679,326
865.938171,326
866.055542,315
866.173035,318
866.290466,314
866.407837,306
866.52533,322
866.6427,322
866.760071,320
866.877563,325
866.994934,328
867.112305,343
867.229736,329
867.347107,330
867.464539,320
867.58197,314
867.699341,313
867.81665,316
867.934082,312
868.051453,328
868.168823,320
868.286194,313
868.403564,323
868.520935,311
868.638306,320
868.755676,309
868.872986,320
868.990295,325
869.107727,319
869.225037,318
869.342346,314
869.459717,319
869.577026,337
869.694336,327
869.811707,324
869.929016,313
870.046326,309
870.163635,312
870.280945,310
870.398254,323
870.515564,304
870.632812,315
870.750183,309
870.867432,314
870.984741,310
871.102051,312
871.219299,315
871.336609,331
871.453918,315
871.571106,321
871.688416,317
871.805664,327
871.922852,310
872.040222,326
872.157471,317
872.274719,328
872.391968,319
872.509155,317
872.626465,324
872.743652,325
872.860962,318
872.978149,315
873.095337,318
873.212646,314
873.329834,320
873.44696,326
873.564209,332
873.681396,320
873.798645,324
873.915894,318
874.03302,317
874.150208,302
874.267456,312
874.384583,308
874.501831,311
874.618958,331
874.736145,321
874.853333,320
874.970459,327
875.087646,316
875.204834,312
875.32196,319
875.439148,310
875.556274,328
875.673401,323
875.790527,320
875.907715,303
876.024841,329
876.141968,318
876.259094,323
876.376282,303
876.493347,331
876.610474,320
876.7276,331
876.844727,312
876.961853,312
877.078918,311
877.195984,310
877.313171,321
877.430237,322
877.547302,322
877.664368,332
877.781433,320
877.898499,304
878.015625,327
878.13269,319
878.249695,302
878.366821,326
878.483887,329
878.600952,306
878.717957,314
878.834961,315
878.952087,312
879.069092,326
879.186157,306
879.303162,324
879.420227,314
879.537231,312
879.654236,326
879.77124,316
879.888306,315
880.005249,323
880.122314,317
880.239319,304
880.356323,329
880.473328,320
880.590271,321
880.707275,306
880.824341,317
880.941284,318
881.058228,310
881.175232,316
881.292236,310
881.40918,323
881.526123,316
881.643066,328
881.760071,327
881.877014,295
881.993958,317
882.11084,322
882.227783,321
882.344727,317
882.46167,324
882.578613,320
882.695618,303
882.812439,303
882.929382,318
883.046326,319
883.163208,319
883.280151,326
883.397034,321
883.513916,325
883.630798,322
883.747742,326
883.864563,325
883.981506,333
884.098389,313
884.21521,311
884.332153,335
884.448975,322
884.565796,315
884.682678,323
884.7995,328
884.916443,322
885.033264,312
885.150085,323
885.266968,296
885.383789,326
885.500671,319
885.617493,304
885.734314,322
885.851196,316
885.967896,308
886.084717,324
886.201599,322
886.318359,316
886.435181,314
886.552002,330
886.668762,319
886.785645,323
886.902344,319
887.019165,326
887.135925,308
887.252747,323
887.369446,330
887.486267,312
887.603027,322
887.719788,321
887.836548,326
887.953247,313
888.070068,317
888.186829,329
888.303528,329
888.420288,330
888.536987,321
888.653687,320
888.770447,310
888.887146,314
889.003967,329
889.120667,342
889.237305,320
889.354065,336
889.470703,327
889.587463,323
889.704163,329
889.820862,320
889.937561,325
890.054199,321
890.170837,323
890.287598,325
890.404236,310
890.520874,317
890.637634,310
890.754211,326
890.87085,320
890.987549,324
891.104187,329
891.220886,317
891.337463,322
891.454102,327
891.57074,319
891.687378,319
891.804077,313
891.920654,310
892.037231,328
892.15387,321
892.270447,308
892.387085,329
892.503723,320
892.6203,325
892.736877,317
892.853516,316
892.970032,332
893.08667,316
893.203186,321
893.319763,320
893.43634,329
893.552917,318
893.669556,338
893.786011,320
893.902588,318
894.019165,322
894.135681,321
894.252197,335
894.368835,328
894.485291,330
894.601868,324
894.718384,327
894.8349,318
894.951355,326
895.067932,320
895.184448,317
895.300964,318
895.417419,313
895.533936,316
895.650452,318
895.766907,315
895.883423,329
895.999878,337
896.116333,317
896.232849,315
896.349304,312
896.465759,327
896.582214,327
896.698669,319
896.815125,327
896.931641,331
897.048035,314
897.164551,327
897.280884,329
897.397339,305
897.513794,309
897.630249,324
897.746582,334
897.863098,322
897.979431,329
898.095886,320
898.212341,322
898.328674,335
898.445129,322
898.561462,329
898.677795,315
898.794312,309
898.910645,324
899.026978,333
899.143433,307
899.259766,335
899.37616,322
899.492493,330
899.608765,314
899.725159,330
899.841553,318
899.957947,313
900.07428,329
900.190552,323
900.306946,311
900.423157,311
900.53949,319
900.655884,325
900.772156,321
900.888489,312
901.004822,318
901.121033,320
901.237366,320
901.353699,308
901.46991,318
901.586304,317
901.702515,326
901.818787,328
901.93512,322
902.051331,318
902.167603,326
902.283875,313
902.400085,324
902.516418,319
902.632629,322
902.74884,319
902.865112,323
902.981384,313
903.097595,325
903.213867,323
903.330017,300
903.446289,328
903.5625,325
903.67865,332
903.794922,321
903.911072,324
904.027344,318
904.143494,325
904.259705,328
904.375916,328
904.492065,327
904.608215,321
904.724426,333
904.840576,325
904.956726,328
905.072876,317
905.189087,312
905.305176,323
905.421387,318
905.537537,306
905.653687,322
905.769775,315
905.885925,330
906.002014,327
906.118164,323
906.234314,331
906.350403,327
906.466492,319
906.582642,326
906.69873,330
906.814758,341
906.930908,314
907.046936,333
907.163086,314
907.279175,319
907.395264,317
907.511353,322
907.62738,322
907.743408,318
907.859497,322
907.975525,327
908.091553,319
908.207703,327
908.32373,320
908.439758,328
908.555786,320
908.671814,330
908.787842,320
908.90387,329
909.019775,324
909.135864,320
909.251892,314
909.367859,320
909.483826,319
909.599854,315
909.715881,324
909.831848,330
909.947815,330
910.063782,330
910.179749,310
910.295776,325
910.411743,316
910.527649,325
910.643616,316
910.759583,317
910.875488,321
910.991455,333
911.107361,319
911.223267,316
911.339294,328
911.4552,334
911.571106,321
911.687073,316
911.802979,320
911.918823,316
912.034729,324
912.150635,310
912.266602,325
912.382446,317
912.498352,316
912.614197,328
912.730103,325
912.846008,329
792.44574,329
792.56488,360
792.68396,399
792.80304,394
792.92218,341
793.041199,324
793.160339,311
793.279419,335
793.398499,317
793.517578,318
793.636658,340
793.755737,332
793.874817,350
793.993896,359
794.112976,343
794.232056,323
794.351074,317
794.470215,332
794.589233,336
794.708313,330
794.827393,338
794.946411,337
795.065552,335
795.18457,328
795.303589,334
795.422668,320
795.541687,328
795.660767,329
795.779846,327
795.898865,316
796.017883,315
796.136963,319
796.255981,328
796.375061,335
796.49408,344
796.613037,340
796.732117,322
796.851135,341
796.970154,338
797.089233,329
797.208191,325
797.327271,335
797.446228,329
797.565186,325
797.684265,323
797.803223,329
797.922241,330
798.04126,327
798.160278,319
798.279297,323
798.398315,331
798.517273,328
798.636292,324
798.75531,324
798.874268,332
798.993286,334
799.112244,332
799.231323,335
799.350281,326
799.469238,321
799.588257,314
799.707153,323
799.826111,343
799.945129,307
800.064087,326
800.183044,321
800.302063,331
800.421021,343
800.539978,312
800.658936,328
800.777893,334
800.896912,329
801.015747,336
801.134705,343
801.253723,332
801.37262,341
801.491638,319
801.610535,334
801.729492,332
801.84845,317
801.967407,333
802.086243,325
802.205261,331
802.324158,328
802.443115,324
802.562073,339
802.680969,333
802.799927,334
802.918762,332
803.037659,326
803.156677,322
803.275574,331
803.39447,320
803.513428,329
803.632263,333
803.751221,334
803.870117,319
803.989014,332
804.107971,335
804.226746,323
804.345642,331
804.4646,322
804.583496,336
804.702393,325
804.821228,335
804.940125,325
805.059021,332
805.177917,337
805.296814,322
805.415649,322
805.534546,328
805.653442,332
805.772278,335
805.891113,323
806.01001,332
806.128906,329
806.247742,327
806.366577,332
806.485413,325
806.604309,324
806.723145,324
806.84198,331
806.960876,310
807.079712,339
807.198486,345
807.317383,320
807.436218,335
807.554993,325
807.673889,315
807.792725,315
807.91156,340
808.030396,338
808.14917,331
808.268005,319
808.386841,326
808.505676,336
808.624451,334
808.743286,315
808.862122,332
808.980896,335
809.099731,341
809.218506,332
809.337341,329
809.456116,339
809.57489,340
809.693726,320
809.8125,336
809.931274,331
810.050049,329
810.168884,320
810.287659,322
810.406372,342
810.525269,333
810.643982,333
810.762756,335
810.881531,315
811.000305,341
811.11908,331
811.237854,332
811.356567,332
811.475403,325
811.594116,347
811.71283,344
811.831604,339
811.950378,325
812.069153,327
812.187927,321
812.30658,334
812.425415,334
812.544128,338
812.662781,325
812.781616,341
812.900269,326
813.019043,339
813.137756,337
813.256531,330
813.375244,329
813.493896,319
813.612671,340
813.731384,337
813.850037,326
813.96875,328
814.087524,333
814.206238,329
814.324951,335
814.443604,325
814.562256,326
814.68103,331
814.799683,334
814.918335,334
815.037109,319
815.155762,335
815.274475,334
815.393188,331
815.511841,310
815.630554,342
815.749146,320
815.867859,329
815.986572,336
816.105164,328
816.223877,333
816.342529,334
816.461182,332
816.579895,334
816.698486,336
816.817139,335
816.935791,331
817.054504,327
817.173096,327
817.291748,317
817.4104,324
817.529053,329
817.647644,330
817.766235,324
817.884949,337
818.00354,329
818.122192,332
818.240845,324
818.359436,322
818.478088,331
818.59668,320
818.715271,322
818.833923,322
818.952515,321
819.071106,317
819.189758,307
819.30835,316
819.426941,320
819.545532,318
819.664124,326
819.782715,312
819.901306,336
820.019897,319
820.138489,303
820.25708,327
820.375671,323
820.494202,315
820.612732,321
820.731384,333
820.849915,316
820.968506,324
821.087097,316
821.205627,308
821.324158,320
821.442749,317
821.561279,325
821.679871,319
821.798401,329
821.916931,319
822.035461,300
822.154053,320
822.272583,326
822.391174,311
822.509583,316
822.628174,307
822.746704,329
822.865234,313
822.983765,329
823.102295,325
823.220825,315
823.339294,321
823.457825,313
823.576355,327
823.694824,318
823.813354,320
823.931885,316
824.050354,315
824.168884,318
824.287354,314
824.405823,319
824.524353,325
824.642822,322
824.761353,318
824.879822,312
824.998291,316
825.116699,334
825.235291,309
825.353699,330
825.472168,306
825.590637,328
825.709106,327
825.827576,321
825.946045,318
826.064453,328
826.182983,306
826.301392,319
826.4198,320
826.53833,326
826.656738,326
826.775208,325
826.893677,314
827.012024,324
827.130493,319
827.248962,324
827.36731,302
827.485779,313
827.604248,314
827.722595,312
827.841064,329
827.959412,313
828.077942,305
828.196289,310
828.314636,309
828.433105,325
828.551514,323
828.669861,316
828.78833,325
828.906677,321
829.025085,321
829.143433,310
829.261841,316
829.38031,312
829.498657,312
829.617004,323
829.735413,314
829.85376,334
829.972107,325
830.090515,321
830.208862,306
830.327209,324
830.445557,309
830.563904,295
830.682312,329
830.800659,314
830.919006,309
831.037354,310
831.155701,330
831.274048,310
831.392395,314
831.51062,319
831.629028,317
831.747314,317
831.865662,309
831.984009,314
832.102356,316
832.220642,315
832.338928,318
832.457275,314
832.575623,315
832.693909,317
832.812134,308
832.930481,318
833.048828,319
833.167114,319
833.2854,323
833.403687,316
833.521973,312
833.640259,318
833.758545,319
833.876831,315
833.995056,319
834.113281,320
834.231628,313
834.349915,302
834.468201,315
834.586426,317
834.704651,314
834.822998,328
834.941162,318
835.059448,323
835.177673,318
835.295959,314
835.414246,311
835.53241,325
835.650635,316
835.768921,321
835.887146,321
836.005371,320
836.123596,306
836.241821,297
836.360046,311
836.478271,321
836.596497,317
836.714722,328
836.832886,320
836.95105,323
837.069336,316
837.1875,323
837.305725,320
837.423889,311
837.542053,328
837.660339,320
837.778503,325
837.896667,314
838.014832,303
838.132996,323
838.25116,312
838.369385,320
838.487488,332
838.605713,327
838.723877,327
838.84198,315
838.960205,307
839.078308,331
839.196472,316
839.314636,318
839.4328,307
839.550964,323
839.669067,324
839.787231,309
839.905396,322
840.023499,326
840.141602,330
840.259766,307
840.377869,315
840.495972,319
840.614136,311
840.732239,322
840.850342,304
840.968445,307
841.086548,309
841.204651,311
841.322754,315
841.440918,326
841.55896,311
841.677002,311
841.795166,319
841.913208,327
842.031311,308
842.149353,320
842.267456,313
842.385498,329
842.503601,321
842.621643,309
842.739746,336
842.857788,304
842.97583,324
843.093933,311
843.211975,319
843.330017,297
843.44812,308
843.566101,316
843.684204,313
843.802246,311
843.920227,312
844.038269,321
844.156311,318
844.274292,325
844.392395,316
844.510376,314
844.628357,323
844.74646,306
844.864441,327
844.982422,317
845.100403,316
845.218384,310
845.336426,324
845.454468,323
845.572449,309
845.69043,310
845.808411,306
845.926453,322
846.044373,317
846.162354,320
846.280396,302
846.398315,316
846.516296,317
846.634216,308
846.752197,318
846.870178,312
846.988098,331
847.106079,308
847.22406,324
847.34198,321
847.4599,316
847.577881,319
847.695801,310
847.813782,317
847.931641,311
848.049561,306
848.167603,325
848.285461,317
848.403381,324
848.521362,312
848.639221,301
848.75708,319
848.875,314
848.99292,323
849.110901,321
849.22876,316
849.34668,323
849.464539,329
849.582458,306
849.700317,314
849.818176,308
849.936096,316
850.053955,317
850.171875,317
850.289673,312
850.407593,308
850.525452,318
850.643311,310
850.761169,310
850.878967,314
850.996887,325
851.114746,322
851.232544,309
851.350403,324
851.468262,321
851.58606,318
851.703979,318
851.821777,302
851.939636,320
852.057434,313
852.175232,322
852.293091,328
852.410889,304
852.528687,323
852.646545,321
852.764343,319
852.88208,320
852.999939,315
853.117676,315
853.235535,313
853.353271,310
853.471069,324
853.588928,318
853.706604,318
853.824402,319
853.9422,307
854.059998,314
854.177734,321
854.295532,318
854.413269,314
854.531006,312
854.648804,331
854.766541,299
854.884277,318
855.002014,313
855.119751,307
855.237549,303
855.355225,330
855.473022,314
855.590698,304
855.708435,320
855.826172,321
855.943848,312
856.061646,327
856.179321,321
856.296997,314
856.414795,323
856.53241,317
856.650085,316
856.767822,312
856.885559,331
857.003174,325
857.120911,311
857.238586,318
857.356201,320
857.473938,316
857.591614,310
857.709351,314
857.826965,308
857.944641,301
858.062317,312
858.179993,311
858.297668,320
858.415283,303
858.532959,312
858.650574,319
858.768188,317
858.885803,322
859.003479,313
859.121094,319
859.23877,320
859.356384,314
859.473999,309
859.591675,323
859.709229,319
859.826843,327
859.944458,322
860.062012,319
860.179626,304
860.297302,321
860.414856,318
860.532471,328
860.650024,301
860.767639,324
860.885193,318
861.002808,301
861.120361,321
861.237976,308
861.35553,311
861.473022,321
861.590698,318
861.708191,325
861.825745,322
861.943298,315
862.060852,318
862.178406,303
862.295959,322
862.413513,313
862.531006,307
862.64856,311
862.766113,318
862.883667,316
863.00116,309
863.118713,306
863.236206,320
863.353699,308
863.471252,316
863.588745,319
863.706177,312
863.82373,307
863.941162,318
864.058716,319
864.176208,321
864.29364,321
864.411194,317
864.528687,312
864.646118,329
864.763611,317
864.881042,322
864.998535,305
865.116028,307
865.233459,321
865.350891,314
865.468384,328
865.585754,324
865.703308,313
865.820679,319
865.938171,323
866.055542,311
866.173035,315
866.290466,320
866.407837,326
866.52533,314
866.6427,326
866.760071,324
866.877563,322
866.994934,332
867.112305,311
867.229736,308
867.347107,320
867.464539,329
867.58197,315
867.699341,322
867.81665,314
867.934082,322
868.051453,325
868.168823,301
868.286194,319
868.403564,318
868.520935,325
868.638306,318
868.755676,319
868.872986,320
868.990295,314
869.107727,309
869.225037,323
869.342346,319
869.459717,321
869.577026,327
869.694336,325
869.811707,311
869.929016,317
870.046326,306
870.163635,313
870.280945,316
870.398254,305
870.515564,310
870.632812,312
870.750183,322
870.867432,322
870.984741,322
871.102051,310
871.219299,306
871.336609,324
871.453918,315
871.571106,325
871.688416,321
871.805664,316
871.922852,326
872.040222,316
872.157471,307
872.274719,319
872.391968,311
872.509155,328
872.626465,311
872.743652,315
872.860962,318
872.978149,311
873.095337,318
873.212646,323
873.329834,326
873.44696,309
873.564209,310
873.681396,323
873.798645,319
873.915894,300
874.03302,315
874.150208,316
874.267456,302
874.384583,312
874.501831,314
874.618958,319
874.736145,313
874.853333,324
874.970459,319
875.087646,324
875.204834,311
875.32196,321
875.439148,312
875.556274,325
875.673401,323
875.790527,339
875.907715,302
876.024841,316
876.141968,314
876.259094,310
876.376282,322
876.493347,329
876.610474,310
876.7276,320
876.844727,320
876.961853,301
877.078918,327
877.195984,321
877.313171,323
877.430237,318
877.547302,307
877.664368,301
877.781433,320
877.898499,323
878.015625,306
878.13269,325
878.249695,325
878.366821,315
878.483887,315
878.600952,319
878.717957,315
878.834961,317
878.952087,319
879.069092,315
879.186157,310
879.303162,313
879.420227,316
879.537231,316
879.654236,320
879.77124,308
879.888306,333
880.005249,324
880.122314,313
880.239319,327
880.356323,308
880.473328,318
880.590271,306
880.707275,326
880.824341,309
880.941284,324
881.058228,308
881.175232,318
881.292236,323
881.40918,328
881.526123,306
881.643066,321
881.760071,318
881.877014,316
881.993958,324
882.11084,315
882.227783,303
882.344727,330
882.46167,311
882.578613,308
882.695618,300
882.812439,311
882.929382,323
883.046326,320
883.163208,325
883.280151,320
883.397034,332
883.513916,320
883.630798,323
883.747742,312
883.864563,322
883.981506,319
884.098389,314
884.21521,309
884.332153,331
884.448975,316
884.565796,315
884.682678,326
884.7995,317
884.916443,316
885.033264,325
885.150085,316
885.266968,302
885.383789,328
885.500671,315
885.617493,322
885.734314,330
885.851196,322
885.967896,321
886.084717,330
886.201599,312
886.318359,327
886.435181,311
886.552002,323
886.668762,330
886.785645,319
886.902344,307
887.019165,313
887.135925,326
887.252747,318
887.369446,327
887.486267,307
887.603027,320
887.719788,315
887.836548,332
887.953247,311
888.070068,324
888.186829,308
888.303528,315
888.420288,317
888.536987,319
888.653687,314
888.770447,319
888.887146,320
889.003967,320
889.120667,306
889.237305,309
889.354065,313
889.470703,325
889.587463,313
889.704163,302
889.820862,316
889.937561,309
890.054199,324
890.170837,313
890.287598,323
890.404236,309
890.520874,325
890.637634,312
890.754211,326
890.87085,314
890.987549,322
891.104187,324
891.220886,329
891.337463,311
891.454102,314
891.57074,316
891.687378,294
891.804077,310
891.920654,321
892.037231,319
892.15387,324
892.270447,309
892.387085,315
892.503723,323
892.6203,315
892.736877,312
892.853516,317
892.970032,307
893.08667,316
893.203186,320
893.319763,317
893.43634,303
893.552917,315
893.669556,329
893.786011,323
893.902588,319
894.019165,319
894.135681,326
894.252197,312
894.368835,309
894.485291,328
894.601868,313
894.718384,323
894.8349,322
894.951355,304
895.067932,314
895.184448,315
895.300964,322
895.417419,323
895.533936,312
895.650452,312
895.766907,312
895.883423,319
895.999878,318
896.116333,317
896.232849,332
896.349304,305
896.465759,319
896.582214,320
896.698669,306
896.815125,323
896.931641,313
897.048035,332
897.164551,318
897.280884,312
897.397339,325
897.513794,322
897.630249,320
897.746582,303
897.863098,328
897.979431,318
898.095886,318
898.212341,331
898.328674,330
898.445129,325
898.561462,301
898.677795,311
898.794312,327
898.910645,309
899.026978,317
899.143433,311
899.259766,307
899.37616,318
899.492493,328
899.608765,308
899.725159,322
899.841553,326
899.957947,323
900.07428,328
900.190552,301
900.306946,314
900.423157,326
900.53949,316
900.655884,329
900.772156,317
900.888489,329
901.004822,321
901.121033,329
901.237366,318
901.353699,310
901.46991,319
901.586304,311
901.702515,310
901.818787,324
901.93512,305
902.051331,325
902.167603,309
902.283875,318
902.400085,312
902.516418,319
902.632629,309
902.74884,315
902.865112,329
902.981384,326
903.097595,310
903.213867,318
903.330017,306
903.446289,314
903.5625,318
903.67865,314
903.794922,320
903.911072,300
904.027344,327
904.143494,302
904.259705,320
904.375916,325
904.492065,308
904.608215,317
904.724426,320
904.840576,313
904.956726,321
905.072876,303
905.189087,325
905.305176,324
905.421387,326
905.537537,316
905.653687,312
905.769775,322
905.885925,327
906.002014,318
906.118164,320
906.234314,319
906.350403,325
906.466492,323
906.582642,308
906.69873,317
906.814758,314
906.930908,321
907.046936,313
907.163086,305
907.279175,317
907.395264,318
907.511353,326
907.62738,311
907.743408,318
907.859497,322
907.975525,310
908.091553,314
908.207703,317
908.32373,309
908.439758,313
908.555786,312
908.671814,310
908.787842,323
908.90387,316
909.019775,313
909.135864,319
909.251892,322
909.367859,312
909.483826,305
909.599854,323
909.715881,315
909.831848,313
909.947815,314
910.063782,322
910.179749,313
910.295776,324
910.411743,327
910.527649,320
910.643616,309
910.759583,320
910.875488,326
910.991455,330
911.107361,329
911.223267,321
911.339294,313
911.4552,329
911.571106,318
911.687073,323
911.802979,319
911.918823,306
912.034729,304
912.150635,324
912.266602,318
912.382446,306
912.498352,325
912.614197,305
912.730103,309
912.846008,312
792.44574,303
792.56488,356
792.68396,392
792.80304,377
792.92218,330
793.041199,308
793.160339,324
793.279419,320
793.398499,329
793.517578,316
793.636658,324
793.755737,345
793.874817,363
793.993896,354
794.112976,326
794.232056,332
794.351074,319
794.470215,334
794.589233,327
794.708313,327
794.827393,327
794.946411,335
795.065552,324
795.18457,328
795.303589,334
795.422668,339
795.541687,322
795.660767,342
795.779846,327
795.898865,313
796.017883,328
796.136963,328
796.255981,341
796.375061,325
796.49408,341
796.613037,326
796.732117,324
796.851135,340
796.970154,328
797.089233,347
797.208191,311
797.327271,331
797.446228,321
797.565186,341
797.684265,345
797.803223,325
797.922241,338
798.04126,333
798.160278,337
798.279297,334
798.398315,336
798.517273,325
798.636292,326
798.75531,333
798.874268,317
798.993286,318
799.112244,333
799.231323,325
799.350281,340
799.469238,325
799.588257,339
799.707153,326
799.826111,336
799.945129,325
800.064087,340
800.183044,346
800.302063,337
800.421021,326
800.539978,335
800.658936,331
800.777893,326
800.896912,323
801.015747,335
801.134705,324
801.253723,338
801.37262,317
801.491638,335
801.610535,327
801.729492,349
801.84845,329
801.967407,325
802.086243,320
802.205261,325
802.324158,325
802.443115,329
802.562073,336
802.680969,314
802.799927,344
802.918762,333
803.037659,345
803.156677,315
803.275574,333
803.39447,343
803.513428,331
803.632263,343
803.751221,320
803.870117,330
803.989014,342
804.107971,324
804.226746,332
804.345642,337
804.4646,327
804.583496,327
804.702393,318
804.821228,332
804.940125,325
805.059021,318
805.177917,330
805.296814,332
805.415649,335
805.534546,320
805.653442,328
805.772278,331
805.891113,329
806.01001,318
806.128906,339
806.247742,324
806.366577,323
806.485413,324
806.604309,317
806.723145,335
806.84198,318
806.960876,343
807.079712,340
807.198486,359
807.317383,331
807.436218,342
807.554993,328
807.673889,333
807.792725,327
807.91156,324
808.030396,337
808.14917,314
808.268005,328
808.386841,326
808.505676,325
808.624451,343
808.743286,333
808.862122,323
808.980896,332
809.099731,344
809.218506,345
809.337341,334
809.456116,332
809.57489,327
809.693726,333
809.8125,342
809.931274,329
810.050049,329
810.168884,352
810.287659,321
810.406372,319
810.525269,333
810.643982,336
810.762756,332
810.881531,330
811.000305,328
811.11908,328
811.237854,318
811.356567,344
811.475403,331
811.594116,332
811.71283,335
811.831604,338
811.950378,328
812.069153,329
812.187927,337
812.30658,345
812.425415,332
812.544128,332
812.662781,319
812.781616,349
812.900269,329
813.019043,340
813.137756,330
813.256531,324
813.375244,329
813.493896,323
813.612671,342
813.731384,341
813.850037,330
813.96875,342
814.087524,344
814.206238,331
814.324951,332
814.443604,326
814.562256,329
814.68103,332
814.799683,335
814.918335,330
815.037109,338
815.155762,328
815.274475,324
815.393188,325
815.511841,338
815.630554,331
815.749146,316
815.867859,328
815.986572,329
816.105164,338
816.223877,326
816.342529,326
816.461182,347
816.579895,344
816.698486,327
816.817139,331
816.935791,316
817.054504,340
817.173096,325
817.291748,317
817.4104,326
817.529053,336
817.647644,343
817.766235,328
817.884949,316
818.00354,326
818.122192,321
818.240845,316
818.359436,348
818.478088,328
818.59668,323
818.715271,327
818.833923,334
818.952515,328
819.071106,323
819.189758,327
819.30835,311
819.426941,316
819.545532,325
819.664124,313
819.782715,320
819.901306,313
820.019897,322
820.138489,315
820.25708,318
820.375671,315
820.494202,321
820.612732,330
820.731384,302
820.849915,317
820.968506,326
821.087097,322
821.205627,319
821.324158,327
821.442749,328
821.561279,323
821.679871,321
821.798401,328
821.916931,316
822.035461,304
822.154053,322
822.272583,318
822.391174,323
822.509583,324
822.628174,305
822.746704,323
822.865234,323
822.983765,314
823.102295,323
823.220825,315
823.339294,332
823.457825,327
823.576355,312
823.694824,329
823.813354,319
823.931885,315
824.050354,314
824.168884,310
824.287354,325
824.405823,309
824.524353,334
824.642822,317
824.761353,300
824.879822,324
824.998291,327
825.116699,321
825.235291,320
825.353699,331
825.472168,307
825.590637,327
825.709106,324
825.827576,316
825.946045,316
826.064453,323
826.182983,319
826.301392,306
826.4198,337
826.53833,322
826.656738,316
826.775208,317
826.893677,319
827.012024,320
827.130493,321
827.248962,328
827.36731,309
827.485779,317
827.604248,307
827.722595,314
827.841064,313
827.959412,322
828.077942,305
828.196289,321
828.314636,318
828.433105,324
828.551514,324
828.669861,326
828.78833,306
828.906677,311
829.025085,315
829.143433,317
829.261841,314
829.38031,312
829.498657,322
829.617004,315
829.735413,316
829.85376,320
829.972107,327
830.090515,331
830.208862,324
830.327209,320
830.445557,313
830.563904,323
830.682312,314
830.800659,314
830.919006,307
831.037354,312
831.155701,323
831.274048,322
831.392395,314
831.51062,311
831.629028,334
831.747314,315
831.865662,319
831.984009,324
832.102356,323
832.220642,322
832.338928,321
832.457275,321
832.575623,326
832.693909,316
832.812134,308
832.930481,304
833.048828,320
833.167114,322
833.2854,322
833.403687,316
833.521973,316
833.640259,323
833.758545,327
833.876831,321
833.995056,316
834.113281,315
834.231628,322
834.349915,310
834.468201,309
834.586426,304
834.704651,312
834.822998,326
834.941162,320
835.059448,334
835.177673,314
835.295959,333
835.414246,316
835.53241,311
835.650635,333
835.768921,322
835.887146,320
836.005371,321
836.123596,320
836.241821,321
836.360046,307
836.478271,316
836.596497,314
836.714722,319
836.832886,326
836.95105,318
837.069336,320
837.1875,330
837.305725,323
837.423889,318
837.542053,316
837.660339,328
837.778503,333
837.896667,331
838.014832,322
838.132996,323
838.25116,329
838.369385,328
838.487488,322
838.605713,337
838.723877,322
838.84198,324
838.960205,324
839.078308,317
839.196472,320
839.314636,321
839.4328,314
839.550964,322
839.669067,333
839.787231,321
839.905396,313
840.023499,320
840.141602,309
840.259766,317
840.377869,323
840.495972,324
840.614136,328
840.732239,325
840.850342,316
840.968445,331
841.086548,323
841.204651,334
841.322754,317
841.440918,309
841.55896,325
841.677002,322
841.795166,326
841.913208,303
842.031311,318
842.149353,319
842.267456,315
842.385498,318
842.503601,304
842.621643,323
842.739746,310
842.857788,310
842.97583,320
843.093933,317
843.211975,315
843.330017,321
843.44812,314
843.566101,323
843.684204,315
843.802246,322
843.920227,304
844.038269,320
844.156311,323
844.274292,323
844.392395,305
844.510376,331
844.628357,325
844.74646,303
844.864441,324
844.982422,323
845.100403,312
845.218384,321
845.336426,308
845.454468,322
845.572449,330
845.69043,319
845.808411,310
845.926453,333
846.044373,307
846.162354,310
846.280396,313
846.398315,315
846.516296,311
846.634216,316
846.752197,320
846.870178,312
846.988098,297
847.106079,325
847.22406,316
847.34198,316
847.4599,314
847.577881,319
847.695801,319
847.813782,313
847.931641,321
848.049561,325
848.167603,325
848.285461,337
848.403381,309
848.521362,319
848.639221,318
848.75708,319
848.875,310
848.99292,314
849.110901,325
849.22876,316
849.34668,315
849.464539,319
849.582458,308
849.700317,315
849.818176,328
849.936096,311
850.053955,311
850.171875,311
850.289673,314
850.407593,316
850.525452,322
850.643311,316
850.761169,316
850.878967,302
850.996887,322
851.114746,327
851.232544,316
851.350403,329
851.468262,311
851.58606,317
851.703979,315
851.821777,308
851.939636,319
852.057434,313
852.175232,310
852.293091,321
852.410889,312
852.528687,311
852.646545,326
852.764343,322
852.88208,310
852.999939,314
853.117676,314
853.235535,311
853.353271,315
853.471069,338
853.588928,316
853.706604,323
853.824402,319
853.9422,309
854.059998,316
854.177734,323
854.295532,319
854.413269,321
854.531006,315
854.648804,316
854.766541,310
854.884277,307
855.002014,316
855.119751,314
855.237549,308
855.355225,324
855.473022,313
855.590698,326
855.708435,314
855.826172,316
855.943848,321
856.061646,323
856.179321,323
856.296997,325
856.414795,314
856.53241,322
856.650085,315
856.767822,332
856.885559,326
857.003174,311
857.120911,312
857.238586,311
857.356201,322
857.473938,311
857.591614,301
857.709351,329
857.826965,324
857.944641,321
858.062317,311
858.179993,338
858.297668,313
858.415283,322
858.532959,318
858.650574,288
858.768188,309
858.885803,320
859.003479,317
859.121094,310
859.23877,316
859.356384,326
859.473999,304
859.591675,315
859.709229,318
859.826843,327
859.944458,319
860.062012,313
860.179626,312
860.297302,327
860.414856,312
860.532471,317
860.650024,319
860.767639,310
860.885193,322
861.002808,314
861.120361,324
861.237976,333
861.35553,312
861.473022,323
861.590698,319
861.708191,328
861.825745,326
861.943298,322
862.060852,319
862.178406,307
862.295959,303
862.413513,312
862.531006,323
862.64856,325
862.766113,319
862.883667,316
863.00116,316
863.118713,321
863.236206,322
863.353699,315
863.471252,312
863.588745,314
863.706177,332
863.82373,323
863.941162,329
864.058716,320
864.176208,313
864.29364,319
864.411194,304
864.528687,310
864.646118,312
864.763611,318
864.881042,326
864.998535,319
865.116028,314
865.233459,318
865.350891,321
865.468384,308
865.585754,312
865.703308,330
865.820679,320
865.938171,317
866.055542,314
866.173035,315
866.290466,316
866.407837,313
866.52533,320
866.6427,320
866.760071,317
866.877563,316
866.994934,321
867.112305,320
867.229736,302
867.347107,317
867.464539,308
867.58197,305
867.699341,324
867.81665,316
867.934082,325
868.051453,311
868.168823,327
868.286194,315
868.403564,314
868.520935,329
868.638306,311
868.755676,317
868.872986,316
868.990295,315
869.107727,326
869.225037,330
869.342346,316
869.459717,320
869.577026,319
869.694336,314
869.811707,312
869.929016,324
870.046326,326
870.163635,319
870.280945,316
870.398254,320
870.515564,319
870.632812,327
870.750183,323
870.867432,313
870.984741,304
871.102051,315
871.219299,315
871.336609,325
871.453918,321
871.571106,327
871.688416,323
871.805664,333
871.922852,314
872.040222,322
872.157471,320
872.274719,318
872.391968,306
872.509155,314
872.626465,315
872.743652,322
872.860962,326
872.978149,309
873.095337,301
873.212646,319
873.329834,321
873.44696,322
873.564209,320
873.681396,310
873.798645,316
873.915894,319
874.03302,317
874.150208,319
874.267456,319
874.384583,318
874.501831,324
874.618958,312
874.736145,310
874.853333,327
874.970459,314
875.087646,333
875.204834,317
875.32196,331
875.439148,324
875.556274,330
875.673401,308
875.790527,309
875.907715,315
876.024841,333
876.141968,319
876.259094,323
876.376282,321
876.493347,314
876.610474,309
876.7276,316
876.844727,313
876.961853,324
877.078918,323
877.195984,314
877.313171,319
877.430237,314
877.547302,312
877.664368,313
877.781433,312
877.898499,318
878.015625,313
878.13269,316
878.249695,321
878.366821,314
878.483887,324
878.600952,316
878.717957,313
878.834961,308
878.952087,313
879.069092,312
879.186157,309
879.303162,327
879.420227,310
879.537231,312
879.654236,309
879.77124,311
879.888306,311
880.005249,325
880.122314,325
880.239319,321
880.356323,303
880.473328,307
880.590271,323
880.707275,321
880.824341,311
880.941284,312
881.058228,321
881.175232,327
881.292236,309
881.40918,326
881.526123,315
881.643066,319
881.760071,325
881.877014,310
881.993958,301
882.11084,310
882.227783,322
882.344727,317
882.46167,320
882.578613,331
882.695618,310
882.812439,320
882.929382,317
883.046326,316
883.163208,325
883.280151,311
883.397034,307
883.513916,311
883.630798,320
883.747742,323
883.864563,316
883.981506,316
884.098389,319
884.21521,328
884.332153,315
884.448975,333
884.565796,308
884.682678,327
884.7995,305
884.916443,313
885.033264,298
885.150085,330
885.266968,308
885.383789,323
885.500671,314
885.617493,314
885.734314,322
885.851196,324
885.967896,324
886.084717,321
886.201599,314
886.318359,309
886.435181,321
886.552002,313
886.668762,313
886.785645,326
886.902344,312
887.019165,313
887.135925,323
887.252747,329
887.369446,311
887.486267,319
887.603027,324
887.719788,304
887.836548,322
887.953247,314
888.070068,324
888.186829,319
888.303528,318
888.420288,316
888.536987,307
888.653687,303
888.770447,317
888.887146,319
889.003967,314
889.120667,309
889.237305,309
889.354065,320
889.470703,317
889.587463,326
889.704163,321
889.820862,310
889.937561,325
890.054199,323
890.170837,316
890.287598,322
890.404236,300
890.520874,320
890.637634,321
890.754211,315
890.87085,317
890.987549,314
891.104187,309
891.220886,321
891.337463,317
891.454102,337
891.57074,319
891.687378,327
891.804077,309
891.920654,303
892.037231,329
892.15387,323
892.270447,301
892.387085,328
892.503723,312
892.6203,325
892.736877,316
892.853516,324
892.970032,318
893.08667,330
893.203186,320
893.319763,316
893.43634,314
893.552917,325
893.669556,312
893.786011,328
893.902588,318
894.019165,321
894.135681,302
894.252197,329
894.368835,313
894.485291,315
894.601868,319
894.718384,311
894.8349,315
894.951355,324
895.067932,310
895.184448,319
895.300964,309
895.417419,318
895.533936,307
895.650452,321
895.766907,326
895.883423,325
895.999878,320
896.116333,319
896.232849,319
896.349304,323
896.465759,320
896.582214,323
896.698669,326
896.815125,334
896.931641,327
897.048035,318
897.164551,320
897.280884,314
897.397339,325
897.513794,318
897.630249,328
897.746582,331
897.863098,330
897.979431,328
898.095886,320
898.212341,320
898.328674,302
898.445129,324
898.561462,314
898.677795,313
898.794312,307
898.910645,323
899.026978,312
899.143433,315
899.259766,324
899.37616,322
899.492493,328
899.608765,314
899.725159,302
899.841553,316
899.957947,320
900.07428,323
900.190552,307
900.306946,320
900.423157,313
900.53949,320
900.655884,326
900.772156,314
900.888489,327
901.004822,318
901.121033,316
901.237366,309
901.353699,316
901.46991,314
901.586304,326
901.702515,320
901.818787,321
901.93512,324
902.051331,316
902.167603,329
902.283875,305
902.400085,331
902.516418,315
902.632629,327
902.74884,332
902.865112,321
902.981384,323
903.097595,318
903.213867,313
903.330017,319
903.446289,320
903.5625,339
903.67865,324
903.794922,313
903.911072,314
904.027344,318
904.143494,326
904.259705,330
904.375916,318
904.492065,316
904.608215,311
904.724426,312
904.840576,318
904.956726,342
905.072876,317
905.189087,319
905.305176,325
905.421387,329
905.537537,329
905.653687,318
905.769775,314
905.885925,323
906.002014,319
906.118164,312
906.234314,320
906.350403,321
906.466492,312
906.582642,316
906.69873,323
906.814758,313
906.930908,325
907.046936,317
907.163086,320
907.279175,311
907.395264,321
907.511353,329
907.62738,320
907.743408,320
907.859497,314
907.975525,320
908.091553,314
908.207703,330
908.32373,321
908.439758,314
908.555786,305
908.671814,313
908.787842,333
908.90387,323
909.019775,322
909.135864,306
909.251892,310
909.367859,325
909.483826,328
909.599854,316
909.715881,317
909.831848,328
909.947815,314
910.063782,333
910.179749,306
910.295776,334
910.411743,306
910.527649,320
910.643616,324
910.759583,321
910.875488,315
910.991455,310
911.107361,327
911.223267,331
911.339294,317
911.4552,308
911.571106,319
911.687073,332
911.802979,316
911.918823,327
912.034729,313
912.150635,311
912.266602,325
912.382446,324
912.498352,324
912.614197,324
912.730103,318
912.846008,305
