792.44574,305
792.56488,357
792.68396,384
792.80304,392
792.92218,340
793.041199,313
793.160339,310
793.279419,341
793.398499,331
793.517578,318
793.636658,328
793.755737,333
793.874817,371
793.993896,328
794.112976,336
794.232056,320
794.351074,337
794.470215,335
794.589233,330
794.708313,326
794.827393,331
794.946411,328
795.065552,329
795.18457,327
795.303589,338
795.422668,326
795.541687,328
795.660767,309
795.779846,336
795.898865,344
796.017883,342
796.136963,331
796.255981,337
796.375061,327
796.49408,330
796.613037,323
796.732117,329
796.851135,307
796.970154,350
797.089233,330
797.208191,332
797.327271,322
797.446228,342
797.565186,334
797.684265,339
797.803223,325
797.922241,328
798.04126,317
798.160278,339
798.279297,311
798.398315,334
798.517273,334
798.636292,326
798.75531,324
798.874268,330
798.993286,321
799.112244,325
799.231323,330
799.350281,332
799.469238,337
799.588257,326
799.707153,335
799.826111,317
799.945129,327
800.064087,322
800.183044,333
800.302063,328
800.421021,329
800.539978,326
800.658936,346
800.777893,325
800.896912,330
801.015747,331
801.134705,329
801.253723,319
801.37262,329
801.491638,337
801.610535,318
801.729492,325
801.84845,317
801.967407,335
802.086243,332
802.205261,321
802.324158,323
802.443115,341
802.562073,315
802.680969,327
802.799927,329
802.918762,333
803.037659,311
803.156677,335
803.275574,311
803.39447,346
803.513428,326
803.632263,330
803.751221,321
803.870117,328
803.989014,328
804.107971,338
804.226746,324
804.345642,326
804.4646,330
804.583496,318
804.702393,333
804.821228,337
804.940125,325
805.059021,329
805.177917,333
805.296814,338
805.415649,327
805.534546,334
805.653442,324
805.772278,321
805.891113,340
806.01001,338
806.128906,309
806.247742,344
806.366577,348
806.485413,321
806.604309,322
806.723145,332
806.84198,332
806.960876,321
807.079712,328
807.198486,332
807.317383,321
807.436218,341
807.554993,335
807.673889,329
807.792725,330
807.91156,331
808.030396,326
808.14917,328
808.268005,353
808.386841,338
808.505676,324
808.624451,332
808.743286,326
808.862122,336
808.980896,330
809.099731,325
809.218506,322
809.337341,329
809.456116,336
809.57489,339
809.693726,322
809.8125,328
809.931274,322
810.050049,341
810.168884,332
810.287659,332
810.406372,338
810.525269,342
810.643982,330
810.762756,342
810.881531,324
811.000305,320
811.11908,333
811.237854,330
811.356567,332
811.475403,329
811.594116,327
811.71283,333
811.831604,327
811.950378,329
812.069153,336
812.187927,346
812.30658,330
812.425415,338
812.544128,334
812.662781,338
812.781616,323
812.900269,313
813.019043,336
813.137756,319
813.256531,338
813.375244,333
813.493896,347
813.612671,331
813.731384,332
813.850037,332
813.96875,339
814.087524,337
814.206238,332
814.324951,334
814.443604,334
814.562256,345
814.68103,329
814.799683,334
814.918335,330
815.037109,334
815.155762,328
815.274475,339
815.393188,341
815.511841,327
815.630554,329
815.749146,340
815.867859,322
815.986572,323
816.105164,322
816.223877,332
816.342529,321
816.461182,339
816.579895,337
816.698486,341
816.817139,342
816.935791,348
817.054504,334
817.173096,331
817.291748,328
817.4104,324
817.529053,313
817.647644,331
817.766235,335
817.884949,331
818.00354,312
818.122192,320
818.240845,304
818.359436,317
818.478088,314
818.59668,313
818.715271,321
818.833923,327
818.952515,326
819.071106,316
819.189758,311
819.30835,327
819.426941,319
819.545532,321
819.664124,328
819.782715,312
819.901306,315
820.019897,320
820.138489,315
820.25708,320
820.375671,315
820.494202,316
820.612732,313
820.731384,317
820.849915,319
820.968506,323
821.087097,313
821.205627,319
821.324158,316
821.442749,315
821.561279,325
821.679871,323
821.798401,324
821.916931,340
822.035461,310
822.154053,320
822.272583,311
822.391174,318
822.509583,323
822.628174,332
822.746704,318
822.865234,312
822.983765,317
823.102295,322
823.220825,319
823.339294,310
823.457825,313
823.576355,324
823.694824,320
823.813354,324
823.931885,319
824.050354,313
824.168884,320
824.287354,315
824.405823,317
824.524353,324
824.642822,321
824.761353,327
824.879822,317
824.998291,330
825.116699,318
825.235291,316
825.353699,318
825.472168,313
825.590637,322
825.709106,302
825.827576,303
825.946045,318
826.064453,314
826.182983,328
826.301392,320
826.4198,315
826.53833,317
826.656738,318
826.775208,314
826.893677,321
827.012024,308
827.130493,316
827.248962,318
827.36731,315
827.485779,313
827.604248,324
827.722595,311
827.841064,320
827.959412,316
828.077942,323
828.196289,322
828.314636,314
828.433105,326
828.551514,332
828.669861,316
828.78833,333
828.906677,314
829.025085,317
829.143433,320
829.261841,321
829.38031,316
829.498657,311
829.617004,315
829.735413,326
829.85376,323
829.972107,309
830.090515,310
830.208862,311
830.327209,312
830.445557,331
830.563904,308
830.682312,308
830.800659,308
830.919006,320
831.037354,305
831.155701,320
831.274048,318
831.392395,316
831.51062,321
831.629028,324
831.747314,300
831.865662,318
831.984009,312
832.102356,320
832.220642,307
832.338928,319
832.457275,320
832.575623,318
832.693909,322
832.812134,317
832.930481,324
833.048828,317
833.167114,308
833.2854,310
833.403687,318
833.521973,316
833.640259,310
833.758545,326
833.876831,315
833.995056,327
834.113281,314
834.231628,313
834.349915,329
834.468201,321
834.586426,318
834.704651,316
834.822998,307
834.941162,324
835.059448,322
835.177673,320
835.295959,291
835.414246,324
835.53241,324
835.650635,321
835.768921,304
835.887146,308
836.005371,317
836.123596,324
836.241821,303
836.360046,323
836.478271,316
836.596497,324
836.714722,320
836.832886,335
836.95105,309
837.069336,317
837.1875,318
837.305725,329
837.423889,311
837.542053,315
837.660339,312
837.778503,308
837.896667,308
838.014832,323
838.132996,312
838.25116,304
838.369385,323
838.487488,316
838.605713,308
838.723877,312
838.84198,314
838.960205,330
839.078308,326
839.196472,322
839.314636,317
839.4328,323
839.550964,294
839.669067,315
839.787231,307
839.905396,318
840.023499,321
840.141602,331
840.259766,319
840.377869,320
840.495972,301
840.614136,319
840.732239,306
840.850342,318
840.968445,313
841.086548,317
841.204651,313
841.322754,327
841.440918,323
841.55896,336
841.677002,311
841.795166,322
841.913208,311
842.031311,329
842.149353,300
842.267456,322
842.385498,309
842.503601,311
842.621643,306
842.739746,318
842.857788,308
842.97583,325
843.093933,324
843.211975,319
843.330017,315
843.44812,324
843.566101,313
843.684204,319
843.802246,331
843.920227,316
844.038269,321
844.156311,323
844.274292,308
844.392395,316
844.510376,317
844.628357,319
844.74646,319
844.864441,325
844.982422,319
845.100403,319
845.218384,326
845.336426,319
845.454468,319
845.572449,328
845.69043,309
845.808411,322
845.926453,309
846.044373,311
846.162354,317
846.280396,320
846.398315,313
846.516296,316
846.634216,309
846.752197,315
846.870178,321
846.988098,306
847.106079,325
847.22406,318
847.34198,319
847.4599,316
847.577881,316
847.695801,318
847.813782,304
847.931641,325
848.049561,324
848.167603,319
848.285461,320
848.403381,306
848.521362,319
848.639221,319
848.75708,314
848.875,327
848.99292,312
849.110901,310
849.22876,324
849.34668,317
849.464539,307
849.582458,330
849.700317,318
849.818176,318
849.936096,308
850.053955,335
850.171875,337
850.289673,320
850.407593,303
850.525452,327
850.643311,308
850.761169,319
850.878967,310
850.996887,317
851.114746,313
851.232544,323
851.350403,315
851.468262,318
851.58606,321
851.703979,318
851.821777,319
851.939636,320
852.057434,325
852.175232,312
852.293091,312
852.410889,326
852.528687,326
852.646545,322
852.764343,315
852.88208,304
852.999939,303
853.117676,317
853.235535,297
853.353271,311
853.471069,309
853.588928,328
853.706604,303
853.824402,334
853.9422,320
854.059998,330
854.177734,310
854.295532,317
854.413269,319
854.531006,310
854.648804,326
854.766541,305
854.884277,304
855.002014,321
855.119751,307
855.237549,326
855.355225,322
855.473022,315
855.590698,321
855.708435,326
855.826172,317
855.943848,315
856.061646,307
856.179321,325
856.296997,313
856.414795,315
856.53241,324
856.650085,316
856.767822,319
856.885559,310
857.003174,309
857.120911,331
857.238586,310
857.356201,323
857.473938,326
857.591614,300
857.709351,326
857.826965,314
857.944641,314
858.062317,309
858.179993,311
858.297668,321
858.415283,306
858.532959,320
858.650574,324
858.768188,321
858.885803,312
859.003479,319
859.121094,335
859.23877,316
859.356384,323
859.473999,319
859.591675,316
859.709229,322
859.826843,300
859.944458,318
860.062012,321
860.179626,324
860.297302,326
860.414856,312
860.532471,310
860.650024,319
860.767639,321
860.885193,312
861.002808,320
861.120361,329
861.237976,309
861.35553,310
861.473022,318
861.590698,327
861.708191,307
861.825745,326
861.943298,308
862.060852,308
862.178406,318
862.295959,320
862.413513,301
862.531006,330
862.64856,326
862.766113,315
862.883667,313
863.00116,319
863.118713,319
863.236206,311
863.353699,312
863.471252,325
863.588745,303
863.706177,310
863.82373,320
863.941162,323
864.058716,302
864.176208,331
864.29364,322
864.411194,331
864.528687,321
864.646118,309
864.763611,317
864.881042,318
864.998535,312
865.116028,311
865.233459,296
865.350891,317
865.468384,310
865.585754,313
865.703308,329
865.820679,309
865.938171,317
866.055542,312
866.173035,305
866.290466,312
866.407837,308
866.52533,317
866.6427,319
866.760071,338
866.877563,308
866.994934,306
867.112305,313
867.229736,335
867.347107,314
867.464539,315
867.58197,315
867.699341,313
867.81665,304
867.934082,345
868.051453,311
868.168823,333
868.286194,320
868.403564,314
868.520935,326
868.638306,322
868.755676,303
868.872986,314
868.990295,307
869.107727,312
869.225037,312
869.342346,320
869.459717,324
869.577026,319
869.694336,322
869.811707,316
869.929016,329
870.046326,329
870.163635,316
870.280945,306
870.398254,326
870.515564,306
870.632812,317
870.750183,313
870.867432,307
870.984741,330
871.102051,305
871.219299,320
871.336609,310
871.453918,317
871.571106,315
871.688416,328
871.805664,324
871.922852,322
872.040222,324
872.157471,322
872.274719,317
872.391968,322
872.509155,312
872.626465,319
872.743652,317
872.860962,331
872.978149,312
873.095337,325
873.212646,311
873.329834,321
873.44696,307
873.564209,316
873.681396,313
873.798645,318
873.915894,311
874.03302,315
874.150208,303
874.267456,332
874.384583,326
874.501831,309
874.618958,304
874.736145,314
874.853333,322
874.970459,321
875.087646,319
875.204834,330
875.32196,319
875.439148,323
875.556274,314
875.673401,333
875.790527,316
875.907715,315
876.024841,317
876.141968,317
876.259094,310
876.376282,310
876.493347,314
876.610474,317
876.7276,314
876.844727,313
876.961853,328
877.078918,319
877.195984,311
877.313171,321
877.430237,316
877.547302,314
877.664368,313
877.781433,332
877.898499,303
878.015625,326
878.13269,306
878.249695,323
878.366821,319
878.483887,316
878.600952,310
878.717957,329
878.834961,310
878.952087,308
879.069092,308
879.186157,321
879.303162,320
879.420227,326
879.537231,302
879.654236,326
879.77124,323
879.888306,310
880.005249,309
880.122314,325
880.239319,303
880.356323,321
880.473328,324
880.590271,315
880.707275,318
880.824341,332
880.941284,318
881.058228,320
881.175232,324
881.292236,314
881.40918,311
881.526123,315
881.643066,320
881.760071,332
881.877014,319
881.993958,317
882.11084,308
882.227783,312
882.344727,316
882.46167,331
882.578613,305
882.695618,305
882.812439,308
882.929382,317
883.046326,307
883.163208,322
883.280151,310
883.397034,315
883.513916,309
883.630798,311
883.747742,333
883.864563,315
883.981506,328
884.098389,327
884.21521,307
884.332153,320
884.448975,314
884.565796,313
884.682678,315
884.7995,325
884.916443,323
885.033264,318
885.150085,313
885.266968,316
885.383789,310
885.500671,328
885.617493,309
885.734314,316
885.851196,335
885.967896,314
886.084717,326
886.201599,314
886.318359,329
886.435181,316
886.552002,314
886.668762,318
886.785645,312
886.902344,318
887.019165,307
887.135925,310
887.252747,326
887.369446,322
887.486267,307
887.603027,316
887.719788,322
887.836548,315
887.953247,321
888.070068,304
888.186829,303
888.303528,329
888.420288,311
888.536987,321
888.653687,312
888.770447,304
888.887146,312
889.003967,321
889.120667,315
889.237305,329
889.354065,324
889.470703,321
889.587463,306
889.704163,331
889.820862,304
889.937561,321
890.054199,311
890.170837,320
890.287598,304
890.404236,320
890.520874,324
890.637634,318
890.754211,316
890.87085,321
890.987549,322
891.104187,327
891.220886,309
891.337463,312
891.454102,315
891.57074,319
891.687378,318
891.804077,306
891.920654,304
892.037231,331
892.15387,311
892.270447,323
892.387085,311
892.503723,320
892.6203,311
892.736877,328
892.853516,312
892.970032,313
893.08667,315
893.203186,322
893.319763,317
893.43634,314
893.552917,312
893.669556,328
893.786011,321
893.902588,312
894.019165,304
894.135681,324
894.252197,321
894.368835,332
894.485291,328
894.601868,320
894.718384,317
894.8349,328
894.951355,314
895.067932,315
895.184448,305
895.300964,322
895.417419,305
895.533936,311
895.650452,314
895.766907,321
895.883423,311
895.999878,325
896.116333,317
896.232849,322
896.349304,312
896.465759,323
896.582214,318
896.698669,322
896.815125,311
896.931641,312
897.048035,328
897.164551,330
897.280884,313
897.397339,314
897.513794,305
897.630249,331
897.746582,330
897.863098,320
897.979431,320
898.095886,313
898.212341,323
898.328674,315
898.445129,321
898.561462,320
898.677795,323
898.794312,327
898.910645,329
899.026978,321
899.143433,310
899.259766,329
899.37616,313
899.492493,324
899.608765,323
899.725159,323
899.841553,314
899.957947,325
900.07428,315
900.190552,328
900.306946,318
900.423157,320
900.53949,311
900.655884,317
900.772156,311
900.888489,327
901.004822,330
901.121033,321
901.237366,323
901.353699,311
901.46991,306
901.586304,321
901.702515,313
901.818787,325
901.93512,315
902.051331,312
902.167603,320
902.283875,315
902.400085,319
902.516418,312
902.632629,320
902.74884,336
902.865112,316
902.981384,333
903.097595,305
903.213867,311
903.330017,326
903.446289,321
903.5625,332
903.67865,330
903.794922,319
903.911072,299
904.027344,320
904.143494,314
904.259705,313
904.375916,319
904.492065,317
904.608215,320
904.724426,312
904.840576,324
904.956726,315
905.072876,321
905.189087,315
905.305176,318
905.421387,313
905.537537,311
905.653687,330
905.769775,323
905.885925,324
906.002014,317
906.118164,315
906.234314,318
906.350403,301
906.466492,310
906.582642,312
906.69873,330
906.814758,308
906.930908,326
907.046936,324
907.163086,323
907.279175,318
907.395264,323
907.511353,315
907.62738,320
907.743408,315
907.859497,327
907.975525,322
908.091553,323
908.207703,328
908.32373,320
908.439758,313
908.555786,339
908.671814,316
908.787842,314
908.90387,328
909.019775,305
909.135864,315
909.251892,316
909.367859,287
909.483826,327
909.599854,301
909.715881,322
909.831848,313
909.947815,312
910.063782,316
910.179749,329
910.295776,308
910.411743,309
910.527649,310
910.643616,322
910.759583,318
910.875488,328
910.991455,310
911.107361,318
911.223267,326
911.339294,327
911.4552,318
911.571106,329
911.687073,317
911.802979,335
911.918823,319
912.034729,323
912.150635,310
912.266602,322
912.382446,296
912.498352,306
912.614197,309
912.730103,324
912.846008,319
792.44574,313
792.56488,353
792.68396,415
792.80304,386
792.92218,349
793.041199,319
793.160339,323
793.279419,338
793.398499,323
793.517578,318
793.636658,327
793.755737,329
793.874817,341
793.993896,352
794.112976,329
794.232056,336
794.351074,340
794.470215,336
794.589233,329
794.708313,334
794.827393,328
794.946411,322
795.065552,346
795.18457,346
795.303589,326
795.422668,328
795.541687,340
795.660767,327
795.779846,324
795.898865,313
796.017883,333
796.136963,332
796.255981,332
796.375061,335
796.49408,337
796.613037,326
796.732117,333
796.851135,329
796.970154,343
797.089233,329
797.208191,316
797.327271,328
797.446228,323
797.565186,341
797.684265,336
797.803223,326
797.922241,338
798.04126,317
798.160278,330
798.279297,323
798.398315,322
798.517273,329
798.636292,348
798.75531,327
798.874268,336
798.993286,323
799.112244,345
799.231323,325
799.350281,342
799.469238,329
799.588257,318
799.707153,327
799.826111,335
799.945129,331
800.064087,343
800.183044,319
800.302063,327
800.421021,344
800.539978,319
800.658936,331
800.777893,330
800.896912,318
801.015747,339
801.134705,320
801.253723,319
801.37262,329
801.491638,330
801.610535,322
801.729492,316
801.84845,316
801.967407,329
802.086243,322
802.205261,322
802.324158,339
802.443115,320
802.562073,332
802.680969,333
802.799927,327
802.918762,331
803.037659,331
803.156677,327
803.275574,326
803.39447,347
803.513428,325
803.632263,323
803.751221,324
803.870117,328
803.989014,318
804.107971,344
804.226746,334
804.345642,336
804.4646,332
804.583496,331
804.702393,335
804.821228,342
804.940125,326
805.059021,345
805.177917,338
805.296814,336
805.415649,329
805.534546,336
805.653442,315
805.772278,344
805.891113,319
806.01001,327
806.128906,330
806.247742,329
806.366577,323
806.485413,343
806.604309,336
806.723145,325
806.84198,341
806.960876,323
807.079712,333
807.198486,324
807.317383,331
807.436218,329
807.554993,324
807.673889,323
807.792725,330
807.91156,322
808.030396,336
808.14917,346
808.268005,333
808.386841,331
808.505676,315
808.624451,338
808.743286,347
808.862122,331
808.980896,334
809.099731,334
809.218506,327
809.337341,331
809.456116,332
809.57489,335
809.693726,335
809.8125,324
809.931274,341
810.050049,341
810.168884,343
810.287659,334
810.406372,337
810.525269,331
810.643982,345
810.762756,337
810.881531,336
811.000305,333
811.11908,331
811.237854,331
811.356567,335
811.475403,327
811.594116,332
811.71283,338
811.831604,334
811.950378,324
812.069153,336
812.187927,321
812.30658,331
812.425415,330
812.544128,333
812.662781,335
812.781616,330
812.900269,340
813.019043,327
813.137756,324
813.256531,338
813.375244,337
813.493896,330
813.612671,313
813.731384,336
813.850037,338
813.96875,325
814.087524,330
814.206238,335
814.324951,335
814.443604,340
814.562256,322
814.68103,329
814.799683,334
814.918335,332
815.037109,355
815.155762,328
815.274475,334
815.393188,341
815.511841,328
815.630554,325
815.749146,346
815.867859,325
815.986572,327
816.105164,330
816.223877,331
816.342529,323
816.461182,323
816.579895,338
816.698486,345
816.817139,321
816.935791,330
817.054504,317
817.173096,337
817.291748,319
817.4104,330
817.529053,320
817.647644,330
817.766235,326
817.884949,328
818.00354,317
818.122192,335
818.240845,330
818.359436,330
818.478088,301
818.59668,330
818.715271,318
818.833923,335
818.952515,315
819.071106,320
819.189758,330
819.30835,325
819.426941,320
819.545532,330
819.664124,325
819.782715,328
819.901306,329
820.019897,314
820.138489,331
820.25708,317
820.375671,318
820.494202,316
820.612732,316
820.731384,319
820.849915,315
820.968506,308
821.087097,311
821.205627,323
821.324158,311
821.442749,320
821.561279,319
821.679871,309
821.798401,318
821.916931,329
822.035461,319
822.154053,331
822.272583,315
822.391174,314
822.509583,306
822.628174,318
822.746704,310
822.865234,311
822.983765,311
823.102295,320
823.220825,307
823.339294,314
823.457825,319
823.576355,319
823.694824,320
823.813354,315
823.931885,323
824.050354,311
824.168884,325
824.287354,313
824.405823,305
824.524353,319
824.642822,318
824.761353,319
824.879822,328
824.998291,314
825.116699,324
825.235291,322
825.353699,307
825.472168,309
825.590637,316
825.709106,321
825.827576,319
825.946045,319
826.064453,311
826.182983,309
826.301392,321
826.4198,318
826.53833,301
826.656738,325
826.775208,319
826.893677,326
827.012024,322
827.130493,327
827.248962,321
827.36731,317
827.485779,324
827.604248,321
827.722595,323
827.841064,315
827.959412,306
828.077942,310
828.196289,317
828.314636,321
828.433105,307
828.551514,316
828.669861,311
828.78833,322
828.906677,309
829.025085,329
829.143433,318
829.261841,317
829.38031,317
829.498657,328
829.617004,303
829.735413,323
829.85376,310
829.972107,324
830.090515,322
830.208862,321
830.327209,313
830.445557,318
830.563904,319
830.682312,315
830.800659,320
830.919006,331
831.037354,314
831.155701,314
831.274048,323
831.392395,322
831.51062,320
831.629028,313
831.747314,315
831.865662,316
831.984009,320
832.102356,309
832.220642,306
832.338928,328
832.457275,322
832.575623,311
832.693909,321
832.812134,313
832.930481,303
833.048828,326
833.167114,323
833.2854,318
833.403687,309
833.521973,335
833.640259,314
833.758545,318
833.876831,325
833.995056,329
834.113281,303
834.231628,323
834.349915,304
834.468201,311
834.586426,314
834.704651,314
834.822998,320
834.941162,314
835.059448,310
835.177673,318
835.295959,319
835.414246,318
835.53241,303
835.650635,319
835.768921,323
835.887146,310
836.005371,310
836.123596,314
836.241821,320
836.360046,315
836.478271,321
836.596497,315
836.714722,315
836.832886,307
836.95105,312
837.069336,313
837.1875,315
837.305725,307
837.423889,320
837.542053,319
837.660339,311
837.778503,321
837.896667,321
838.014832,331
838.132996,304
838.25116,309
838.369385,322
838.487488,318
838.605713,312
838.723877,323
838.84198,311
838.960205,322
839.078308,331
839.196472,321
839.314636,311
839.4328,325
839.550964,317
839.669067,313
839.787231,319
839.905396,315
840.023499,315
840.141602,321
840.259766,315
840.377869,318
840.495972,321
840.614136,302
840.732239,308
840.850342,329
840.968445,314
841.086548,318
841.204651,314
841.322754,312
841.440918,317
841.55896,326
841.677002,318
841.795166,317
841.913208,319
842.031311,328
842.149353,316
842.267456,320
842.385498,307
842.503601,338
842.621643,326
842.739746,325
842.857788,303
842.97583,315
843.093933,313
843.211975,340
843.330017,316
843.44812,320
843.566101,308
843.684204,325
843.802246,316
843.920227,321
844.038269,330
844.156311,326
844.274292,312
844.392395,315
844.510376,312
844.628357,321
844.74646,329
844.864441,317
844.982422,310
845.100403,309
845.218384,307
845.336426,318
845.454468,312
845.572449,319
845.69043,304
845.808411,325
845.926453,307
846.044373,329
846.162354,310
846.280396,318
846.398315,318
846.516296,322
846.634216,320
846.752197,327
846.870178,315
846.988098,329
847.106079,300
847.22406,328
847.34198,325
847.4599,314
847.577881,317
847.695801,312
847.813782,325
847.931641,306
848.049561,313
848.167603,322
848.285461,305
848.403381,315
848.521362,316
848.639221,330
848.75708,313
848.875,330
848.99292,323
849.110901,322
849.22876,318
849.34668,318
849.464539,308
849.582458,320
849.700317,310
849.818176,316
849.936096,296
850.053955,311
850.171875,307
850.289673,326
850.407593,312
850.525452,312
850.643311,325
850.761169,326
850.878967,310
850.996887,318
851.114746,301
851.232544,319
851.350403,314
851.468262,317
851.58606,312
851.703979,324
851.821777,313
851.939636,321
852.057434,309
852.175232,309
852.293091,314
852.410889,325
852.528687,298
852.646545,328
852.764343,310
852.88208,319
852.999939,310
853.117676,315
853.235535,301
853.353271,313
853.471069,318
853.588928,325
853.706604,300
853.824402,309
853.9422,320
854.059998,319
854.177734,301
854.295532,303
854.413269,316
854.531006,322
854.648804,317
854.766541,306
854.884277,314
855.002014,317
855.119751,316
855.237549,316
855.355225,304
855.473022,319
855.590698,317
855.708435,320
855.826172,311
855.943848,311
856.061646,310
856.179321,315
856.296997,317
856.414795,324
856.53241,307
856.650085,325
856.767822,301
856.885559,307
857.003174,321
857.120911,325
857.238586,324
857.356201,338
857.473938,312
857.591614,320
857.709351,307
857.826965,319
857.944641,310
858.062317,315
858.179993,320
858.297668,318
858.415283,313
858.532959,307
858.650574,325
858.768188,319
858.885803,317
859.003479,322
859.121094,319
859.23877,329
859.356384,305
859.473999,334
859.591675,315
859.709229,329
859.826843,303
859.944458,316
860.062012,307
860.179626,317
860.297302,322
860.414856,311
860.532471,319
860.650024,339
860.767639,322
860.885193,312
861.002808,316
861.120361,317
861.237976,311
861.35553,323
861.473022,320
861.590698,325
861.708191,321
861.825745,317
861.943298,323
862.060852,314
862.178406,317
862.295959,314
862.413513,297
862.531006,316
862.64856,324
862.766113,311
862.883667,326
863.00116,313
863.118713,322
863.236206,323
863.353699,312
863.471252,305
863.588745,324
863.706177,329
863.82373,311
863.941162,334
864.058716,324
864.176208,321
864.29364,312
864.411194,321
864.528687,308
864.646118,328
864.763611,316
864.881042,319
864.998535,312
865.116028,320
865.233459,317
865.350891,315
865.468384,326
865.585754,319
865.703308,322
865.820679,332
865.938171,315
866.055542,333
866.173035,307
866.290466,318
866.407837,320
866.52533,325
866.6427,325
866.760071,322
866.877563,310
866.994934,323
867.112305,319
867.229736,336
867.347107,307
867.464539,311
867.58197,319
867.699341,303
867.81665,317
867.934082,319
868.051453,312
868.168823,322
868.286194,309
868.403564,330
868.520935,301
868.638306,315
868.755676,306
868.872986,320
868.990295,318
869.107727,304
869.225037,308
869.342346,310
869.459717,315
869.577026,324
869.694336,313
869.811707,319
869.929016,329
870.046326,318
870.163635,323
870.280945,320
870.398254,314
870.515564,312
870.632812,317
870.750183,325
870.867432,313
870.984741,320
871.102051,314
871.219299,321
871.336609,304
871.453918,327
871.571106,314
871.688416,309
871.805664,306
871.922852,319
872.040222,310
872.157471,317
872.274719,318
872.391968,331
872.509155,313
872.626465,303
872.743652,315
872.860962,317
872.978149,309
873.095337,318
873.212646,321
873.329834,316
873.44696,317
873.564209,318
873.681396,311
873.798645,323
873.915894,317
874.03302,314
874.150208,315
874.267456,322
874.384583,305
874.501831,320
874.618958,314
874.736145,327
874.853333,324
874.970459,329
875.087646,310
875.204834,339
875.32196,302
875.439148,326
875.556274,327
875.673401,312
875.790527,313
875.907715,325
876.024841,315
876.141968,318
876.259094,322
876.376282,311
876.493347,309
876.610474,306
876.7276,316
876.844727,308
876.961853,311
877.078918,327
877.195984,303
877.313171,317
877.430237,311
877.547302,331
877.664368,311
877.781433,323
877.898499,310
878.015625,315
878.13269,313
878.249695,311
878.366821,322
878.483887,320
878.600952,312
878.717957,307
878.834961,311
878.952087,318
879.069092,308
879.186157,309
879.303162,313
879.420227,320
879.537231,316
879.654236,312
879.77124,287
879.888306,321
880.005249,308
880.122314,328
880.239319,322
880.356323,321
880.473328,314
880.590271,307
880.707275,317
880.824341,321
880.941284,318
881.058228,327
881.175232,312
881.292236,318
881.40918,313
881.526123,315
881.643066,305
881.760071,320
881.877014,315
881.993958,323
882.11084,307
882.227783,321
882.344727,312
882.46167,331
882.578613,319
882.695618,322
882.812439,318
882.929382,328
883.046326,310
883.163208,321
883.280151,320
883.397034,321
883.513916,317
883.630798,331
883.747742,311
883.864563,310
883.981506,331
884.098389,318
884.21521,316
884.332153,312
884.448975,299
884.565796,312
884.682678,313
884.7995,310
884.916443,309
885.033264,314
885.150085,312
885.266968,313
885.383789,322
885.500671,328
885.617493,306
885.734314,324
885.851196,317
885.967896,313
886.084717,318
886.201599,315
886.318359,322
886.435181,311
886.552002,304
886.668762,318
886.785645,308
886.902344,324
887.019165,317
887.135925,317
887.252747,319
887.369446,313
887.486267,316
887.603027,317
887.719788,312
887.836548,317
887.953247,308
888.070068,318
888.186829,322
888.303528,322
888.420288,324
888.536987,317
888.653687,320
888.770447,320
888.887146,313
889.003967,317
889.120667,310
889.237305,320
889.354065,312
889.470703,328
889.587463,317
889.704163,335
889.820862,329
889.937561,314
890.054199,320
890.170837,321
890.287598,303
890.404236,318
890.520874,311
890.637634,326
890.754211,305
890.87085,328
890.987549,322
891.104187,320
891.220886,325
891.337463,306
891.454102,314
891.57074,338
891.687378,303
891.804077,303
891.920654,317
892.037231,302
892.15387,316
892.270447,321
892.387085,320
892.503723,310
892.6203,308
892.736877,316
892.853516,305
892.970032,324
893.08667,324
893.203186,313
893.319763,302
893.43634,326
893.552917,313
893.669556,335
893.786011,309
893.902588,316
894.019165,313
894.135681,319
894.252197,299
894.368835,309
894.485291,300
894.601868,324
894.718384,319
894.8349,308
894.951355,323
895.067932,330
895.184448,318
895.300964,329
895.417419,304
895.533936,314
895.650452,329
895.766907,324
895.883423,318
895.999878,317
896.116333,309
896.232849,328
896.349304,320
896.465759,310
896.582214,316
896.698669,324
896.815125,313
896.931641,324
897.048035,308
897.164551,321
897.280884,301
897.397339,316
897.513794,314
897.630249,318
897.746582,314
897.863098,302
897.979431,318
898.095886,310
898.212341,328
898.328674,311
898.445129,311
898.561462,325
898.677795,320
898.794312,326
898.910645,327
899.026978,318
899.143433,322
899.259766,327
899.37616,328
899.492493,318
899.608765,301
899.725159,321
899.841553,310
899.957947,325
900.07428,313
900.190552,323
900.306946,314
900.423157,333
900.53949,308
900.655884,318
900.772156,308
900.888489,324
901.004822,311
901.121033,313
901.237366,314
901.353699,313
901.46991,317
901.586304,313
901.702515,320
901.818787,323
901.93512,328
902.051331,311
902.167603,323
902.283875,329
902.400085,318
902.516418,309
902.632629,319
902.74884,311
902.865112,308
902.981384,330
903.097595,305
903.213867,310
903.330017,324
903.446289,327
903.5625,331
903.67865,323
903.794922,329
903.911072,310
904.027344,316
904.143494,332
904.259705,314
904.375916,324
904.492065,309
904.608215,314
904.724426,317
904.840576,323
904.956726,322
905.072876,323
905.189087,309
905.305176,319
905.421387,300
905.537537,333
905.653687,321
905.769775,313
905.885925,317
906.002014,316
906.118164,319
906.234314,314
906.350403,328
906.466492,330
906.582642,300
906.69873,316
906.814758,312
906.930908,326
907.046936,310
907.163086,330
907.279175,326
907.395264,315
907.511353,306
907.62738,327
907.743408,314
907.859497,315
907.975525,310
908.091553,333
908.207703,338
908.32373,315
908.439758,298
908.555786,319
908.671814,324
908.787842,314
908.90387,314
909.019775,321
909.135864,319
909.251892,317
909.367859,328
909.483826,317
909.599854,325
909.715881,324
909.831848,325
909.947815,328
910.063782,313
910.179749,315
910.295776,306
910.411743,326
910.527649,324
910.643616,322
910.759583,331
910.875488,321
910.991455,317
911.107361,324
911.223267,314
911.339294,313
911.4552,315
911.571106,321
911.687073,324
911.802979,315
911.918823,331
912.034729,322
912.150635,314
912.266602,318
912.382446,312
912.498352,315
912.614197,315
912.730103,323
912.846008,316
792.44574,313
792.56488,351
792.68396,397
792.80304,385
792.92218,338
793.041199,313
793.160339,326
793.279419,337
793.398499,320
793.517578,334
793.636658,326
793.755737,330
793.874817,353
793.993896,343
794.112976,332
794.232056,322
794.351074,335
794.470215,335
794.589233,339
794.708313,322
794.827393,335
794.946411,322
795.065552,343
795.18457,344
795.303589,327
795.422668,332
795.541687,339
795.660767,329
795.779846,320
795.898865,338
796.017883,330
796.136963,338
796.255981,339
796.375061,331
796.49408,346
796.613037,329
796.732117,318
796.851135,330
796.970154,333
797.089233,321
797.208191,330
797.327271,336
797.446228,329
797.565186,327
797.684265,336
797.803223,340
797.922241,319
798.04126,321
798.160278,338
798.279297,326
798.398315,345
798.517273,332
798.636292,331
798.75531,324
798.874268,336
798.993286,333
799.112244,327
799.231323,331
799.350281,340
799.469238,327
799.588257,337
799.707153,337
799.826111,347
799.945129,327
800.064087,327
800.183044,311
800.302063,330
800.421021,329
800.539978,329
800.658936,334
800.777893,339
800.896912,330
801.015747,320
801.134705,326
801.253723,332
801.37262,322
801.491638,320
801.610535,334
801.729492,330
801.84845,320
801.967407,330
802.086243,322
802.205261,325
802.324158,331
802.443115,344
802.562073,322
802.680969,317
802.799927,333
802.918762,334
803.037659,335
803.156677,330
803.275574,343
803.39447,329
803.513428,317
803.632263,329
803.751221,334
803.870117,327
803.989014,317
804.107971,329
804.226746,317
804.345642,339
804.4646,327
804.583496,322
804.702393,325
804.821228,331
804.940125,344
805.059021,341
805.177917,342
805.296814,324
805.415649,329
805.534546,319
805.653442,319
805.772278,335
805.891113,323
806.01001,330
806.128906,347
806.247742,328
806.366577,313
806.485413,329
806.604309,332
806.723145,323
806.84198,314
806.960876,329
807.079712,323
807.198486,330
807.317383,327
807.436218,336
807.554993,332
807.673889,325
807.792725,332
807.91156,325
808.030396,324
808.14917,318
808.268005,331
808.386841,330
808.505676,314
808.624451,333
808.743286,322
808.862122,329
808.980896,318
809.099731,322
809.218506,333
809.337341,347
809.456116,329
809.57489,335
809.693726,328
809.8125,322
809.931274,332
810.050049,339
810.168884,338
810.287659,349
810.406372,323
810.525269,325
810.643982,333
810.762756,334
810.881531,344
811.000305,329
811.11908,323
811.237854,333
811.356567,327
811.475403,337
811.594116,322
811.71283,339
811.831604,343
811.950378,329
812.069153,339
812.187927,348
812.30658,338
812.425415,340
812.544128,335
812.662781,343
812.781616,336
812.900269,346
813.019043,317
813.137756,324
813.256531,333
813.375244,337
813.493896,334
813.612671,336
813.731384,329
813.850037,335
813.96875,327
814.087524,335
814.206238,327
814.324951,339
814.443604,334
814.562256,333
814.68103,335
814.799683,336
814.918335,329
815.037109,320
815.155762,316
815.274475,330
815.393188,311
815.511841,322
815.630554,329
815.749146,333
815.867859,326
815.986572,324
816.105164,332
816.223877,334
816.342529,315
816.461182,338
816.579895,322
816.698486,318
816.817139,328
816.935791,339
817.054504,323
817.173096,332
817.291748,322
817.4104,319
817.529053,330
817.647644,336
817.766235,330
817.884949,336
818.00354,330
818.122192,327
818.240845,329
818.359436,323
818.478088,320
818.59668,325
818.715271,313
818.833923,329
818.952515,324
819.071106,327
819.189758,322
819.30835,331
819.426941,313
819.545532,325
819.664124,329
819.782715,330
819.901306,315
820.019897,334
820.138489,306
820.25708,329
820.375671,316
820.494202,317
820.612732,322
820.731384,320
820.849915,323
820.968506,323
821.087097,320
821.205627,313
821.324158,327
821.442749,319
821.561279,320
821.679871,324
821.798401,322
821.916931,335
822.035461,311
822.154053,318
822.272583,317
822.391174,322
822.509583,313
822.628174,319
822.746704,315
822.865234,327
822.983765,324
823.102295,324
823.220825,311
823.339294,317
823.457825,328
823.576355,314
823.694824,312
823.813354,322
823.931885,316
824.050354,332
824.168884,303
824.287354,334
824.405823,322
824.524353,301
824.642822,316
824.761353,312
824.879822,329
824.998291,312
825.116699,314
825.235291,326
825.353699,307
825.472168,320
825.590637,323
825.709106,306
825.827576,323
825.946045,342
826.064453,326
826.182983,325
826.301392,307
826.4198,328
826.53833,318
826.656738,317
826.775208,325
826.893677,315
827.012024,315
827.130493,318
827.248962,308
827.36731,317
827.485779,320
827.604248,315
827.722595,307
827.841064,323
827.959412,328
828.077942,315
828.196289,316
828.314636,325
828.433105,320
828.551514,322
828.669861,314
828.78833,317
828.906677,303
829.025085,319
829.143433,318
829.261841,304
829.38031,304
829.498657,313
829.617004,320
829.735413,319
829.85376,305
829.972107,301
830.090515,325
830.208862,309
830.327209,321
830.445557,316
830.563904,309
830.682312,330
830.800659,312
830.919006,329
831.037354,320
831.155701,318
831.274048,316
831.392395,319
831.51062,317
831.629028,322
831.747314,306
831.865662,313
831.984009,313
832.102356,310
832.220642,303
832.338928,307
832.457275,311
832.575623,306
832.693909,331
832.812134,310
832.930481,315
833.048828,316
833.167114,303
833.2854,317
833.403687,312
833.521973,306
833.640259,311
833.758545,323
833.876831,314
833.995056,314
834.113281,303
834.231628,323
834.349915,323
834.468201,330
834.586426,320
834.704651,311
834.822998,315
834.941162,318
835.059448,309
835.177673,315
835.295959,315
835.414246,323
835.53241,313
835.650635,314
835.768921,309
835.887146,323
836.005371,293
836.123596,320
836.241821,330
836.360046,317
836.478271,301
836.596497,319
836.714722,316
836.832886,319
836.95105,310
837.069336,334
837.1875,302
837.305725,312
837.423889,314
837.542053,319
837.660339,313
837.778503,322
837.896667,303
838.014832,321
838.132996,326
838.25116,311
838.369385,320
838.487488,313
838.605713,318
838.723877,325
838.84198,316
838.960205,316
839.078308,300
839.196472,324
839.314636,317
839.4328,315
839.550964,322
839.669067,318
839.787231,323
839.905396,321
840.023499,300
840.141602,323
840.259766,317
840.377869,314
840.495972,316
840.614136,331
840.732239,317
840.850342,316
840.968445,320
841.086548,321
841.204651,317
841.322754,318
841.440918,308
841.55896,314
841.677002,313
841.795166,326
841.913208,301
842.031311,310
842.149353,311
842.267456,313
842.385498,301
842.503601,316
842.621643,301
842.739746,330
842.857788,319
842.97583,311
843.093933,310
843.211975,306
843.330017,311
843.44812,320
843.566101,303
843.684204,339
843.802246,312
843.920227,325
844.038269,313
844.156311,326
844.274292,319
844.392395,308
844.510376,319
844.628357,323
844.74646,319
844.864441,311
844.982422,314
845.100403,316
845.218384,309
845.336426,317
845.454468,315
845.572449,311
845.69043,301
845.808411,327
845.926453,308
846.044373,329
846.162354,311
846.280396,319
846.398315,307
846.516296,312
846.634216,315
846.752197,324
846.870178,311
846.988098,312
847.106079,318
847.22406,316
847.34198,300
847.4599,327
847.577881,308
847.695801,318
847.813782,316
847.931641,318
848.049561,323
848.167603,333
848.285461,312
848.403381,318
848.521362,316
848.639221,335
848.75708,323
848.875,320
848.99292,309
849.110901,319
849.22876,313
849.34668,316
849.464539,314
849.582458,322
849.700317,306
849.818176,313
849.936096,324
850.053955,321
850.171875,325
850.289673,329
850.407593,307
850.525452,303
850.643311,310
850.761169,314
850.878967,319
850.996887,327
851.114746,317
851.232544,325
851.350403,306
851.468262,317
851.58606,329
851.703979,306
851.821777,323
851.939636,308
852.057434,311
852.175232,330
852.293091,311
852.410889,318
852.528687,318
852.646545,308
852.764343,296
852.88208,323
852.999939,312
853.117676,305
853.235535,307
853.353271,319
853.471069,325
853.588928,314
853.706604,318
853.824402,307
853.9422,317
854.059998,327
854.177734,305
854.295532,320
854.413269,306
854.531006,316
854.648804,308
854.766541,319
854.884277,309
855.002014,330
855.119751,310
855.237549,333
855.355225,317
855.473022,318
855.590698,317
855.708435,312
855.826172,316
855.943848,320
856.061646,297
856.179321,319
856.296997,307
856.414795,324
856.53241,305
856.650085,332
856.767822,310
856.885559,322
857.003174,321
857.120911,314
857.238586,316
857.356201,315
857.473938,316
857.591614,316
857.709351,301
857.826965,323
857.944641,298
858.062317,321
858.179993,302
858.297668,318
858.415283,321
858.532959,312
858.650574,316
858.768188,332
858.885803,313
859.003479,326
859.121094,299
859.23877,326
859.356384,311
859.473999,310
859.591675,326
859.709229,306
859.826843,310
859.944458,318
860.062012,315
860.179626,320
860.297302,317
860.414856,333
860.532471,311
860.650024,321
860.767639,330
860.885193,323
861.002808,329
861.120361,313
861.237976,314
861.35553,325
861.473022,320
861.590698,317
861.708191,324
861.825745,319
861.943298,306
862.060852,326
862.178406,322
862.295959,317
862.413513,317
862.531006,312
862.64856,313
862.766113,315
862.883667,314
863.00116,322
863.118713,321
863.236206,305
863.353699,305
863.471252,310
863.588745,310
863.706177,319
863.82373,309
863.941162,322
864.058716,322
864.176208,310
864.29364,317
864.411194,328
864.528687,317
864.646118,318
864.763611,304
864.881042,317
864.998535,316
865.116028,330
865.233459,339
865.350891,316
865.468384,317
865.585754,325
865.703308,314
865.820679,321
865.938171,301
866.055542,315
866.173035,310
866.290466,325
866.407837,298
866.52533,322
866.6427,310
866.760071,315
866.877563,315
866.994934,326
867.112305,316
867.229736,336
867.347107,310
867.464539,322
867.58197,319
867.699341,314
867.81665,311
867.934082,318
868.051453,319
868.168823,313
868.286194,309
868.403564,324
868.520935,306
868.638306,316
868.755676,311
868.872986,313
868.990295,319
869.107727,323
869.225037,312
869.342346,307
869.459717,308
869.577026,320
869.694336,306
869.811707,317
869.929016,317
870.046326,325
870.163635,310
870.280945,312
870.398254,319
870.515564,311
870.632812,314
870.750183,319
870.867432,310
870.984741,318
871.102051,331
871.219299,311
871.336609,317
871.453918,327
871.571106,309
871.688416,333
871.805664,319
871.922852,321
872.040222,316
872.157471,320
872.274719,328
872.391968,308
872.509155,313
872.626465,318
872.743652,327
872.860962,337
872.978149,303
873.095337,325
873.212646,306
873.329834,329
873.44696,317
873.564209,303
873.681396,324
873.798645,318
873.915894,329
874.03302,331
874.150208,301
874.267456,307
874.384583,302
874.501831,314
874.618958,325
874.736145,332
874.853333,312
874.970459,324
875.087646,321
875.204834,316
875.32196,313
875.439148,310
875.556274,324
875.673401,322
875.790527,317
875.907715,317
876.024841,309
876.141968,326
876.259094,319
876.376282,317
876.493347,307
876.610474,318
876.7276,322
876.844727,310
876.961853,302
877.078918,324
877.195984,309
877.313171,318
877.430237,326
877.547302,319
877.664368,315
877.781433,330
877.898499,308
878.015625,323
878.13269,318
878.249695,327
878.366821,317
878.483887,323
878.600952,319
878.717957,332
878.834961,310
878.952087,324
879.069092,309
879.186157,323
879.303162,302
879.420227,306
879.537231,322
879.654236,322
879.77124,328
879.888306,328
880.005249,300
880.122314,316
880.239319,305
880.356323,321
880.473328,313
880.590271,314
880.707275,315
880.824341,326
880.941284,315
881.058228,318
881.175232,313
881.292236,322
881.40918,318
881.526123,319
881.643066,315
881.760071,322
881.877014,319
881.993958,315
882.11084,311
882.227783,307
882.344727,300
882.46167,309
882.578613,315
882.695618,315
882.812439,316
882.929382,323
883.046326,310
883.163208,324
883.280151,313
883.397034,310
883.513916,315
883.630798,300
883.747742,318
883.864563,325
883.981506,317
884.098389,328
884.21521,313
884.332153,325
884.448975,322
884.565796,326
884.682678,299
884.7995,316
884.916443,317
885.033264,324
885.150085,322
885.266968,318
885.383789,311
885.500671,326
885.617493,318
885.734314,313
885.851196,318
885.967896,319
886.084717,333
886.201599,313
886.318359,314
886.435181,312
886.552002,322
886.668762,308
886.785645,316
886.902344,331
887.019165,315
887.135925,325
887.252747,313
887.369446,327
887.486267,313
887.603027,318
887.719788,309
887.836548,319
887.953247,329
888.070068,329
888.186829,310
888.303528,317
888.420288,310
888.536987,316
888.653687,317
888.770447,318
888.887146,318
889.003967,316
889.120667,312
889.237305,312
889.354065,304
889.470703,325
889.587463,306
889.704163,328
889.820862,317
889.937561,322
890.054199,325
890.170837,315
890.287598,317
890.404236,330
890.520874,302
890.637634,323
890.754211,324
890.87085,327
890.987549,316
891.104187,330
891.220886,311
891.337463,305
891.454102,314
891.57074,323
891.687378,301
891.804077,320
891.920654,308
892.037231,306
892.15387,311
892.270447,331
892.387085,321
892.503723,314
892.6203,314
892.736877,325
892.853516,305
892.970032,308
893.08667,310
893.203186,325
893.319763,315
893.43634,309
893.552917,308
893.669556,317
893.786011,318
893.902588,311
894.019165,312
894.135681,298
894.252197,330
894.368835,327
894.485291,320
894.601868,313
894.718384,329
894.8349,324
894.951355,299
895.067932,328
895.184448,327
895.300964,311
895.417419,302
895.533936,320
895.650452,317
895.766907,315
895.883423,311
895.999878,310
896.116333,317
896.232849,318
896.349304,316
896.465759,316
896.582214,305
896.698669,329
896.815125,326
896.931641,321
897.048035,309
897.164551,326
897.280884,317
897.397339,319
897.513794,300
897.630249,322
897.746582,326
897.863098,324
897.979431,317
898.095886,330
898.212341,318
898.328674,324
898.445129,322
898.561462,330
898.677795,308
898.794312,313
898.910645,322
899.026978,327
899.143433,314
899.259766,304
899.37616,325
899.492493,312
899.608765,314
899.725159,313
899.841553,328
899.957947,318
900.07428,321
900.190552,327
900.306946,311
900.423157,322
900.53949,320
900.655884,333
900.772156,329
900.888489,329
901.004822,305
901.121033,330
901.237366,309
901.353699,328
901.46991,318
901.586304,312
901.702515,318
901.818787,323
901.93512,321
902.051331,314
902.167603,325
902.283875,328
902.400085,316
902.516418,330
902.632629,329
902.74884,308
902.865112,309
902.981384,324
903.097595,307
903.213867,323
903.330017,311
903.446289,324
903.5625,308
903.67865,323
903.794922,324
903.911072,321
904.027344,329
904.143494,327
904.259705,312
904.375916,328
904.492065,313
904.608215,311
904.724426,311
904.840576,332
904.956726,308
905.072876,315
905.189087,308
905.305176,312
905.421387,319
905.537537,331
905.653687,306
905.769775,305
905.885925,304
906.002014,315
906.118164,316
906.234314,318
906.350403,323
906.466492,325
906.582642,327
906.69873,310
906.814758,316
906.930908,318
907.046936,314
907.163086,320
907.279175,312
907.395264,320
907.511353,316
907.62738,311
907.743408,306
907.859497,320
907.975525,316
908.091553,313
908.207703,303
908.32373,326
908.439758,319
908.555786,326
908.671814,318
908.787842,319
908.90387,323
909.019775,319
909.135864,296
909.251892,308
909.367859,303
909.483826,320
909.599854,310
909.715881,301
909.831848,314
909.947815,331
910.063782,320
910.179749,322
910.295776,319
910.411743,328
910.527649,316
910.643616,310
910.759583,328
910.875488,320
910.991455,334
911.107361,316
911.223267,313
911.339294,331
911.4552,294
911.571106,308
911.687073,320
911.802979,327
911.918823,317
912.034729,313
912.150635,313
912.266602,308
912.382446,321
912.498352,319
912.614197,313
912.730103,323
912.846008,314
