792.44574,310
792.56488,355
792.68396,401
792.80304,388
792.92218,336
793.041199,316
793.160339,325
793.279419,344
793.398499,336
793.517578,317
793.636658,318
793.755737,342
793.874817,343
793.993896,345
794.112976,338
794.232056,327
794.351074,333
794.470215,328
794.589233,327
794.708313,329
794.827393,322
794.946411,325
795.065552,339
795.18457,341
795.303589,315
795.422668,335
795.541687,324
795.660767,333
795.779846,327
795.898865,337
796.017883,319
796.136963,325
796.255981,336
796.375061,327
796.49408,320
796.613037,331
796.732117,328
796.851135,340
796.970154,319
797.089233,322
797.208191,334
797.327271,333
797.446228,342
797.565186,338
797.684265,326
797.803223,331
797.922241,319
798.04126,320
798.160278,315
798.279297,328
798.398315,326
798.517273,335
798.636292,323
798.75531,329
798.874268,334
798.993286,324
799.112244,307
799.231323,332
799.350281,324
799.469238,324
799.588257,325
799.707153,331
799.826111,325
799.945129,330
800.064087,324
800.183044,325
800.302063,324
800.421021,326
800.539978,330
800.658936,315
800.777893,317
800.896912,326
801.015747,329
801.134705,333
801.253723,333
801.37262,327
801.491638,328
801.610535,338
801.729492,323
801.84845,331
801.967407,322
802.086243,322
802.205261,325
802.324158,329
802.443115,319
802.562073,336
802.680969,336
802.799927,339
802.918762,342
803.037659,346
803.156677,333
803.275574,335
803.39447,329
803.513428,310
803.632263,328
803.751221,332
803.870117,317
803.989014,324
804.107971,327
804.226746,338
804.345642,327
804.4646,337
804.583496,327
804.702393,325
804.821228,337
804.940125,324
805.059021,334
805.177917,327
805.296814,331
805.415649,324
805.534546,330
805.653442,315
805.772278,333
805.891113,320
806.01001,334
806.128906,326
806.247742,329
806.366577,327
806.485413,326
806.604309,340
806.723145,319
806.84198,334
806.960876,339
807.079712,343
807.198486,327
807.317383,340
807.436218,325
807.554993,325
807.673889,325
807.792725,338
807.91156,328
808.030396,325
808.14917,322
808.268005,336
808.386841,320
808.505676,323
808.624451,323
808.743286,329
808.862122,334
808.980896,341
809.099731,334
809.218506,339
809.337341,322
809.456116,330
809.57489,320
809.693726,336
809.8125,341
809.931274,334
810.050049,320
810.168884,333
810.287659,322
810.406372,337
810.525269,341
810.643982,343
810.762756,336
810.881531,314
811.000305,325
811.11908,330
811.237854,342
811.356567,335
811.475403,333
811.594116,354
811.71283,334
811.831604,338
811.950378,320
812.069153,323
812.187927,335
812.30658,332
812.425415,322
812.544128,322
812.662781,333
812.781616,332
812.900269,325
813.019043,328
813.137756,332
813.256531,337
813.375244,320
813.493896,328
813.612671,321
813.731384,333
813.850037,337
813.96875,323
814.087524,326
814.206238,329
814.324951,330
814.443604,313
814.562256,339
814.68103,325
814.799683,325
814.918335,335
815.037109,337
815.155762,341
815.274475,329
815.393188,337
815.511841,332
815.630554,327
815.749146,329
815.867859,336
815.986572,319
816.105164,339
816.223877,325
816.342529,333
816.461182,334
816.579895,332
816.698486,322
816.817139,322
816.935791,335
817.054504,337
817.173096,325
817.291748,334
817.4104,325
817.529053,323
817.647644,322
817.766235,330
817.884949,343
818.00354,323
818.122192,322
818.240845,335
818.359436,325
818.478088,321
818.59668,326
818.715271,306
818.833923,324
818.952515,309
819.071106,326
819.189758,312
819.30835,321
819.426941,323
819.545532,339
819.664124,309
819.782715,318
819.901306,319
820.019897,327
820.138489,318
820.25708,321
820.375671,318
820.494202,328
820.612732,321
820.731384,329
820.849915,321
820.968506,319
821.087097,308
821.205627,318
821.324158,323
821.442749,315
821.561279,330
821.679871,308
821.798401,322
821.916931,321
822.035461,326
822.154053,331
822.272583,309
822.391174,319
822.509583,325
822.628174,316
822.746704,337
822.865234,316
822.983765,322
823.102295,319
823.220825,319
823.339294,315
823.457825,333
823.576355,314
823.694824,327
823.813354,325
823.931885,322
824.050354,316
824.168884,319
824.287354,307
824.405823,324
824.524353,314
824.642822,328
824.761353,325
824.879822,335
824.998291,312
825.116699,324
825.235291,320
825.353699,321
825.472168,321
825.590637,333
825.709106,320
825.827576,329
825.946045,319
826.064453,312
826.182983,333
826.301392,313
826.4198,325
826.53833,320
826.656738,326
826.775208,309
826.893677,327
827.012024,323
827.130493,317
827.248962,309
827.36731,322
827.485779,322
827.604248,319
827.722595,312
827.841064,333
827.959412,321
828.077942,324
828.196289,328
828.314636,319
828.433105,321
828.551514,314
828.669861,316
828.78833,318
828.906677,333
829.025085,321
829.143433,319
829.261841,299
829.38031,309
829.498657,307
829.617004,312
829.735413,333
829.85376,306
829.972107,312
830.090515,319
830.208862,330
830.327209,327
830.445557,323
830.563904,314
830.682312,321
830.800659,323
830.919006,306
831.037354,308
831.155701,307
831.274048,310
831.392395,325
831.51062,333
831.629028,314
831.747314,316
831.865662,314
831.984009,317
832.102356,321
832.220642,310
832.338928,312
832.457275,323
832.575623,312
832.693909,323
832.812134,315
832.930481,325
833.048828,318
833.167114,323
833.2854,305
833.403687,321
833.521973,325
833.640259,320
833.758545,317
833.876831,324
833.995056,304
834.113281,323
834.231628,320
834.349915,321
834.468201,319
834.586426,316
834.704651,314
834.822998,325
834.941162,310
835.059448,323
835.177673,318
835.295959,324
835.414246,312
835.53241,322
835.650635,326
835.768921,309
835.887146,313
836.005371,321
836.123596,326
836.241821,319
836.360046,336
836.478271,322
836.596497,311
836.714722,324
836.832886,321
836.95105,308
837.069336,324
837.1875,325
837.305725,320
837.423889,317
837.542053,319
837.660339,315
837.778503,319
837.896667,314
838.014832,321
838.132996,321
838.25116,336
838.369385,314
838.487488,316
838.605713,327
838.723877,316
838.84198,318
838.960205,316
839.078308,306
839.196472,310
839.314636,307
839.4328,311
839.550964,320
839.669067,313
839.787231,311
839.905396,319
840.023499,334
840.141602,314
840.259766,318
840.377869,316
840.495972,316
840.614136,309
840.732239,328
840.850342,322
840.968445,318
841.086548,314
841.204651,316
841.322754,310
841.440918,328
841.55896,320
841.677002,329
841.795166,319
841.913208,316
842.031311,308
842.149353,322
842.267456,327
842.385498,318
842.503601,329
842.621643,330
842.739746,312
842.857788,314
842.97583,310
843.093933,311
843.211975,313
843.330017,324
843.44812,321
843.566101,322
843.684204,325
843.802246,319
843.920227,317
844.038269,328
844.156311,310
844.274292,322
844.392395,326
844.510376,323
844.628357,315
844.74646,319
844.864441,315
844.982422,333
845.100403,324
845.218384,315
845.336426,321
845.454468,329
845.572449,316
845.69043,319
845.808411,325
845.926453,319
846.044373,314
846.162354,334
846.280396,310
846.398315,327
846.516296,311
846.634216,317
846.752197,317
846.870178,327
846.988098,322
847.106079,326
847.22406,320
847.34198,313
847.4599,309
847.577881,316
847.695801,320
847.813782,311
847.931641,317
848.049561,323
848.167603,327
848.285461,306
848.403381,309
848.521362,313
848.639221,321
848.75708,321
848.875,336
848.99292,325
849.110901,331
849.22876,333
849.34668,318
849.464539,316
849.582458,323
849.700317,320
849.818176,309
849.936096,327
850.053955,321
850.171875,315
850.289673,315
850.407593,319
850.525452,325
850.643311,317
850.761169,305
850.878967,316
850.996887,324
851.114746,324
851.232544,316
851.350403,317
851.468262,311
851.58606,318
851.703979,323
851.821777,317
851.939636,316
852.057434,314
852.175232,327
852.293091,322
852.410889,321
852.528687,320
852.646545,326
852.764343,327
852.88208,313
852.999939,320
853.117676,315
853.235535,312
853.353271,321
853.471069,320
853.588928,317
853.706604,334
853.824402,315
853.9422,339
854.059998,317
854.177734,317
854.295532,315
854.413269,319
854.531006,317
854.648804,318
854.766541,330
854.884277,324
855.002014,315
855.119751,317
855.237549,308
855.355225,311
855.473022,314
855.590698,321
855.708435,326
855.826172,315
855.943848,304
856.061646,315
856.179321,319
856.296997,322
856.414795,298
856.53241,317
856.650085,305
856.767822,317
856.885559,315
857.003174,316
857.120911,310
857.238586,323
857.356201,330
857.473938,336
857.591614,324
857.709351,302
857.826965,312
857.944641,330
858.062317,312
858.179993,302
858.297668,317
858.415283,321
858.532959,322
858.650574,321
858.768188,316
858.885803,310
859.003479,316
859.121094,322
859.23877,324
859.356384,322
859.473999,312
859.591675,321
859.709229,314
859.826843,325
859.944458,319
860.062012,319
860.179626,307
860.297302,318
860.414856,322
860.532471,324
860.650024,315
860.767639,320
860.885193,316
861.002808,324
861.120361,308
861.237976,326
861.35553,309
861.473022,314
861.590698,329
861.708191,326
861.825745,322
861.943298,320
862.060852,318
862.178406,315
862.295959,315
862.413513,323
862.531006,307
862.64856,317
862.766113,317
862.883667,304
863.00116,318
863.118713,318
863.236206,320
863.353699,327
863.471252,304
863.588745,328
863.706177,320
863.82373,317
863.941162,322
864.058716,319
864.176208,306
864.29364,324
864.411194,315
864.528687,319
864.646118,319
864.763611,307
864.881042,319
864.998535,314
865.116028,320
865.233459,317
865.350891,308
865.468384,316
865.585754,326
865.703308,315
865.820679,319
865.938171,312
866.055542,315
866.173035,338
866.290466,312
866.407837,317
866.52533,321
866.6427,329
866.760071,310
866.877563,330
866.994934,311
867.112305,324
867.229736,315
867.347107,335
867.464539,334
867.58197,321
867.699341,322
867.81665,319
867.934082,313
868.051453,318
868.168823,323
868.286194,315
868.403564,320
868.520935,317
868.638306,326
868.755676,321
868.872986,325
868.990295,321
869.107727,323
869.225037,310
869.342346,311
869.459717,330
869.577026,323
869.694336,312
869.811707,315
869.929016,322
870.046326,326
870.163635,318
870.280945,337
870.398254,327
870.515564,315
870.632812,327
870.750183,317
870.867432,323
870.984741,319
871.102051,321
871.219299,309
871.336609,321
871.453918,316
871.571106,326
871.688416,324
871.805664,307
871.922852,313
872.040222,328
872.157471,315
872.274719,318
872.391968,320
872.509155,324
872.626465,311
872.743652,327
872.860962,313
872.978149,296
873.095337,301
873.212646,330
873.329834,324
873.44696,311
873.564209,321
873.681396,324
873.798645,322
873.915894,321
874.03302,307
874.150208,321
874.267456,333
874.384583,327
874.501831,335
874.618958,312
874.736145,317
874.853333,323
874.970459,317
875.087646,309
875.204834,318
875.32196,327
875.439148,307
875.556274,314
875.673401,325
875.790527,314
875.907715,314
876.024841,320
876.141968,325
876.259094,316
876.376282,317
876.493347,325
876.610474,329
876.7276,321
876.844727,324
876.961853,323
877.078918,340
877.195984,317
877.313171,322
877.430237,314
877.547302,324
877.664368,317
877.781433,315
877.898499,329
878.015625,321
878.13269,317
878.249695,316
878.366821,324
878.483887,318
878.600952,314
878.717957,312
878.834961,312
878.952087,305
879.069092,320
879.186157,324
879.303162,312
879.420227,316
879.537231,325
879.654236,324
879.77124,307
879.888306,314
880.005249,320
880.122314,309
880.239319,320
880.356323,317
880.473328,314
880.590271,315
880.707275,312
880.824341,316
880.941284,323
881.058228,328
881.175232,318
881.292236,322
881.40918,330
881.526123,325
881.643066,323
881.760071,322
881.877014,310
881.993958,320
882.11084,315
882.227783,315
882.344727,329
882.46167,312
882.578613,329
882.695618,309
882.812439,321
882.929382,300
883.046326,334
883.163208,316
883.280151,319
883.397034,308
883.513916,325
883.630798,313
883.747742,317
883.864563,318
883.981506,318
884.098389,314
884.21521,325
884.332153,319
884.448975,316
884.565796,325
884.682678,314
884.7995,316
884.916443,321
885.033264,302
885.150085,328
885.266968,332
885.383789,321
885.500671,316
885.617493,334
885.734314,313
885.851196,322
885.967896,313
886.084717,329
886.201599,311
886.318359,324
886.435181,314
886.552002,317
886.668762,310
886.785645,334
886.902344,323
887.019165,319
887.135925,300
887.252747,320
887.369446,320
887.486267,324
887.603027,323
887.719788,332
887.836548,323
887.953247,330
888.070068,316
888.186829,319
888.303528,315
888.420288,315
888.536987,316
888.653687,323
888.770447,315
888.887146,307
889.003967,319
889.120667,320
889.237305,321
889.354065,321
889.470703,328
889.587463,325
889.704163,322
889.820862,322
889.937561,319
890.054199,314
890.170837,311
890.287598,336
890.404236,325
890.520874,317
890.637634,320
890.754211,322
890.87085,321
890.987549,322
891.104187,313
891.220886,324
891.337463,300
891.454102,326
891.57074,320
891.687378,314
891.804077,330
891.920654,317
892.037231,308
892.15387,320
892.270447,320
892.387085,316
892.503723,322
892.6203,324
892.736877,313
892.853516,316
892.970032,306
893.08667,316
893.203186,326
893.319763,335
893.43634,326
893.552917,318
893.669556,310
893.786011,324
893.902588,322
894.019165,325
894.135681,305
894.252197,320
894.368835,320
894.485291,315
894.601868,322
894.718384,318
894.8349,309
894.951355,321
895.067932,303
895.184448,323
895.300964,305
895.417419,316
895.533936,323
895.650452,323
895.766907,318
895.883423,323
895.999878,321
896.116333,314
896.232849,314
896.349304,341
896.465759,319
896.582214,338
896.698669,308
896.815125,307
896.931641,323
897.048035,320
897.164551,304
897.280884,326
897.397339,314
897.513794,330
897.630249,322
897.746582,339
897.863098,323
897.979431,334
898.095886,327
898.212341,332
898.328674,324
898.445129,315
898.561462,327
898.677795,333
898.794312,319
898.910645,326
899.026978,300
899.143433,332
899.259766,318
899.37616,310
899.492493,314
899.608765,305
899.725159,317
899.841553,331
899.957947,323
900.07428,319
900.190552,321
900.306946,334
900.423157,312
900.53949,325
900.655884,321
900.772156,313
900.888489,325
901.004822,323
901.121033,316
901.237366,316
901.353699,310
901.46991,328
901.586304,321
901.702515,321
901.818787,329
901.93512,321
902.051331,314
902.167603,322
902.283875,313
902.400085,322
902.516418,325
902.632629,314
902.74884,320
902.865112,317
902.981384,310
903.097595,314
903.213867,323
903.330017,335
903.446289,324
903.5625,318
903.67865,330
903.794922,314
903.911072,313
904.027344,320
904.143494,316
904.259705,321
904.375916,318
904.492065,327
904.608215,316
904.724426,325
904.840576,306
904.956726,323
905.072876,319
905.189087,325
905.305176,332
905.421387,327
905.537537,312
905.653687,326
905.769775,309
905.885925,322
906.002014,325
906.118164,313
906.234314,318
906.350403,316
906.466492,327
906.582642,314
906.69873,314
906.814758,312
906.930908,326
907.046936,335
907.163086,320
907.279175,311
907.395264,308
907.511353,315
907.62738,323
907.743408,325
907.859497,316
907.975525,330
908.091553,316
908.207703,329
908.32373,323
908.439758,325
908.555786,315
908.671814,322
908.787842,321
908.90387,327
909.019775,316
909.135864,316
909.251892,317
909.367859,323
909.483826,320
909.599854,314
909.715881,311
909.831848,315
909.947815,319
910.063782,333
910.179749,314
910.295776,311
910.411743,326
910.527649,322
910.643616,311
910.759583,318
910.875488,318
910.991455,317
911.107361,312
911.223267,337
911.339294,315
911.4552,329
911.571106,316
911.687073,310
911.802979,321
911.918823,318
912.034729,315
912.150635,307
912.266602,320
912.382446,303
912.498352,313
912.614197,324
912.730103,325
912.846008,342
792.44574,321
792.56488,346
792.68396,387
792.80304,384
792.92218,345
793.041199,333
793.160339,330
793.279419,336
793.398499,341
793.517578,324
793.636658,330
793.755737,325
793.874817,339
793.993896,343
794.112976,325
794.232056,328
794.351074,331
794.470215,321
794.589233,347
794.708313,330
794.827393,323
794.946411,329
795.065552,346
795.18457,327
795.303589,328
795.422668,323
795.541687,341
795.660767,337
795.779846,332
795.898865,333
796.017883,341
796.136963,316
796.255981,321
796.375061,346
796.49408,329
796.613037,341
796.732117,335
796.851135,326
796.970154,337
797.089233,328
797.208191,326
797.327271,328
797.446228,323
797.565186,346
797.684265,344
797.803223,329
797.922241,330
798.04126,323
798.160278,326
798.279297,325
798.398315,330
798.517273,317
798.636292,331
798.75531,341
798.874268,325
798.993286,336
799.112244,330
799.231323,328
799.350281,331
799.469238,327
799.588257,341
799.707153,323
799.826111,333
799.945129,338
800.064087,315
800.183044,325
800.302063,334
800.421021,323
800.539978,324
800.658936,311
800.777893,330
800.896912,327
801.015747,336
801.134705,329
801.253723,330
801.37262,323
801.491638,318
801.610535,324
801.729492,333
801.84845,329
801.967407,316
802.086243,325
802.205261,339
802.324158,322
802.443115,312
802.562073,327
802.680969,329
802.799927,319
802.918762,334
803.037659,338
803.156677,321
803.275574,331
803.39447,330
803.513428,335
803.632263,329
803.751221,330
803.870117,332
803.989014,316
804.107971,318
804.226746,328
804.345642,327
804.4646,319
804.583496,322
804.702393,335
804.821228,321
804.940125,327
805.059021,339
805.177917,317
805.296814,325
805.415649,334
805.534546,320
805.653442,325
805.772278,329
805.891113,330
806.01001,327
806.128906,324
806.247742,321
806.366577,327
806.485413,338
806.604309,320
806.723145,323
806.84198,345
806.960876,322
807.079712,338
807.198486,318
807.317383,346
807.436218,319
807.554993,344
807.673889,340
807.792725,336
807.91156,326
808.030396,334
808.14917,331
808.268005,343
808.386841,331
808.505676,325
808.624451,324
808.743286,337
808.862122,328
808.980896,331
809.099731,335
809.218506,321
809.337341,328
809.456116,329
809.57489,334
809.693726,329
809.8125,328
809.931274,332
810.050049,321
810.168884,331
810.287659,325
810.406372,331
810.525269,325
810.643982,335
810.762756,326
810.881531,329
811.000305,334
811.11908,326
811.237854,330
811.356567,331
811.475403,326
811.594116,326
811.71283,345
811.831604,316
811.950378,324
812.069153,327
812.187927,329
812.30658,335
812.425415,330
812.544128,329
812.662781,334
812.781616,335
812.900269,332
813.019043,340
813.137756,331
813.256531,325
813.375244,337
813.493896,325
813.612671,324
813.731384,317
813.850037,323
813.96875,345
814.087524,313
814.206238,334
814.324951,325
814.443604,340
814.562256,336
814.68103,330
814.799683,326
814.918335,334
815.037109,329
815.155762,319
815.274475,333
815.393188,324
815.511841,332
815.630554,322
815.749146,331
815.867859,334
815.986572,321
816.105164,319
816.223877,323
816.342529,330
816.461182,321
816.579895,337
816.698486,320
816.817139,328
816.935791,319
817.054504,326
817.173096,336
817.291748,322
817.4104,321
817.529053,326
817.647644,320
817.766235,331
817.884949,321
818.00354,317
818.122192,317
818.240845,328
818.359436,320
818.478088,320
818.59668,320
818.715271,323
818.833923,339
818.952515,316
819.071106,322
819.189758,302
819.30835,324
819.426941,340
819.545532,309
819.664124,332
819.782715,321
819.901306,315
820.019897,336
820.138489,333
820.25708,324
820.375671,324
820.494202,313
820.612732,329
820.731384,313
820.849915,337
820.968506,306
821.087097,310
821.205627,323
821.324158,319
821.442749,329
821.561279,319
821.679871,322
821.798401,315
821.916931,319
822.035461,316
822.154053,320
822.272583,332
822.391174,321
822.509583,318
822.628174,322
822.746704,331
822.865234,319
822.983765,319
823.102295,327
823.220825,343
823.339294,338
823.457825,314
823.576355,314
823.694824,330
823.813354,297
823.931885,318
824.050354,320
824.168884,320
824.287354,326
824.405823,327
824.524353,327
824.642822,328
824.761353,322
824.879822,324
824.998291,328
825.116699,322
825.235291,323
825.353699,326
825.472168,322
825.590637,323
825.709106,311
825.827576,323
825.946045,323
826.064453,323
826.182983,319
826.301392,319
826.4198,312
826.53833,310
826.656738,324
826.775208,323
826.893677,318
827.012024,320
827.130493,319
827.248962,329
827.36731,310
827.485779,314
827.604248,327
827.722595,303
827.841064,324
827.959412,331
828.077942,313
828.196289,313
828.314636,315
828.433105,326
828.551514,317
828.669861,323
828.78833,302
828.906677,310
829.025085,332
829.143433,336
829.261841,314
829.38031,328
829.498657,321
829.617004,324
829.735413,330
829.85376,320
829.972107,317
830.090515,312
830.208862,335
830.327209,321
830.445557,304
830.563904,327
830.682312,310
830.800659,314
830.919006,323
831.037354,307
831.155701,318
831.274048,324
831.392395,318
831.51062,309
831.629028,318
831.747314,312
831.865662,303
831.984009,327
832.102356,319
832.220642,317
832.338928,324
832.457275,326
832.575623,313
832.693909,312
832.812134,319
832.930481,310
833.048828,313
833.167114,313
833.2854,309
833.403687,315
833.521973,321
833.640259,330
833.758545,325
833.876831,314
833.995056,329
834.113281,321
834.231628,308
834.349915,319
834.468201,327
834.586426,313
834.704651,314
834.822998,312
834.941162,320
835.059448,318
835.177673,318
835.295959,315
835.414246,328
835.53241,304
835.650635,319
835.768921,311
835.887146,326
836.005371,305
836.123596,316
836.241821,315
836.360046,322
836.478271,317
836.596497,301
836.714722,326
836.832886,306
836.95105,307
837.069336,322
837.1875,313
837.305725,314
837.423889,327
837.542053,319
837.660339,327
837.778503,311
837.896667,322
838.014832,315
838.132996,315
838.25116,323
838.369385,328
838.487488,309
838.605713,302
838.723877,314
838.84198,333
838.960205,305
839.078308,326
839.196472,320
839.314636,320
839.4328,308
839.550964,301
839.669067,313
839.787231,311
839.905396,322
840.023499,316
840.141602,315
840.259766,323
840.377869,326
840.495972,319
840.614136,315
840.732239,318
840.850342,315
840.968445,307
841.086548,312
841.204651,315
841.322754,301
841.440918,324
841.55896,309
841.677002,305
841.795166,315
841.913208,319
842.031311,310
842.149353,314
842.267456,313
842.385498,316
842.503601,312
842.621643,315
842.739746,313
842.857788,314
842.97583,308
843.093933,314
843.211975,308
843.330017,318
843.44812,316
843.566101,310
843.684204,327
843.802246,319
843.920227,322
844.038269,313
844.156311,315
844.274292,328
844.392395,312
844.510376,325
844.628357,322
844.74646,319
844.864441,314
844.982422,338
845.100403,317
845.218384,322
845.336426,315
845.454468,320
845.572449,316
845.69043,307
845.808411,310
845.926453,320
846.044373,320
846.162354,319
846.280396,315
846.398315,329
846.516296,334
846.634216,310
846.752197,320
846.870178,321
846.988098,315
847.106079,317
847.22406,327
847.34198,321
847.4599,332
847.577881,315
847.695801,318
847.813782,336
847.931641,320
848.049561,322
848.167603,318
848.285461,316
848.403381,307
848.521362,326
848.639221,313
848.75708,326
848.875,301
848.99292,315
849.110901,309
849.22876,329
849.34668,317
849.464539,318
849.582458,312
849.700317,319
849.818176,316
849.936096,319
850.053955,312
850.171875,324
850.289673,331
850.407593,318
850.525452,326
850.643311,307
850.761169,306
850.878967,319
850.996887,303
851.114746,315
851.232544,313
851.350403,308
851.468262,322
851.58606,303
851.703979,311
851.821777,312
851.939636,311
852.057434,326
852.175232,307
852.293091,323
852.410889,304
852.528687,327
852.646545,325
852.764343,317
852.88208,316
852.999939,324
853.117676,318
853.235535,324
853.353271,317
853.471069,319
853.588928,332
853.706604,307
853.824402,307
853.9422,314
854.059998,318
854.177734,318
854.295532,314
854.413269,311
854.531006,315
854.648804,326
854.766541,317
854.884277,320
855.002014,308
855.119751,311
855.237549,313
855.355225,320
855.473022,313
855.590698,333
855.708435,320
855.826172,320
855.943848,324
856.061646,303
856.179321,323
856.296997,331
856.414795,319
856.53241,324
856.650085,319
856.767822,334
856.885559,313
857.003174,313
857.120911,320
857.238586,327
857.356201,326
857.473938,314
857.591614,303
857.709351,315
857.826965,312
857.944641,320
858.062317,307
858.179993,318
858.297668,320
858.415283,312
858.532959,308
858.650574,317
858.768188,327
858.885803,325
859.003479,320
859.121094,325
859.23877,314
859.356384,310
859.473999,328
859.591675,327
859.709229,314
859.826843,309
859.944458,325
860.062012,316
860.179626,313
860.297302,332
860.414856,315
860.532471,326
860.650024,323
860.767639,307
860.885193,323
861.002808,305
861.120361,314
861.237976,313
861.35553,315
861.473022,307
861.590698,312
861.708191,317
861.825745,311
861.943298,324
862.060852,314
862.178406,317
862.295959,311
862.413513,317
862.531006,304
862.64856,322
862.766113,316
862.883667,310
863.00116,325
863.118713,308
863.236206,305
863.353699,316
863.471252,302
863.588745,315
863.706177,314
863.82373,321
863.941162,321
864.058716,305
864.176208,311
864.29364,326
864.411194,328
864.528687,333
864.646118,319
864.763611,320
864.881042,318
864.998535,315
865.116028,325
865.233459,319
865.350891,321
865.468384,316
865.585754,326
865.703308,307
865.820679,307
865.938171,314
866.055542,308
866.173035,322
866.290466,313
866.407837,324
866.52533,302
866.6427,323
866.760071,325
866.877563,326
866.994934,328
867.112305,318
867.229736,310
867.347107,328
867.464539,313
867.58197,319
867.699341,326
867.81665,321
867.934082,331
868.051453,321
868.168823,333
868.286194,322
868.403564,316
868.520935,318
868.638306,302
868.755676,316
868.872986,314
868.990295,316
869.107727,324
869.225037,312
869.342346,307
869.459717,330
869.577026,304
869.694336,311
869.811707,321
869.929016,309
870.046326,321
870.163635,310
870.280945,313
870.398254,308
870.515564,322
870.632812,322
870.750183,331
870.867432,321
870.984741,317
871.102051,325
871.219299,302
871.336609,335
871.453918,309
871.571106,328
871.688416,323
871.805664,319
871.922852,313
872.040222,332
872.157471,315
872.274719,325
872.391968,321
872.509155,327
872.626465,327
872.743652,315
872.860962,323
872.978149,327
873.095337,306
873.212646,318
873.329834,326
873.44696,323
873.564209,320
873.681396,316
873.798645,327
873.915894,312
874.03302,311
874.150208,318
874.267456,308
874.384583,314
874.501831,315
874.618958,323
874.736145,317
874.853333,321
874.970459,312
875.087646,314
875.204834,307
875.32196,325
875.439148,305
875.556274,329
875.673401,305
875.790527,326
875.907715,317
876.024841,332
876.141968,318
876.259094,321
876.376282,305
876.493347,324
876.610474,316
876.7276,318
876.844727,308
876.961853,304
877.078918,320
877.195984,313
877.313171,314
877.430237,321
877.547302,316
877.664368,312
877.781433,316
877.898499,318
878.015625,304
878.13269,322
878.249695,318
878.366821,324
878.483887,321
878.600952,329
878.717957,310
878.834961,318
878.952087,329
879.069092,324
879.186157,303
879.303162,321
879.420227,311
879.537231,317
879.654236,327
879.77124,321
879.888306,329
880.005249,330
880.122314,319
880.239319,313
880.356323,314
880.473328,320
880.590271,305
880.707275,320
880.824341,312
880.941284,319
881.058228,329
881.175232,317
881.292236,308
881.40918,332
881.526123,315
881.643066,324
881.760071,313
881.877014,320
881.993958,320
882.11084,316
882.227783,299
882.344727,317
882.46167,317
882.578613,318
882.695618,312
882.812439,317
882.929382,316
883.046326,325
883.163208,317
883.280151,301
883.397034,316
883.513916,314
883.630798,317
883.747742,316
883.864563,312
883.981506,321
884.098389,317
884.21521,313
884.332153,304
884.448975,330
884.565796,295
884.682678,303
884.7995,324
884.916443,327
885.033264,325
885.150085,319
885.266968,313
885.383789,321
885.500671,316
885.617493,297
885.734314,328
885.851196,323
885.967896,317
886.084717,317
886.201599,315
886.318359,322
886.435181,317
886.552002,327
886.668762,317
886.785645,314
886.902344,325
887.019165,302
887.135925,331
887.252747,316
887.369446,322
887.486267,314
887.603027,310
887.719788,311
887.836548,340
887.953247,320
888.070068,325
888.186829,318
888.303528,313
888.420288,326
888.536987,307
888.653687,315
888.770447,324
888.887146,316
889.003967,323
889.120667,316
889.237305,328
889.354065,315
889.470703,324
889.587463,329
889.704163,324
889.820862,303
889.937561,310
890.054199,321
890.170837,314
890.287598,319
890.404236,317
890.520874,322
890.637634,307
890.754211,325
890.87085,317
890.987549,322
891.104187,321
891.220886,314
891.337463,322
891.454102,320
891.57074,307
891.687378,319
891.804077,312
891.920654,334
892.037231,312
892.15387,322
892.270447,323
892.387085,324
892.503723,330
892.6203,334
892.736877,317
892.853516,304
892.970032,303
893.08667,330
893.203186,316
893.319763,314
893.43634,319
893.552917,328
893.669556,324
893.786011,320
893.902588,314
894.019165,324
894.135681,313
894.252197,334
894.368835,316
894.485291,313
894.601868,319
894.718384,302
894.8349,322
894.951355,324
895.067932,321
895.184448,325
895.300964,314
895.417419,313
895.533936,319
895.650452,315
895.766907,323
895.883423,306
895.999878,327
896.116333,312
896.232849,324
896.349304,321
896.465759,317
896.582214,319
896.698669,329
896.815125,321
896.931641,322
897.048035,328
897.164551,316
897.280884,315
897.397339,319
897.513794,318
897.630249,331
897.746582,325
897.863098,325
897.979431,321
898.095886,322
898.212341,325
898.328674,317
898.445129,312
898.561462,323
898.677795,323
898.794312,326
898.910645,329
899.026978,316
899.143433,313
899.259766,318
899.37616,317
899.492493,311
899.608765,319
899.725159,303
899.841553,320
899.957947,310
900.07428,329
900.190552,313
900.306946,321
900.423157,314
900.53949,324
900.655884,315
900.772156,327
900.888489,322
901.004822,321
901.121033,321
901.237366,314
901.353699,318
901.46991,311
901.586304,324
901.702515,319
901.818787,313
901.93512,312
902.051331,321
902.167603,317
902.283875,318
902.400085,324
902.516418,312
902.632629,324
902.74884,315
902.865112,316
902.981384,322
903.097595,323
903.213867,316
903.330017,315
903.446289,309
903.5625,325
903.67865,319
903.794922,330
903.911072,324
904.027344,317
904.143494,313
904.259705,313
904.375916,315
904.492065,334
904.608215,335
904.724426,319
904.840576,337
904.956726,317
905.072876,323
905.189087,319
905.305176,313
905.421387,313
905.537537,318
905.653687,321
905.769775,320
905.885925,321
906.002014,308
906.118164,324
906.234314,334
906.350403,320
906.466492,322
906.582642,320
906.69873,325
906.814758,327
906.930908,311
907.046936,314
907.163086,319
907.279175,322
907.395264,328
907.511353,322
907.62738,316
907.743408,318
907.859497,317
907.975525,316
908.091553,330
908.207703,310
908.32373,323
908.439758,310
908.555786,309
908.671814,319
908.787842,313
908.90387,324
909.019775,309
909.135864,327
909.251892,314
909.367859,328
909.483826,320
909.599854,318
909.715881,327
909.831848,315
909.947815,314
910.063782,324
910.179749,308
910.295776,324
910.411743,308
910.527649,319
910.643616,322
910.759583,324
910.875488,314
910.991455,328
911.107361,321
911.223267,325
911.339294,313
911.4552,330
911.571106,308
911.687073,323
911.802979,315
911.918823,317
912.034729,323
912.150635,316
912.266602,326
912.382446,313
912.498352,320
912.614197,317
912.730103,309
912.846008,314
792.44574,319
792.56488,349
792.68396,394
792.80304,387
792.92218,335
793.041199,306
793.160339,329
793.279419,334
793.398499,330
793.517578,303
793.636658,321
793.755737,332
793.874817,341
793.993896,340
794.112976,321
794.232056,329
794.351074,330
794.470215,348
794.589233,335
794.708313,314
794.827393,321
794.946411,319
795.065552,335
795.18457,327
795.303589,327
795.422668,327
795.541687,326
795.660767,333
795.779846,336
795.898865,327
796.017883,334
796.136963,328
796.255981,335
796.375061,321
796.49408,339
796.613037,329
796.732117,312
796.851135,313
796.970154,325
797.089233,324
797.208191,333
797.327271,318
797.446228,342
797.565186,334
797.684265,323
797.803223,319
797.922241,326
798.04126,330
798.160278,323
798.279297,336
798.398315,331
798.517273,327
798.636292,311
798.75531,342
798.874268,324
798.993286,340
799.112244,331
799.231323,335
799.350281,332
799.469238,326
799.588257,323
799.707153,325
799.826111,332
799.945129,325
800.064087,324
800.183044,330
800.302063,324
800.421021,341
800.539978,332
800.658936,332
800.777893,320
800.896912,321
801.015747,324
801.134705,332
801.253723,334
801.37262,328
801.491638,325
801.610535,332
801.729492,317
801.84845,332
801.967407,326
802.086243,341
802.205261,339
802.324158,322
802.443115,333
802.562073,331
802.680969,324
802.799927,314
802.918762,315
803.037659,327
803.156677,321
803.275574,335
803.39447,330
803.513428,330
803.632263,325
803.751221,320
803.870117,313
803.989014,335
804.107971,313
804.226746,312
804.345642,324
804.4646,316
804.583496,335
804.702393,322
804.821228,333
804.940125,321
805.059021,325
805.177917,331
805.296814,325
805.415649,339
805.534546,320
805.653442,317
805.772278,327
805.891113,336
806.01001,311
806.128906,326
806.247742,337
806.366577,329
806.485413,333
806.604309,324
806.723145,349
806.84198,316
806.960876,346
807.079712,323
807.198486,333
807.317383,323
807.436218,324
807.554993,335
807.673889,316
807.792725,342
807.91156,328
808.030396,328
808.14917,339
808.268005,333
808.386841,321
808.505676,336
808.624451,335
808.743286,338
808.862122,341
808.980896,346
809.099731,322
809.218506,338
809.337341,335
809.456116,333
809.57489,329
809.693726,323
809.8125,329
809.931274,321
810.050049,322
810.168884,325
810.287659,332
810.406372,332
810.525269,323
810.643982,331
810.762756,322
810.881531,325
811.000305,330
811.11908,319
811.237854,333
811.356567,343
811.475403,334
811.594116,339
811.71283,326
811.831604,326
811.950378,331
812.069153,331
812.187927,321
812.30658,318
812.425415,337
812.544128,318
812.662781,329
812.781616,329
812.900269,343
813.019043,329
813.137756,321
813.256531,331
813.375244,327
813.493896,318
813.612671,340
813.731384,333
813.850037,333
813.96875,321
814.087524,343
814.206238,325
814.324951,339
814.443604,315
814.562256,320
814.68103,332
814.799683,324
814.918335,329
815.037109,341
815.155762,334
815.274475,333
815.393188,334
815.511841,327
815.630554,326
815.749146,315
815.867859,331
815.986572,315
816.105164,323
816.223877,328
816.342529,335
816.461182,346
816.579895,328
816.698486,327
816.817139,329
816.935791,331
817.054504,337
817.173096,328
817.291748,325
817.4104,323
817.529053,321
817.647644,334
817.766235,318
817.884949,330
818.00354,333
818.122192,305
818.240845,329
818.359436,319
818.478088,314
818.59668,314
818.715271,326
818.833923,324
818.952515,314
819.071106,323
819.189758,318
819.30835,324
819.426941,320
819.545532,313
819.664124,316
819.782715,326
819.901306,324
820.019897,307
820.138489,312
820.25708,304
820.375671,317
820.494202,315
820.612732,327
820.731384,315
820.849915,332
820.968506,313
821.087097,330
821.205627,328
821.324158,301
821.442749,324
821.561279,317
821.679871,331
821.798401,328
821.916931,310
822.035461,322
822.154053,319
822.272583,316
822.391174,319
822.509583,314
822.628174,317
822.746704,332
822.865234,310
822.983765,314
823.102295,318
823.220825,320
823.339294,306
823.457825,317
823.576355,323
823.694824,322
823.813354,326
823.931885,317
824.050354,311
824.168884,315
824.287354,319
824.405823,321
824.524353,304
824.642822,322
824.761353,320
824.879822,312
824.998291,329
825.116699,321
825.235291,320
825.353699,307
825.472168,314
825.590637,336
825.709106,311
825.827576,322
825.946045,319
826.064453,314
826.182983,321
826.301392,318
826.4198,314
826.53833,316
826.656738,322
826.775208,312
826.893677,317
827.012024,322
827.130493,313
827.248962,307
827.36731,319
827.485779,314
827.604248,331
827.722595,330
827.841064,318
827.959412,314
828.077942,321
828.196289,320
828.314636,314
828.433105,305
828.551514,323
828.669861,315
828.78833,318
828.906677,319
829.025085,322
829.143433,322
829.261841,312
829.38031,312
829.498657,314
829.617004,316
829.735413,315
829.85376,320
829.972107,313
830.090515,326
830.208862,319
830.327209,313
830.445557,304
830.563904,317
830.682312,320
830.800659,311
830.919006,316
831.037354,316
831.155701,310
831.274048,315
831.392395,307
831.51062,321
831.629028,328
831.747314,318
831.865662,330
831.984009,328
832.102356,310
832.220642,319
832.338928,312
832.457275,331
832.575623,322
832.693909,310
832.812134,317
832.930481,314
833.048828,317
833.167114,308
833.2854,318
833.403687,325
833.521973,306
833.640259,298
833.758545,307
833.876831,318
833.995056,321
834.113281,320
834.231628,328
834.349915,307
834.468201,317
834.586426,327
834.704651,309
834.822998,316
834.941162,320
835.059448,323
835.177673,319
835.295959,309
835.414246,314
835.53241,326
835.650635,317
835.768921,319
835.887146,314
836.005371,305
836.123596,309
836.241821,311
836.360046,311
836.478271,330
836.596497,317
836.714722,318
836.832886,315
836.95105,329
837.069336,308
837.1875,329
837.305725,308
837.423889,329
837.542053,324
837.660339,315
837.778503,322
837.896667,327
838.014832,310
838.132996,325
838.25116,312
838.369385,336
838.487488,316
838.605713,326
838.723877,319
838.84198,321
838.960205,325
839.078308,315
839.196472,312
839.314636,321
839.4328,321
839.550964,311
839.669067,307
839.787231,317
839.905396,323
840.023499,316
840.141602,321
840.259766,312
840.377869,319
840.495972,303
840.614136,312
840.732239,307
840.850342,310
840.968445,320
841.086548,309
841.204651,319
841.322754,311
841.440918,328
841.55896,318
841.677002,329
841.795166,312
841.913208,327
842.031311,320
842.149353,317
842.267456,315
842.385498,322
842.503601,315
842.621643,322
842.739746,322
842.857788,311
842.97583,328
843.093933,313
843.211975,318
843.330017,320
843.44812,315
843.566101,314
843.684204,317
843.802246,310
843.920227,305
844.038269,314
844.156311,312
844.274292,334
844.392395,320
844.510376,315
844.628357,314
844.74646,320
844.864441,323
844.982422,320
845.100403,318
845.218384,306
845.336426,314
845.454468,321
845.572449,315
845.69043,329
845.808411,302
845.926453,317
846.044373,310
846.162354,322
846.280396,318
846.398315,312
846.516296,297
846.634216,316
846.752197,323
846.870178,323
846.988098,319
847.106079,308
847.22406,315
847.34198,319
847.4599,310
847.577881,326
847.695801,314
847.813782,319
847.931641,302
848.049561,338
848.167603,315
848.285461,311
848.403381,311
848.521362,326
848.639221,318
848.75708,313
848.875,308
848.99292,309
849.110901,316
849.22876,321
849.34668,305
849.464539,325
849.582458,326
849.700317,315
849.818176,331
849.936096,320
850.053955,302
850.171875,307
850.289673,309
850.407593,318
850.525452,303
850.643311,317
850.761169,302
850.878967,308
850.996887,323
851.114746,300
851.232544,311
851.350403,326
851.468262,320
851.58606,319
851.703979,313
851.821777,319
851.939636,316
852.057434,327
852.175232,330
852.293091,308
852.410889,306
852.528687,312
852.646545,326
852.764343,319
852.88208,305
852.999939,317
853.117676,312
853.235535,313
853.353271,307
853.471069,305
853.588928,314
853.706604,322
853.824402,306
853.9422,312
854.059998,316
854.177734,313
854.295532,323
854.413269,317
854.531006,320
854.648804,325
854.766541,311
854.884277,322
855.002014,309
855.119751,330
855.237549,307
855.355225,321
855.473022,310
855.590698,323
855.708435,320
855.826172,321
855.943848,313
856.061646,311
856.179321,312
856.296997,320
856.414795,312
856.53241,314
856.650085,316
856.767822,314
856.885559,330
857.003174,306
857.120911,310
857.238586,328
857.356201,317
857.473938,319
857.591614,311
857.709351,311
857.826965,313
857.944641,320
858.062317,328
858.179993,330
858.297668,306
858.415283,307
858.532959,314
858.650574,321
858.768188,318
858.885803,314
859.003479,322
859.121094,331
859.23877,312
859.356384,301
859.473999,323
859.591675,317
859.709229,322
859.826843,319
859.944458,310
860.062012,312
860.179626,321
860.297302,315
860.414856,321
860.532471,323
860.650024,299
860.767639,319
860.885193,315
861.002808,323
861.120361,316
861.237976,321
861.35553,303
861.473022,323
861.590698,311
861.708191,321
861.825745,308
861.943298,320
862.060852,303
862.178406,312
862.295959,296
862.413513,318
862.531006,304
862.64856,313
862.766113,313
862.883667,327
863.00116,324
863.118713,325
863.236206,323
863.353699,323
863.471252,310
863.588745,321
863.706177,309
863.82373,318
863.941162,309
864.058716,302
864.176208,319
864.29364,333
864.411194,314
864.528687,326
864.646118,319
864.763611,324
864.881042,319
864.998535,315
865.116028,310
865.233459,325
865.350891,312
865.468384,306
865.585754,325
865.703308,321
865.820679,306
865.938171,322
866.055542,323
866.173035,324
866.290466,303
866.407837,316
866.52533,314
866.6427,330
866.760071,317
866.877563,329
866.994934,317
867.112305,311
867.229736,322
867.347107,319
867.464539,328
867.58197,315
867.699341,309
867.81665,304
867.934082,321
868.051453,317
868.168823,311
868.286194,321
868.403564,311
868.520935,304
868.638306,319
868.755676,319
868.872986,310
868.990295,317
869.107727,315
869.225037,312
869.342346,303
869.459717,317
869.577026,315
869.694336,311
869.811707,314
869.929016,324
870.046326,320
870.163635,323
870.280945,320
870.398254,333
870.515564,311
870.632812,320
870.750183,319
870.867432,302
870.984741,322
871.102051,313
871.219299,306
871.336609,323
871.453918,314
871.571106,322
871.688416,307
871.805664,308
871.922852,325
872.040222,316
872.157471,310
872.274719,313
872.391968,305
872.509155,330
872.626465,308
872.743652,336
872.860962,329
872.978149,302
873.095337,306
873.212646,308
873.329834,326
873.44696,319
873.564209,303
873.681396,332
873.798645,320
873.915894,323
874.03302,299
874.150208,326
874.267456,323
874.384583,313
874.501831,309
874.618958,310
874.736145,309
874.853333,320
874.970459,319
875.087646,313
875.204834,325
875.32196,313
875.439148,326
875.556274,315
875.673401,313
875.790527,333
875.907715,317
876.024841,331
876.141968,310
876.259094,322
876.376282,306
876.493347,317
876.610474,319
876.7276,314
876.844727,317
876.961853,323
877.078918,315
877.195984,323
877.313171,309
877.430237,333
877.547302,323
877.664368,311
877.781433,328
877.898499,318
878.015625,324
878.13269,314
878.249695,301
878.366821,321
878.483887,312
878.600952,323
878.717957,315
878.834961,324
878.952087,313
879.069092,312
879.186157,324
879.303162,328
879.420227,319
879.537231,326
879.654236,317
879.77124,330
879.888306,322
880.005249,308
880.122314,313
880.239319,319
880.356323,318
880.473328,319
880.590271,313
880.707275,317
880.824341,309
880.941284,317
881.058228,329
881.175232,325
881.292236,312
881.40918,315
881.526123,321
881.643066,307
881.760071,308
881.877014,319
881.993958,313
882.11084,332
882.227783,322
882.344727,310
882.46167,311
882.578613,318
882.695618,325
882.812439,312
882.929382,296
883.046326,314
883.163208,320
883.280151,314
883.397034,317
883.513916,300
883.630798,321
883.747742,311
883.864563,319
883.981506,312
884.098389,315
884.21521,320
884.332153,313
884.448975,319
884.565796,314
884.682678,318
884.7995,323
884.916443,327
885.033264,323
885.150085,330
885.266968,315
885.383789,324
885.500671,313
885.617493,314
885.734314,314
885.851196,316
885.967896,319
886.084717,323
886.201599,310
886.318359,321
886.435181,306
886.552002,315
886.668762,311
886.785645,320
886.902344,307
887.019165,312
887.135925,321
887.252747,316
887.369446,311
887.486267,325
887.603027,303
887.719788,316
887.836548,313
887.953247,311
888.070068,302
888.186829,322
888.303528,313
888.420288,313
888.536987,321
888.653687,329
888.770447,323
888.887146,325
889.003967,315
889.120667,322
889.237305,318
889.354065,320
889.470703,306
889.587463,315
889.704163,304
889.820862,315
889.937561,315
890.054199,313
890.170837,319
890.287598,318
890.404236,325
890.520874,323
890.637634,309
890.754211,298
890.87085,318
890.987549,320
891.104187,312
891.220886,321
891.337463,321
891.454102,323
891.57074,318
891.687378,331
891.804077,306
891.920654,322
892.037231,327
892.15387,332
892.270447,317
892.387085,328
892.503723,310
892.6203,313
892.736877,322
892.853516,334
892.970032,320
893.08667,318
893.203186,327
893.319763,327
893.43634,308
893.552917,331
893.669556,312
893.786011,313
893.902588,318
894.019165,296
894.135681,317
894.252197,327
894.368835,321
894.485291,311
894.601868,327
894.718384,310
894.8349,313
894.951355,318
895.067932,304
895.184448,319
895.300964,320
895.417419,314
895.533936,317
895.650452,328
895.766907,302
895.883423,319
895.999878,311
896.116333,314
896.232849,333
896.349304,312
896.465759,305
896.582214,319
896.698669,313
896.815125,322
896.931641,297
897.048035,313
897.164551,307
897.280884,309
897.397339,318
897.513794,313
897.630249,330
897.746582,319
897.863098,313
897.979431,316
898.095886,307
898.212341,308
898.328674,324
898.445129,322
898.561462,315
898.677795,315
898.794312,310
898.910645,319
899.026978,329
899.143433,319
899.259766,329
899.37616,314
899.492493,314
899.608765,333
899.725159,315
899.841553,311
899.957947,317
900.07428,312
900.190552,313
900.306946,314
900.423157,308
900.53949,317
900.655884,322
900.772156,319
900.888489,341
901.004822,306
901.121033,317
901.237366,316
901.353699,316
901.46991,319
901.586304,309
901.702515,328
901.818787,322
901.93512,314
902.051331,322
902.167603,307
902.283875,304
902.400085,314
902.516418,311
902.632629,325
902.74884,302
902.865112,330
902.981384,312
903.097595,315
903.213867,315
903.330017,313
903.446289,318
903.5625,336
903.67865,322
903.794922,319
903.911072,324
904.027344,332
904.143494,317
904.259705,326
904.375916,315
904.492065,330
904.608215,318
904.724426,317
904.840576,318
904.956726,325
905.072876,316
905.189087,315
905.305176,325
905.421387,311
905.537537,313
905.653687,314
905.769775,322
905.885925,317
906.002014,307
906.118164,326
906.234314,310
906.350403,320
906.466492,311
906.582642,311
906.69873,316
906.814758,328
906.930908,333
907.046936,325
907.163086,308
907.279175,330
907.395264,315
907.511353,320
907.62738,311
907.743408,317
907.859497,321
907.975525,318
908.091553,316
908.207703,313
908.32373,308
908.439758,315
908.555786,325
908.671814,314
908.787842,307
908.90387,323
909.019775,322
909.135864,319
909.251892,328
909.367859,328
909.483826,322
909.599854,306
909.715881,312
909.831848,330
909.947815,316
910.063782,315
910.179749,327
910.295776,317
910.411743,308
910.527649,320
910.643616,316
910.759583,313
910.875488,309
910.991455,322
911.107361,314
911.223267,319
911.339294,330
911.4552,308
911.571106,315
911.687073,331
911.802979,324
911.918823,329
912.034729,301
912.150635,309
912.266602,306
912.382446,326
912.498352,311
912.614197,313
912.730103,324
912.846008,321
