792.44574,330
792.56488,358
792.68396,413
792.80304,389
792.92218,349
793.041199,326
793.160339,320
793.279419,329
793.398499,343
793.517578,334
793.636658,323
793.755737,331
793.874817,358
793.993896,352
794.112976,340
794.232056,317
794.351074,331
794.470215,315
794.589233,333
794.708313,318
794.827393,327
794.946411,322
795.065552,337
795.18457,332
795.303589,342
795.422668,334
795.541687,324
795.660767,321
795.779846,334
795.898865,329
796.017883,321
796.136963,329
796.255981,337
796.375061,336
796.49408,322
796.613037,320
796.732117,320
796.851135,327
796.970154,325
797.089233,326
797.208191,328
797.327271,338
797.446228,333
797.565186,330
797.684265,317
797.803223,346
797.922241,321
798.04126,318
798.160278,329
798.279297,332
798.398315,322
798.517273,320
798.636292,326
798.75531,322
798.874268,338
798.993286,323
799.112244,313
799.231323,335
799.350281,321
799.469238,321
799.588257,323
799.707153,319
799.826111,326
799.945129,328
800.064087,340
800.183044,309
800.302063,329
800.421021,310
800.539978,323
800.658936,322
800.777893,327
800.896912,326
801.015747,321
801.134705,329
801.253723,326
801.37262,325
801.491638,320
801.610535,304
801.729492,320
801.84845,316
801.967407,322
802.086243,319
802.205261,325
802.324158,322
802.443115,326
802.562073,329
802.680969,328
802.799927,320
802.918762,315
803.037659,333
803.156677,319
803.275574,331
803.39447,325
803.513428,314
803.632263,330
803.751221,324
803.870117,321
803.989014,298
804.107971,324
804.226746,331
804.345642,313
804.4646,320
804.583496,320
804.702393,315
804.821228,348
804.940125,316
805.059021,322
805.177917,328
805.296814,321
805.415649,322
805.534546,320
805.653442,327
805.772278,321
805.891113,325
806.01001,315
806.128906,332
806.247742,321
806.366577,322
806.485413,320
806.604309,322
806.723145,326
806.84198,312
806.960876,307
807.079712,319
807.198486,321
807.317383,324
807.436218,309
807.554993,314
807.673889,320
807.792725,320
807.91156,315
808.030396,319
808.14917,327
808.268005,313
808.386841,323
808.505676,315
808.624451,326
808.743286,313
808.862122,334
808.980896,321
809.099731,319
809.218506,323
809.337341,320
809.456116,320
809.57489,335
809.693726,318
809.8125,323
809.931274,324
810.050049,331
810.168884,328
810.287659,309
810.406372,329
810.525269,314
810.643982,328
810.762756,336
810.881531,330
811.000305,323
811.11908,326
811.237854,327
811.356567,318
811.475403,325
811.594116,325
811.71283,333
811.831604,316
811.950378,310
812.069153,325
812.187927,312
812.30658,334
812.425415,323
812.544128,311
812.662781,337
812.781616,315
812.900269,329
813.019043,331
813.137756,337
813.256531,327
813.375244,324
813.493896,321
813.612671,327
813.731384,312
813.850037,326
813.96875,319
814.087524,322
814.206238,305
814.324951,328
814.443604,319
814.562256,315
814.68103,310
814.799683,323
814.918335,313
815.037109,325
815.155762,318
815.274475,323
815.393188,326
815.511841,323
815.630554,312
815.749146,327
815.867859,315
815.986572,314
816.105164,313
816.223877,317
816.342529,317
816.461182,325
816.579895,316
816.698486,320
816.817139,324
816.935791,326
817.054504,327
817.173096,320
817.291748,328
817.4104,328
817.529053,321
817.647644,326
817.766235,321
817.884949,334
818.00354,316
818.122192,332
818.240845,316
818.359436,326
818.478088,321
818.59668,318
818.715271,326
818.833923,329
818.952515,311
819.071106,325
819.189758,311
819.30835,308
819.426941,327
819.545532,316
819.664124,326
819.782715,319
819.901306,313
820.019897,317
820.138489,327
820.25708,331
820.375671,312
820.494202,320
820.612732,320
820.731384,326
820.849915,304
820.968506,318
821.087097,313
821.205627,317
821.324158,311
821.442749,321
821.561279,302
821.679871,318
821.798401,312
821.916931,313
822.035461,317
822.154053,326
822.272583,295
822.391174,324
822.509583,316
822.628174,332
822.746704,296
822.865234,315
822.983765,302
823.102295,318
823.220825,317
823.339294,311
823.457825,313
823.576355,319
823.694824,331
823.813354,315
823.931885,316
824.050354,321
824.168884,307
824.287354,324
824.405823,328
824.524353,315
824.642822,318
824.761353,323
824.879822,331
824.998291,325
825.116699,319
825.235291,315
825.353699,315
825.472168,317
825.590637,315
825.709106,334
825.827576,322
825.946045,321
826.064453,316
826.182983,314
826.301392,311
826.4198,325
826.53833,306
826.656738,331
826.775208,320
826.893677,308
827.012024,315
827.130493,321
827.248962,315
827.36731,317
827.485779,311
827.604248,316
827.722595,304
827.841064,316
827.959412,314
828.077942,322
828.196289,308
828.314636,316
828.433105,310
828.551514,315
828.669861,314
828.78833,317
828.906677,316
829.025085,311
829.143433,317
829.261841,329
829.38031,311
829.498657,318
829.617004,306
829.735413,319
829.85376,320
829.972107,323
830.090515,326
830.208862,324
830.327209,322
830.445557,310
830.563904,324
830.682312,319
830.800659,314
830.919006,324
831.037354,317
831.155701,313
831.274048,315
831.392395,318
831.51062,317
831.629028,316
831.747314,311
831.865662,323
831.984009,317
832.102356,323
832.220642,319
832.338928,315
832.457275,305
832.575623,312
832.693909,326
832.812134,318
832.930481,308
833.048828,329
833.167114,311
833.2854,317
833.403687,319
833.521973,325
833.640259,305
833.758545,304
833.876831,319
833.995056,326
834.113281,310
834.231628,313
834.349915,321
834.468201,323
834.586426,298
834.704651,320
834.822998,317
834.941162,318
835.059448,316
835.177673,332
835.295959,315
835.414246,317
835.53241,319
835.650635,323
835.768921,315
835.887146,313
836.005371,323
836.123596,324
836.241821,328
836.360046,316
836.478271,309
836.596497,319
836.714722,310
836.832886,334
836.95105,300
837.069336,313
837.1875,308
837.305725,314
837.423889,329
837.542053,331
837.660339,323
837.778503,330
837.896667,316
838.014832,327
838.132996,316
838.25116,305
838.369385,311
838.487488,305
838.605713,316
838.723877,311
838.84198,317
838.960205,328
839.078308,299
839.196472,313
839.314636,319
839.4328,318
839.550964,315
839.669067,313
839.787231,326
839.905396,319
840.023499,293
840.141602,319
840.259766,328
840.377869,334
840.495972,313
840.614136,324
840.732239,299
840.850342,310
840.968445,318
841.086548,325
841.204651,328
841.322754,320
841.440918,323
841.55896,325
841.677002,317
841.795166,325
841.913208,313
842.031311,332
842.149353,316
842.267456,325
842.385498,322
842.503601,328
842.621643,323
842.739746,319
842.857788,327
842.97583,314
843.093933,316
843.211975,329
843.330017,316
843.44812,324
843.566101,325
843.684204,324
843.802246,310
843.920227,338
844.038269,319
844.156311,311
844.274292,313
844.392395,312
844.510376,323
844.628357,332
844.74646,305
844.864441,323
844.982422,314
845.100403,318
845.218384,321
845.336426,317
845.454468,298
845.572449,330
845.69043,327
845.808411,325
845.926453,314
846.044373,319
846.162354,318
846.280396,307
846.398315,321
846.516296,310
846.634216,329
846.752197,318
846.870178,317
846.988098,303
847.106079,306
847.22406,336
847.34198,304
847.4599,310
847.577881,314
847.695801,313
847.813782,319
847.931641,325
848.049561,307
848.167603,309
848.285461,326
848.403381,320
848.521362,299
848.639221,315
848.75708,317
848.875,327
848.99292,314
849.110901,314
849.22876,325
849.34668,323
849.464539,312
849.582458,321
849.700317,329
849.818176,323
849.936096,310
850.053955,318
850.171875,319
850.289673,324
850.407593,308
850.525452,324
850.643311,326
850.761169,320
850.878967,310
850.996887,315
851.114746,308
851.232544,316
851.350403,324
851.468262,312
851.58606,311
851.703979,321
851.821777,311
851.939636,340
852.057434,319
852.175232,316
852.293091,307
852.410889,311
852.528687,324
852.646545,322
852.764343,318
852.88208,324
852.999939,312
853.117676,318
853.235535,314
853.353271,323
853.471069,314
853.588928,319
853.706604,306
853.824402,323
853.9422,324
854.059998,319
854.177734,307
854.295532,305
854.413269,322
854.531006,320
854.648804,311
854.766541,316
854.884277,323
855.002014,318
855.119751,299
855.237549,316
855.355225,311
855.473022,326
855.590698,305
855.708435,312
855.826172,323
855.943848,309
856.061646,302
856.179321,314
856.296997,308
856.414795,318
856.53241,317
856.650085,312
856.767822,323
856.885559,309
857.003174,325
857.120911,318
857.238586,319
857.356201,320
857.473938,306
857.591614,316
857.709351,324
857.826965,327
857.944641,325
858.062317,322
858.179993,314
858.297668,321
858.415283,314
858.532959,309
858.650574,312
858.768188,316
858.885803,311
859.003479,331
859.121094,301
859.23877,325
859.356384,309
859.473999,324
859.591675,321
859.709229,327
859.826843,309
859.944458,322
860.062012,307
860.179626,312
860.297302,324
860.414856,331
860.532471,319
860.650024,314
860.767639,314
860.885193,329
861.002808,324
861.120361,337
861.237976,314
861.35553,316
861.473022,297
861.590698,327
861.708191,319
861.825745,318
861.943298,326
862.060852,323
862.178406,317
862.295959,325
862.413513,307
862.531006,324
862.64856,307
862.766113,317
862.883667,321
863.00116,304
863.118713,319
863.236206,306
863.353699,305
863.471252,318
863.588745,319
863.706177,310
863.82373,304
863.941162,321
864.058716,322
864.176208,316
864.29364,318
864.411194,321
864.528687,307
864.646118,313
864.763611,310
864.881042,333
864.998535,307
865.116028,315
865.233459,315
865.350891,321
865.468384,312
865.585754,318
865.703308,319
865.820679,322
865.938171,312
866.055542,311
866.173035,306
866.290466,334
866.407837,317
866.52533,301
866.6427,308
866.760071,334
866.877563,318
866.994934,317
867.112305,314
867.229736,315
867.347107,301
867.464539,320
867.58197,310
867.699341,323
867.81665,318
867.934082,321
868.051453,308
868.168823,320
868.286194,313
868.403564,326
868.520935,316
868.638306,321
868.755676,318
868.872986,317
868.990295,321
869.107727,310
869.225037,312
869.342346,320
869.459717,290
869.577026,320
869.694336,321
869.811707,312
869.929016,302
870.046326,323
870.163635,315
870.280945,311
870.398254,318
870.515564,317
870.632812,311
870.750183,318
870.867432,310
870.984741,314
871.102051,326
871.219299,311
871.336609,300
871.453918,329
871.571106,320
871.688416,323
871.805664,319
871.922852,312
872.040222,312
872.157471,328
872.274719,309
872.391968,313
872.509155,318
872.626465,318
872.743652,314
872.860962,325
872.978149,304
873.095337,314
873.212646,303
873.329834,330
873.44696,310
873.564209,319
873.681396,331
873.798645,313
873.915894,309
874.03302,323
874.150208,311
874.267456,334
874.384583,326
874.501831,322
874.618958,317
874.736145,327
874.853333,321
874.970459,322
875.087646,314
875.204834,328
875.32196,312
875.439148,321
875.556274,317
875.673401,319
875.790527,315
875.907715,314
876.024841,314
876.141968,306
876.259094,317
876.376282,338
876.493347,320
876.610474,316
876.7276,328
876.844727,316
876.961853,304
877.078918,304
877.195984,315
877.313171,321
877.430237,312
877.547302,324
877.664368,294
877.781433,330
877.898499,310
878.015625,330
878.13269,313
878.249695,319
878.366821,314
878.483887,314
878.600952,322
878.717957,314
878.834961,316
878.952087,317
879.069092,328
879.186157,321
879.303162,315
879.420227,327
879.537231,307
879.654236,318
879.77124,330
879.888306,340
880.005249,312
880.122314,316
880.239319,315
880.356323,314
880.473328,321
880.590271,319
880.707275,321
880.824341,304
880.941284,331
881.058228,315
881.175232,302
881.292236,323
881.40918,318
881.526123,321
881.643066,313
881.760071,316
881.877014,326
881.993958,316
882.11084,312
882.227783,326
882.344727,305
882.46167,311
882.578613,321
882.695618,323
882.812439,312
882.929382,325
883.046326,304
883.163208,326
883.280151,314
883.397034,308
883.513916,311
883.630798,335
883.747742,307
883.864563,329
883.981506,314
884.098389,316
884.21521,313
884.332153,327
884.448975,315
884.565796,328
884.682678,316
884.7995,314
884.916443,316
885.033264,329
885.150085,315
885.266968,328
885.383789,320
885.500671,314
885.617493,333
885.734314,330
885.851196,320
885.967896,334
886.084717,326
886.201599,334
886.318359,308
886.435181,323
886.552002,322
886.668762,319
886.785645,327
886.902344,318
887.019165,304
887.135925,333
887.252747,293
887.369446,319
887.486267,308
887.603027,307
887.719788,327
887.836548,314
887.953247,314
888.070068,311
888.186829,313
888.303528,310
888.420288,307
888.536987,334
888.653687,317
888.770447,313
888.887146,305
889.003967,317
889.120667,303
889.237305,319
889.354065,303
889.470703,314
889.587463,307
889.704163,315
889.820862,318
889.937561,316
890.054199,313
890.170837,321
890.287598,308
890.404236,330
890.520874,312
890.637634,323
890.754211,318
890.87085,323
890.987549,314
891.104187,310
891.220886,329
891.337463,315
891.454102,323
891.57074,320
891.687378,319
891.804077,324
891.920654,305
892.037231,318
892.15387,311
892.270447,315
892.387085,320
892.503723,315
892.6203,327
892.736877,317
892.853516,323
892.970032,311
893.08667,320
893.203186,323
893.319763,309
893.43634,309
893.552917,318
893.669556,317
893.786011,322
893.902588,306
894.019165,311
894.135681,308
894.252197,318
894.368835,320
894.485291,319
894.601868,301
894.718384,316
894.8349,316
894.951355,312
895.067932,317
895.184448,312
895.300964,327
895.417419,298
895.533936,332
895.650452,310
895.766907,311
895.883423,310
895.999878,316
896.116333,326
896.232849,326
896.349304,320
896.465759,322
896.582214,299
896.698669,318
896.815125,297
896.931641,311
897.048035,317
897.164551,322
897.280884,314
897.397339,317
897.513794,314
897.630249,310
897.746582,312
897.863098,323
897.979431,311
898.095886,318
898.212341,323
898.328674,312
898.445129,316
898.561462,314
898.677795,312
898.794312,324
898.910645,322
899.026978,326
899.143433,322
899.259766,316
899.37616,327
899.492493,319
899.608765,307
899.725159,307
899.841553,306
899.957947,320
900.07428,305
900.190552,310
900.306946,323
900.423157,305
900.53949,313
900.655884,326
900.772156,321
900.888489,313
901.004822,316
901.121033,317
901.237366,315
901.353699,333
901.46991,325
901.586304,327
901.702515,313
901.818787,320
901.93512,314
902.051331,321
902.167603,316
902.283875,325
902.400085,318
902.516418,323
902.632629,313
902.74884,321
902.865112,306
902.981384,325
903.097595,310
903.213867,315
903.330017,310
903.446289,309
903.5625,315
903.67865,326
903.794922,333
903.911072,315
904.027344,330
904.143494,329
904.259705,304
904.375916,307
904.492065,311
904.608215,323
904.724426,317
904.840576,315
904.956726,309
905.072876,327
905.189087,321
905.305176,301
905.421387,322
905.537537,324
905.653687,306
905.769775,322
905.885925,308
906.002014,321
906.118164,310
906.234314,313
906.350403,322
906.466492,319
906.582642,305
906.69873,302
906.814758,329
906.930908,310
907.046936,315
907.163086,335
907.279175,321
907.395264,316
907.511353,316
907.62738,317
907.743408,321
907.859497,321
907.975525,317
908.091553,322
908.207703,315
908.32373,328
908.439758,312
908.555786,321
908.671814,327
908.787842,311
908.90387,309
909.019775,324
909.135864,315
909.251892,323
909.367859,311
909.483826,314
909.599854,326
909.715881,303
909.831848,303
909.947815,315
910.063782,318
910.179749,316
910.295776,323
910.411743,316
910.527649,307
910.643616,309
910.759583,312
910.875488,314
910.991455,316
911.107361,310
911.223267,323
911.339294,318
911.4552,308
911.571106,334
911.687073,306
911.802979,320
911.918823,319
912.034729,308
912.150635,320
912.266602,317
912.382446,312
912.498352,307
912.614197,321
912.730103,332
912.846008,302
792.44574,323
792.56488,375
792.68396,407
792.80304,391
792.92218,344
793.041199,340
793.160339,338
793.279419,328
793.398499,338
793.517578,327
793.636658,334
793.755737,330
793.874817,360
793.993896,351
794.112976,342
794.232056,327
794.351074,342
794.470215,331
794.589233,331
794.708313,321
794.827393,333
794.946411,343
795.065552,332
795.18457,348
795.303589,319
795.422668,334
795.541687,342
795.660767,323
795.779846,330
795.898865,334
796.017883,336
796.136963,326
796.255981,335
796.375061,340
796.49408,341
796.613037,316
796.732117,327
796.851135,328
796.970154,330
797.089233,328
797.208191,329
797.327271,325
797.446228,331
797.565186,342
797.684265,327
797.803223,322
797.922241,334
798.04126,336
798.160278,338
798.279297,327
798.398315,328
798.517273,327
798.636292,331
798.75531,324
798.874268,325
798.993286,330
799.112244,335
799.231323,332
799.350281,326
799.469238,319
799.588257,336
799.707153,319
799.826111,322
799.945129,330
800.064087,334
800.183044,318
800.302063,323
800.421021,325
800.539978,330
800.658936,327
800.777893,346
800.896912,324
801.015747,337
801.134705,324
801.253723,317
801.37262,323
801.491638,329
801.610535,335
801.729492,318
801.84845,329
801.967407,322
802.086243,326
802.205261,330
802.324158,321
802.443115,323
802.562073,321
802.680969,336
802.799927,330
802.918762,320
803.037659,312
803.156677,337
803.275574,315
803.39447,321
803.513428,323
803.632263,331
803.751221,308
803.870117,321
803.989014,325
804.107971,329
804.226746,324
804.345642,327
804.4646,332
804.583496,312
804.702393,310
804.821228,330
804.940125,335
805.059021,316
805.177917,328
805.296814,320
805.415649,324
805.534546,328
805.653442,323
805.772278,330
805.891113,320
806.01001,327
806.128906,326
806.247742,320
806.366577,320
806.485413,316
806.604309,311
806.723145,321
806.84198,330
806.960876,320
807.079712,338
807.198486,322
807.317383,324
807.436218,314
807.554993,319
807.673889,326
807.792725,317
807.91156,320
808.030396,310
808.14917,342
808.268005,335
808.386841,324
808.505676,319
808.624451,322
808.743286,333
808.862122,336
808.980896,327
809.099731,330
809.218506,328
809.337341,320
809.456116,312
809.57489,328
809.693726,337
809.8125,331
809.931274,325
810.050049,323
810.168884,326
810.287659,316
810.406372,325
810.525269,327
810.643982,323
810.762756,317
810.881531,333
811.000305,324
811.11908,318
811.237854,336
811.356567,313
811.475403,343
811.594116,318
811.71283,324
811.831604,334
811.950378,319
812.069153,327
812.187927,324
812.30658,314
812.425415,322
812.544128,321
812.662781,321
812.781616,323
812.900269,313
813.019043,296
813.137756,330
813.256531,327
813.375244,322
813.493896,317
813.612671,322
813.731384,324
813.850037,324
813.96875,313
814.087524,325
814.206238,326
814.324951,324
814.443604,316
814.562256,321
814.68103,315
814.799683,328
814.918335,323
815.037109,322
815.155762,307
815.274475,315
815.393188,327
815.511841,323
815.630554,320
815.749146,333
815.867859,318
815.986572,324
816.105164,309
816.223877,327
816.342529,318
816.461182,319
816.579895,326
816.698486,337
816.817139,319
816.935791,322
817.054504,325
817.173096,325
817.291748,322
817.4104,322
817.529053,321
817.647644,328
817.766235,320
817.884949,316
818.00354,315
818.122192,322
818.240845,323
818.359436,324
818.478088,310
818.59668,332
818.715271,316
818.833923,318
818.952515,318
819.071106,313
819.189758,331
819.30835,331
819.426941,319
819.545532,327
819.664124,305
819.782715,326
819.901306,329
820.019897,311
820.138489,316
820.25708,311
820.375671,324
820.494202,316
820.612732,314
820.731384,315
820.849915,313
820.968506,322
821.087097,322
821.205627,314
821.324158,332
821.442749,326
821.561279,324
821.679871,322
821.798401,306
821.916931,325
822.035461,325
822.154053,320
822.272583,306
822.391174,314
822.509583,313
822.628174,323
822.746704,323
822.865234,325
822.983765,314
823.102295,311
823.220825,318
823.339294,331
823.457825,307
823.576355,321
823.694824,316
823.813354,326
823.931885,319
824.050354,311
824.168884,327
824.287354,315
824.405823,315
824.524353,327
824.642822,334
824.761353,316
824.879822,329
824.998291,320
825.116699,325
825.235291,312
825.353699,312
825.472168,320
825.590637,302
825.709106,325
825.827576,298
825.946045,341
826.064453,317
826.182983,316
826.301392,314
826.4198,319
826.53833,312
826.656738,325
826.775208,317
826.893677,313
827.012024,312
827.130493,308
827.248962,316
827.36731,314
827.485779,321
827.604248,320
827.722595,305
827.841064,321
827.959412,312
828.077942,325
828.196289,318
828.314636,316
828.433105,315
828.551514,328
828.669861,311
828.78833,317
828.906677,313
829.025085,321
829.143433,320
829.261841,323
829.38031,314
829.498657,314
829.617004,322
829.735413,319
829.85376,317
829.972107,321
830.090515,325
830.208862,317
830.327209,328
830.445557,323
830.563904,316
830.682312,319
830.800659,308
830.919006,325
831.037354,317
831.155701,325
831.274048,307
831.392395,321
831.51062,323
831.629028,330
831.747314,311
831.865662,331
831.984009,310
832.102356,322
832.220642,317
832.338928,315
832.457275,308
832.575623,309
832.693909,319
832.812134,319
832.930481,321
833.048828,313
833.167114,320
833.2854,324
833.403687,327
833.521973,318
833.640259,311
833.758545,336
833.876831,315
833.995056,328
834.113281,299
834.231628,318
834.349915,312
834.468201,322
834.586426,312
834.704651,303
834.822998,311
834.941162,321
835.059448,322
835.177673,311
835.295959,320
835.414246,310
835.53241,307
835.650635,320
835.768921,328
835.887146,328
836.005371,322
836.123596,330
836.241821,321
836.360046,318
836.478271,317
836.596497,317
836.714722,306
836.832886,320
836.95105,316
837.069336,315
837.1875,324
837.305725,322
837.423889,318
837.542053,315
837.660339,310
837.778503,317
837.896667,311
838.014832,324
838.132996,309
838.25116,322
838.369385,315
838.487488,333
838.605713,329
838.723877,318
838.84198,318
838.960205,323
839.078308,323
839.196472,306
839.314636,316
839.4328,314
839.550964,313
839.669067,317
839.787231,323
839.905396,323
840.023499,317
840.141602,326
840.259766,309
840.377869,318
840.495972,314
840.614136,326
840.732239,306
840.850342,329
840.968445,307
841.086548,331
841.204651,316
841.322754,317
841.440918,320
841.55896,320
841.677002,323
841.795166,329
841.913208,318
842.031311,330
842.149353,317
842.267456,322
842.385498,328
842.503601,317
842.621643,322
842.739746,307
842.857788,320
842.97583,300
843.093933,316
843.211975,314
843.330017,320
843.44812,323
843.566101,322
843.684204,321
843.802246,331
843.920227,334
844.038269,311
844.156311,323
844.274292,316
844.392395,323
844.510376,322
844.628357,324
844.74646,320
844.864441,327
844.982422,311
845.100403,323
845.218384,313
845.336426,318
845.454468,313
845.572449,317
845.69043,316
845.808411,324
845.926453,333
846.044373,323
846.162354,314
846.280396,326
846.398315,327
846.516296,332
846.634216,326
846.752197,317
846.870178,329
846.988098,318
847.106079,326
847.22406,318
847.34198,304
847.4599,319
847.577881,306
847.695801,329
847.813782,316
847.931641,313
848.049561,328
848.167603,325
848.285461,314
848.403381,314
848.521362,321
848.639221,315
848.75708,314
848.875,312
848.99292,315
849.110901,309
849.22876,310
849.34668,325
849.464539,326
849.582458,334
849.700317,339
849.818176,327
849.936096,317
850.053955,320
850.171875,328
850.289673,323
850.407593,300
850.525452,321
850.643311,319
850.761169,315
850.878967,308
850.996887,316
851.114746,324
851.232544,322
851.350403,325
851.468262,320
851.58606,307
851.703979,333
851.821777,313
851.939636,318
852.057434,316
852.175232,320
852.293091,307
852.410889,312
852.528687,323
852.646545,345
852.764343,305
852.88208,326
852.999939,317
853.117676,320
853.235535,309
853.353271,320
853.471069,320
853.588928,320
853.706604,324
853.824402,322
853.9422,306
854.059998,317
854.177734,298
854.295532,315
854.413269,322
854.531006,314
854.648804,314
854.766541,317
854.884277,316
855.002014,320
855.119751,311
855.237549,320
855.355225,318
855.473022,324
855.590698,330
855.708435,317
855.826172,326
855.943848,327
856.061646,308
856.179321,318
856.296997,318
856.414795,321
856.53241,320
856.650085,318
856.767822,325
856.885559,316
857.003174,317
857.120911,333
857.238586,302
857.356201,326
857.473938,321
857.591614,321
857.709351,314
857.826965,304
857.944641,319
858.062317,317
858.179993,320
858.297668,321
858.415283,321
858.532959,335
858.650574,302
858.768188,330
858.885803,305
859.003479,335
859.121094,325
859.23877,316
859.356384,333
859.473999,318
859.591675,328
859.709229,311
859.826843,313
859.944458,306
860.062012,326
860.179626,315
860.297302,316
860.414856,312
860.532471,315
860.650024,313
860.767639,313
860.885193,328
861.002808,321
861.120361,321
861.237976,314
861.35553,318
861.473022,328
861.590698,314
861.708191,318
861.825745,335
861.943298,318
862.060852,313
862.178406,313
862.295959,317
862.413513,317
862.531006,322
862.64856,319
862.766113,321
862.883667,313
863.00116,314
863.118713,317
863.236206,330
863.353699,327
863.471252,326
863.588745,311
863.706177,320
863.82373,330
863.941162,321
864.058716,315
864.176208,324
864.29364,322
864.411194,324
864.528687,306
864.646118,332
864.763611,326
864.881042,314
864.998535,326
865.116028,330
865.233459,325
865.350891,338
865.468384,313
865.585754,321
865.703308,320
865.820679,318
865.938171,319
866.055542,319
866.173035,305
866.290466,310
866.407837,312
866.52533,323
866.6427,324
866.760071,332
866.877563,310
866.994934,313
867.112305,316
867.229736,308
867.347107,308
867.464539,313
867.58197,311
867.699341,308
867.81665,313
867.934082,320
868.051453,310
868.168823,326
868.286194,316
868.403564,316
868.520935,319
868.638306,321
868.755676,322
868.872986,326
868.990295,301
869.107727,315
869.225037,317
869.342346,326
869.459717,316
869.577026,318
869.694336,322
869.811707,340
869.929016,326
870.046326,334
870.163635,318
870.280945,318
870.398254,316
870.515564,308
870.632812,313
870.750183,326
870.867432,308
870.984741,319
871.102051,301
871.219299,334
871.336609,315
871.453918,327
871.571106,306
871.688416,318
871.805664,312
871.922852,323
872.040222,309
872.157471,333
872.274719,332
872.391968,318
872.509155,305
872.626465,324
872.743652,314
872.860962,333
872.978149,331
873.095337,316
873.212646,306
873.329834,308
873.44696,317
873.564209,326
873.681396,319
873.798645,328
873.915894,319
874.03302,308
874.150208,325
874.267456,322
874.384583,332
874.501831,329
874.618958,314
874.736145,318
874.853333,318
874.970459,338
875.087646,315
875.204834,328
875.32196,311
875.439148,323
875.556274,312
875.673401,304
875.790527,310
875.907715,329
876.024841,309
876.141968,321
876.259094,304
876.376282,322
876.493347,317
876.610474,317
876.7276,319
876.844727,324
876.961853,309
877.078918,344
877.195984,320
877.313171,323
877.430237,302
877.547302,336
877.664368,317
877.781433,323
877.898499,310
878.015625,320
878.13269,321
878.249695,317
878.366821,316
878.483887,308
878.600952,319
878.717957,327
878.834961,308
878.952087,324
879.069092,315
879.186157,317
879.303162,323
879.420227,320
879.537231,304
879.654236,331
879.77124,316
879.888306,312
880.005249,315
880.122314,304
880.239319,306
880.356323,325
880.473328,321
880.590271,332
880.707275,321
880.824341,322
880.941284,321
881.058228,327
881.175232,315
881.292236,342
881.40918,314
881.526123,327
881.643066,322
881.760071,330
881.877014,317
881.993958,316
882.11084,317
882.227783,329
882.344727,324
882.46167,327
882.578613,309
882.695618,320
882.812439,312
882.929382,323
883.046326,321
883.163208,315
883.280151,320
883.397034,328
883.513916,308
883.630798,314
883.747742,311
883.864563,323
883.981506,331
884.098389,322
884.21521,322
884.332153,332
884.448975,317
884.565796,330
884.682678,309
884.7995,334
884.916443,326
885.033264,322
885.150085,320
885.266968,340
885.383789,314
885.500671,320
885.617493,310
885.734314,330
885.851196,319
885.967896,318
886.084717,334
886.201599,320
886.318359,333
886.435181,312
886.552002,318
886.668762,319
886.785645,308
886.902344,321
887.019165,321
887.135925,321
887.252747,319
887.369446,325
887.486267,324
887.603027,327
887.719788,330
887.836548,316
887.953247,330
888.070068,329
888.186829,329
888.303528,313
888.420288,318
888.536987,332
888.653687,325
888.770447,323
888.887146,317
889.003967,327
889.120667,323
889.237305,315
889.354065,317
889.470703,333
889.587463,314
889.704163,307
889.820862,321
889.937561,316
890.054199,315
890.170837,321
890.287598,302
890.404236,321
890.520874,320
890.637634,323
890.754211,319
890.87085,324
890.987549,325
891.104187,320
891.220886,306
891.337463,320
891.454102,318
891.57074,326
891.687378,321
891.804077,324
891.920654,305
892.037231,331
892.15387,327
892.270447,323
892.387085,312
892.503723,333
892.6203,308
892.736877,310
892.853516,313
892.970032,327
893.08667,316
893.203186,320
893.319763,310
893.43634,315
893.552917,317
893.669556,328
893.786011,316
893.902588,328
894.019165,319
894.135681,317
894.252197,319
894.368835,319
894.485291,306
894.601868,323
894.718384,312
894.8349,325
894.951355,331
895.067932,327
895.184448,301
895.300964,323
895.417419,306
895.533936,318
895.650452,320
895.766907,329
895.883423,320
895.999878,316
896.116333,317
896.232849,311
896.349304,322
896.465759,315
896.582214,317
896.698669,310
896.815125,322
896.931641,326
897.048035,313
897.164551,320
897.280884,315
897.397339,317
897.513794,327
897.630249,321
897.746582,303
897.863098,325
897.979431,329
898.095886,320
898.212341,320
898.328674,333
898.445129,319
898.561462,317
898.677795,315
898.794312,320
898.910645,322
899.026978,326
899.143433,302
899.259766,324
899.37616,319
899.492493,316
899.608765,318
899.725159,324
899.841553,318
899.957947,332
900.07428,310
900.190552,325
900.306946,312
900.423157,320
900.53949,315
900.655884,322
900.772156,306
900.888489,319
901.004822,325
901.121033,331
901.237366,328
901.353699,318
901.46991,313
901.586304,332
901.702515,304
901.818787,320
901.93512,313
902.051331,311
902.167603,320
902.283875,309
902.400085,319
902.516418,339
902.632629,324
902.74884,340
902.865112,326
902.981384,323
903.097595,307
903.213867,321
903.330017,320
903.446289,321
903.5625,319
903.67865,326
903.794922,315
903.911072,316
904.027344,317
904.143494,321
904.259705,312
904.375916,325
904.492065,307
904.608215,311
904.724426,328
904.840576,312
904.956726,332
905.072876,323
905.189087,324
905.305176,332
905.421387,315
905.537537,325
905.653687,315
905.769775,322
905.885925,320
906.002014,312
906.118164,310
906.234314,308
906.350403,308
906.466492,312
906.582642,326
906.69873,326
906.814758,306
906.930908,327
907.046936,316
907.163086,317
907.279175,322
907.395264,324
907.511353,319
907.62738,317
907.743408,310
907.859497,316
907.975525,316
908.091553,309
908.207703,318
908.32373,320
908.439758,318
908.555786,323
908.671814,314
908.787842,335
908.90387,312
909.019775,329
909.135864,307
909.251892,308
909.367859,306
909.483826,317
909.599854,306
909.715881,313
909.831848,316
909.947815,325
910.063782,323
910.179749,331
910.295776,311
910.411743,324
910.527649,324
910.643616,315
910.759583,316
910.875488,325
910.991455,316
911.107361,312
911.223267,314
911.339294,313
911.4552,332
911.571106,318
911.687073,316
911.802979,319
911.918823,313
912.034729,325
912.150635,322
912.266602,324
912.382446,306
912.498352,327
912.614197,315
912.730103,314
912.846008,312
792.44574,313
792.56488,350
792.68396,401
792.80304,379
792.92218,332
793.041199,314
793.160339,330
793.279419,340
793.398499,332
793.517578,314
793.636658,316
793.755737,324
793.874817,347
793.993896,358
794.112976,330
794.232056,331
794.351074,331
794.470215,318
794.589233,349
794.708313,334
794.827393,330
794.946411,326
795.065552,347
795.18457,333
795.303589,320
795.422668,330
795.541687,320
795.660767,320
795.779846,314
795.898865,330
796.017883,323
796.136963,344
796.255981,343
796.375061,328
796.49408,327
796.613037,329
796.732117,345
796.851135,323
796.970154,338
797.089233,326
797.208191,349
797.327271,328
797.446228,327
797.565186,334
797.684265,332
797.803223,325
797.922241,325
798.04126,328
798.160278,331
798.279297,314
798.398315,328
798.517273,336
798.636292,323
798.75531,337
798.874268,318
798.993286,328
799.112244,328
799.231323,332
799.350281,329
799.469238,336
799.588257,325
799.707153,309
799.826111,325
799.945129,338
800.064087,330
800.183044,322
800.302063,327
800.421021,319
800.539978,333
800.658936,334
800.777893,326
800.896912,327
801.015747,335
801.134705,313
801.253723,335
801.37262,320
801.491638,340
801.610535,325
801.729492,335
801.84845,318
801.967407,319
802.086243,315
802.205261,326
802.324158,313
802.443115,317
802.562073,334
802.680969,332
802.799927,328
802.918762,335
803.037659,312
803.156677,339
803.275574,321
803.39447,330
803.513428,325
803.632263,317
803.751221,324
803.870117,323
803.989014,329
804.107971,328
804.226746,328
804.345642,324
804.4646,322
804.583496,319
804.702393,313
804.821228,331
804.940125,325
805.059021,319
805.177917,324
805.296814,324
805.415649,310
805.534546,324
805.653442,315
805.772278,327
805.891113,328
806.01001,324
806.128906,314
806.247742,341
806.366577,316
806.485413,333
806.604309,318
806.723145,323
806.84198,318
806.960876,324
807.079712,320
807.198486,329
807.317383,318
807.436218,318
807.554993,322
807.673889,326
807.792725,315
807.91156,318
808.030396,318
808.14917,323
808.268005,313
808.386841,327
808.505676,327
808.624451,330
808.743286,322
808.862122,331
808.980896,334
809.099731,332
809.218506,323
809.337341,317
809.456116,312
809.57489,309
809.693726,309
809.8125,326
809.931274,308
810.050049,329
810.168884,318
810.287659,324
810.406372,311
810.525269,322
810.643982,313
810.762756,337
810.881531,328
811.000305,329
811.11908,321
811.237854,330
811.356567,311
811.475403,321
811.594116,320
811.71283,315
811.831604,329
811.950378,336
812.069153,319
812.187927,318
812.30658,325
812.425415,328
812.544128,321
812.662781,324
812.781616,320
812.900269,323
813.019043,327
813.137756,324
813.256531,325
813.375244,326
813.493896,328
813.612671,316
813.731384,319
813.850037,331
813.96875,318
814.087524,334
814.206238,318
814.324951,304
814.443604,324
814.562256,315
814.68103,312
814.799683,319
814.918335,322
815.037109,324
815.155762,317
815.274475,330
815.393188,319
815.511841,317
815.630554,329
815.749146,315
815.867859,323
815.986572,315
816.105164,320
816.223877,341
816.342529,320
816.461182,314
816.579895,317
816.698486,325
816.817139,314
816.935791,326
817.054504,330
817.173096,329
817.291748,305
817.4104,317
817.529053,321
817.647644,323
817.766235,321
817.884949,333
818.00354,326
818.122192,314
818.240845,317
818.359436,322
818.478088,309
818.59668,310
818.715271,312
818.833923,325
818.952515,328
819.071106,305
819.189758,315
819.30835,314
819.426941,319
819.545532,326
819.664124,308
819.782715,323
819.901306,321
820.019897,323
820.138489,328
820.25708,325
820.375671,313
820.494202,319
820.612732,319
820.731384,315
820.849915,321
820.968506,328
821.087097,314
821.205627,340
821.324158,320
821.442749,309
821.561279,324
821.679871,327
821.798401,326
821.916931,318
822.035461,327
822.154053,327
822.272583,310
822.391174,323
822.509583,312
822.628174,337
822.746704,317
822.865234,307
822.983765,325
823.102295,323
823.220825,316
823.339294,315
823.457825,305
823.576355,323
823.694824,313
823.813354,303
823.931885,313
824.050354,312
824.168884,318
824.287354,325
824.405823,314
824.524353,328
824.642822,328
824.761353,308
824.879822,319
824.998291,320
825.116699,308
825.235291,324
825.353699,309
825.472168,312
825.590637,309
825.709106,323
825.827576,313
825.946045,311
826.064453,330
826.182983,309
826.301392,318
826.4198,322
826.53833,321
826.656738,328
826.775208,314
826.893677,315
827.012024,310
827.130493,322
827.248962,326
827.36731,321
827.485779,313
827.604248,317
827.722595,320
827.841064,329
827.959412,312
828.077942,321
828.196289,320
828.314636,322
828.433105,309
828.551514,329
828.669861,315
828.78833,320
828.906677,320
829.025085,321
829.143433,320
829.261841,311
829.38031,313
829.498657,322
829.617004,304
829.735413,320
829.85376,311
829.972107,329
830.090515,323
830.208862,327
830.327209,301
830.445557,327
830.563904,322
830.682312,316
830.800659,307
830.919006,312
831.037354,318
831.155701,314
831.274048,326
831.392395,320
831.51062,322
831.629028,316
831.747314,323
831.865662,329
831.984009,318
832.102356,321
832.220642,335
832.338928,323
832.457275,327
832.575623,319
832.693909,317
832.812134,317
832.930481,300
833.048828,323
833.167114,308
833.2854,315
833.403687,327
833.521973,306
833.640259,321
833.758545,320
833.876831,326
833.995056,310
834.113281,317
834.231628,312
834.349915,314
834.468201,325
834.586426,312
834.704651,325
834.822998,311
834.941162,311
835.059448,330
835.177673,335
835.295959,306
835.414246,316
835.53241,316
835.650635,319
835.768921,318
835.887146,320
836.005371,324
836.123596,318
836.241821,321
836.360046,328
836.478271,319
836.596497,313
836.714722,319
836.832886,312
836.95105,316
837.069336,315
837.1875,313
837.305725,315
837.423889,321
837.542053,301
837.660339,314
837.778503,330
837.896667,317
838.014832,327
838.132996,324
838.25116,320
838.369385,330
838.487488,314
838.605713,296
838.723877,309
838.84198,328
838.960205,328
839.078308,314
839.196472,315
839.314636,307
839.4328,317
839.550964,319
839.669067,314
839.787231,314
839.905396,309
840.023499,309
840.141602,318
840.259766,311
840.377869,314
840.495972,307
840.614136,329
840.732239,329
840.850342,311
840.968445,322
841.086548,318
841.204651,309
841.322754,325
841.440918,320
841.55896,316
841.677002,313
841.795166,316
841.913208,318
842.031311,320
842.149353,305
842.267456,319
842.385498,301
842.503601,320
842.621643,316
842.739746,320
842.857788,314
842.97583,321
843.093933,319
843.211975,339
843.330017,313
843.44812,314
843.566101,300
843.684204,325
843.802246,315
843.920227,327
844.038269,321
844.156311,315
844.274292,319
844.392395,318
844.510376,311
844.628357,322
844.74646,305
844.864441,324
844.982422,317
845.100403,306
845.218384,314
845.336426,333
845.454468,314
845.572449,323
845.69043,305
845.808411,322
845.926453,309
846.044373,317
846.162354,322
846.280396,317
846.398315,321
846.516296,314
846.634216,323
846.752197,328
846.870178,322
846.988098,319
847.106079,321
847.22406,322
847.34198,317
847.4599,321
847.577881,320
847.695801,316
847.813782,316
847.931641,314
848.049561,306
848.167603,329
848.285461,313
848.403381,308
848.521362,335
848.639221,310
848.75708,327
848.875,317
848.99292,325
849.110901,327
849.22876,319
849.34668,304
849.464539,315
849.582458,334
849.700317,316
849.818176,329
849.936096,325
850.053955,321
850.171875,324
850.289673,319
850.407593,314
850.525452,319
850.643311,317
850.761169,331
850.878967,304
850.996887,320
851.114746,312
851.232544,324
851.350403,323
851.468262,332
851.58606,327
851.703979,321
851.821777,324
851.939636,323
852.057434,310
852.175232,336
852.293091,311
852.410889,325
852.528687,318
852.646545,320
852.764343,305
852.88208,326
852.999939,322
853.117676,323
853.235535,316
853.353271,331
853.471069,318
853.588928,298
853.706604,300
853.824402,318
853.9422,324
854.059998,313
854.177734,308
854.295532,330
854.413269,307
854.531006,331
854.648804,318
854.766541,331
854.884277,320
855.002014,316
855.119751,299
855.237549,320
855.355225,319
855.473022,321
855.590698,317
855.708435,324
855.826172,316
855.943848,321
856.061646,320
856.179321,320
856.296997,317
856.414795,322
856.53241,316
856.650085,320
856.767822,317
856.885559,312
857.003174,316
857.120911,315
857.238586,330
857.356201,319
857.473938,306
857.591614,315
857.709351,331
857.826965,323
857.944641,323
858.062317,321
858.179993,315
858.297668,329
858.415283,305
858.532959,317
858.650574,332
858.768188,329
858.885803,311
859.003479,320
859.121094,326
859.23877,321
859.356384,318
859.473999,316
859.591675,320
859.709229,335
859.826843,316
859.944458,320
860.062012,340
860.179626,312
860.297302,315
860.414856,312
860.532471,324
860.650024,313
860.767639,313
860.885193,316
861.002808,314
861.120361,337
861.237976,308
861.35553,327
861.473022,319
861.590698,317
861.708191,316
861.825745,325
861.943298,330
862.060852,326
862.178406,313
862.295959,313
862.413513,308
862.531006,338
862.64856,328
862.766113,309
862.883667,311
863.00116,321
863.118713,330
863.236206,316
863.353699,325
863.471252,332
863.588745,318
863.706177,319
863.82373,318
863.941162,314
864.058716,326
864.176208,316
864.29364,311
864.411194,337
864.528687,307
864.646118,319
864.763611,307
864.881042,336
864.998535,311
865.116028,324
865.233459,329
865.350891,310
865.468384,312
865.585754,306
865.703308,317
865.820679,338
865.938171,327
866.055542,327
866.173035,316
866.290466,317
866.407837,304
866.52533,308
866.6427,329
866.760071,314
866.877563,316
866.994934,315
867.112305,310
867.229736,325
867.347107,310
867.464539,309
867.58197,320
867.699341,323
867.81665,322
867.934082,309
868.051453,309
868.168823,320
868.286194,325
868.403564,320
868.520935,319
868.638306,327
868.755676,318
868.872986,315
868.990295,322
869.107727,322
869.225037,300
869.342346,315
869.459717,316
869.577026,325
869.694336,311
869.811707,320
869.929016,322
870.046326,314
870.163635,324
870.280945,317
870.398254,323
870.515564,324
870.632812,319
870.750183,313
870.867432,311
870.984741,318
871.102051,307
871.219299,325
871.336609,318
871.453918,314
871.571106,331
871.688416,313
871.805664,312
871.922852,326
872.040222,321
872.157471,313
872.274719,319
872.391968,315
872.509155,315
872.626465,310
872.743652,338
872.860962,320
872.978149,319
873.095337,324
873.212646,316
873.329834,315
873.44696,310
873.564209,320
873.681396,315
873.798645,322
873.915894,319
874.03302,325
874.150208,318
874.267456,324
874.384583,316
874.501831,335
874.618958,303
874.736145,325
874.853333,320
874.970459,317
875.087646,322
875.204834,321
875.32196,303
875.439148,317
875.556274,322
875.673401,324
875.790527,320
875.907715,321
876.024841,320
876.141968,318
876.259094,317
876.376282,328
876.493347,310
876.610474,323
876.7276,308
876.844727,309
876.961853,308
877.078918,321
877.195984,315
877.313171,321
877.430237,315
877.547302,312
877.664368,318
877.781433,328
877.898499,301
878.015625,323
878.13269,325
878.249695,313
878.366821,326
878.483887,330
878.600952,306
878.717957,318
878.834961,309
878.952087,327
879.069092,318
879.186157,319
879.303162,316
879.420227,327
879.537231,323
879.654236,320
879.77124,312
879.888306,331
880.005249,328
880.122314,327
880.239319,327
880.356323,318
880.473328,317
880.590271,329
880.707275,316
880.824341,325
880.941284,327
881.058228,319
881.175232,311
881.292236,324
881.40918,315
881.526123,318
881.643066,327
881.760071,326
881.877014,310
881.993958,320
882.11084,311
882.227783,322
882.344727,320
882.46167,323
882.578613,315
882.695618,325
882.812439,307
882.929382,324
883.046326,324
883.163208,304
883.280151,316
883.397034,318
883.513916,321
883.630798,319
883.747742,301
883.864563,316
883.981506,331
884.098389,314
884.21521,309
884.332153,324
884.448975,308
884.565796,311
884.682678,317
884.7995,316
884.916443,312
885.033264,325
885.150085,325
885.266968,309
885.383789,320
885.500671,324
885.617493,322
885.734314,322
885.851196,322
885.967896,330
886.084717,319
886.201599,311
886.318359,317
886.435181,328
886.552002,315
886.668762,321
886.785645,324
886.902344,317
887.019165,308
887.135925,320
887.252747,338
887.369446,328
887.486267,321
887.603027,322
887.719788,311
887.836548,317
887.953247,310
888.070068,328
888.186829,319
888.303528,303
888.420288,313
888.536987,312
888.653687,314
888.770447,319
888.887146,315
889.003967,321
889.120667,302
889.237305,317
889.354065,309
889.470703,335
889.587463,326
889.704163,326
889.820862,321
889.937561,313
890.054199,316
890.170837,322
890.287598,333
890.404236,330
890.520874,322
890.637634,311
890.754211,332
890.87085,314
890.987549,313
891.104187,324
891.220886,312
891.337463,318
891.454102,314
891.57074,315
891.687378,310
891.804077,323
891.920654,320
892.037231,309
892.15387,308
892.270447,305
892.387085,323
892.503723,326
892.6203,306
892.736877,323
892.853516,320
892.970032,324
893.08667,321
893.203186,313
893.319763,320
893.43634,314
893.552917,314
893.669556,318
893.786011,320
893.902588,320
894.019165,307
894.135681,317
894.252197,322
894.368835,323
894.485291,307
894.601868,309
894.718384,319
894.8349,306
894.951355,315
895.067932,310
895.184448,315
895.300964,316
895.417419,309
895.533936,322
895.650452,318
895.766907,314
895.883423,312
895.999878,316
896.116333,316
896.232849,317
896.349304,326
896.465759,323
896.582214,311
896.698669,311
896.815125,311
896.931641,316
897.048035,321
897.164551,319
897.280884,310
897.397339,322
897.513794,314
897.630249,329
897.746582,327
897.863098,318
897.979431,315
898.095886,317
898.212341,326
898.328674,321
898.445129,327
898.561462,316
898.677795,308
898.794312,320
898.910645,312
899.026978,315
899.143433,318
899.259766,311
899.37616,328
899.492493,329
899.608765,306
899.725159,308
899.841553,317
899.957947,316
900.07428,313
900.190552,315
900.306946,328
900.423157,315
900.53949,320
900.655884,313
900.772156,300
900.888489,312
901.004822,308
901.121033,316
901.237366,316
901.353699,323
901.46991,309
901.586304,323
901.702515,301
901.818787,325
901.93512,326
902.051331,322
902.167603,306
902.283875,326
902.400085,312
902.516418,314
902.632629,312
902.74884,309
902.865112,322
902.981384,322
903.097595,312
903.213867,323
903.330017,319
903.446289,327
903.5625,317
903.67865,319
903.794922,323
903.911072,318
904.027344,318
904.143494,328
904.259705,310
904.375916,318
904.492065,317
904.608215,327
904.724426,303
904.840576,316
904.956726,314
905.072876,314
905.189087,335
905.305176,329
905.421387,306
905.537537,311
905.653687,317
905.769775,316
905.885925,320
906.002014,320
906.118164,321
906.234314,320
906.350403,321
906.466492,317
906.582642,326
906.69873,326
906.814758,307
906.930908,326
907.046936,326
907.163086,308
907.279175,316
907.395264,329
907.511353,311
907.62738,320
907.743408,312
907.859497,323
907.975525,316
908.091553,318
908.207703,316
908.32373,325
908.439758,319
908.555786,325
908.671814,325
908.787842,317
908.90387,303
909.019775,314
909.135864,317
909.251892,340
909.367859,312
909.483826,319
909.599854,318
909.715881,313
909.831848,311
909.947815,315
910.063782,310
910.179749,316
910.295776,306
910.411743,309
910.527649,316
910.643616,311
910.759583,317
910.875488,326
910.991455,322
911.107361,317
911.223267,313
911.339294,316
911.4552,314
911.571106,332
911.687073,316
911.802979,318
911.918823,315
912.034729,322
912.150635,300
912.266602,326
912.382446,311
912.498352,319
912.614197,292
912.730103,313
912.846008,316
