792.44574,324
792.56488,369
792.68396,400
792.80304,400
792.92218,344
793.041199,332
793.160339,334
793.279419,345
793.398499,330
793.517578,327
793.636658,319
793.755737,325
793.874817,360
793.993896,366
794.112976,362
794.232056,338
794.351074,330
794.470215,336
794.589233,334
794.708313,323
794.827393,330
794.946411,329
795.065552,335
795.18457,339
795.303589,349
795.422668,318
795.541687,338
795.660767,341
795.779846,332
795.898865,318
796.017883,330
796.136963,342
796.255981,326
796.375061,336
796.49408,343
796.613037,325
796.732117,328
796.851135,304
796.970154,335
797.089233,337
797.208191,335
797.327271,324
797.446228,346
797.565186,327
797.684265,329
797.803223,329
797.922241,342
798.04126,336
798.160278,328
798.279297,318
798.398315,330
798.517273,342
798.636292,323
798.75531,334
798.874268,319
798.993286,326
799.112244,334
799.231323,332
799.350281,324
799.469238,329
799.588257,328
799.707153,321
799.826111,340
799.945129,332
800.064087,329
800.183044,327
800.302063,329
800.421021,315
800.539978,329
800.658936,323
800.777893,332
800.896912,328
801.015747,327
801.134705,334
801.253723,337
801.37262,329
801.491638,305
801.610535,342
801.729492,326
801.84845,327
801.967407,334
802.086243,324
802.205261,325
802.324158,334
802.443115,311
802.562073,335
802.680969,320
802.799927,342
802.918762,337
803.037659,334
803.156677,329
803.275574,319
803.39447,326
803.513428,328
803.632263,330
803.751221,325
803.870117,335
803.989014,335
804.107971,323
804.226746,329
804.345642,321
804.4646,333
804.583496,321
804.702393,331
804.821228,324
804.940125,323
805.059021,331
805.177917,332
805.296814,333
805.415649,310
805.534546,325
805.653442,332
805.772278,315
805.891113,335
806.01001,325
806.128906,331
806.247742,333
806.366577,331
806.485413,327
806.604309,331
806.723145,326
806.84198,342
806.960876,321
807.079712,339
807.198486,324
807.317383,340
807.436218,336
807.554993,321
807.673889,330
807.792725,358
807.91156,325
808.030396,319
808.14917,328
808.268005,337
808.386841,330
808.505676,323
808.624451,325
808.743286,322
808.862122,331
808.980896,326
809.099731,327
809.218506,332
809.337341,323
809.456116,329
809.57489,325
809.693726,325
809.8125,331
809.931274,330
810.050049,321
810.168884,328
810.287659,342
810.406372,331
810.525269,329
810.643982,322
810.762756,344
810.881531,330
811.000305,331
811.11908,334
811.237854,338
811.356567,341
811.475403,329
811.594116,324
811.71283,326
811.831604,333
811.950378,322
812.069153,331
812.187927,338
812.30658,332
812.425415,338
812.544128,332
812.662781,329
812.781616,337
812.900269,332
813.019043,330
813.137756,340
813.256531,322
813.375244,338
813.493896,335
813.612671,322
813.731384,326
813.850037,316
813.96875,341
814.087524,317
814.206238,333
814.324951,328
814.443604,341
814.562256,333
814.68103,324
814.799683,334
814.918335,334
815.037109,331
815.155762,320
815.274475,321
815.393188,329
815.511841,341
815.630554,337
815.749146,340
815.867859,322
815.986572,329
816.105164,329
816.223877,313
816.342529,319
816.461182,333
816.579895,335
816.698486,321
816.817139,335
816.935791,329
817.054504,327
817.173096,316
817.291748,321
817.4104,307
817.529053,329
817.647644,324
817.766235,326
817.884949,327
818.00354,314
818.122192,323
818.240845,317
818.359436,336
818.478088,327
818.59668,314
818.715271,336
818.833923,321
818.952515,334
819.071106,323
819.189758,319
819.30835,314
819.426941,324
819.545532,330
819.664124,321
819.782715,324
819.901306,323
820.019897,317
820.138489,325
820.25708,310
820.375671,319
820.494202,312
820.612732,320
820.731384,309
820.849915,313
820.968506,317
821.087097,318
821.205627,310
821.324158,325
821.442749,325
821.561279,323
821.679871,311
821.798401,319
821.916931,317
822.035461,326
822.154053,310
822.272583,327
822.391174,329
822.509583,335
822.628174,328
822.746704,321
822.865234,313
822.983765,298
823.102295,326
823.220825,329
823.339294,314
823.457825,336
823.576355,306
823.694824,324
823.813354,320
823.931885,311
824.050354,325
824.168884,320
824.287354,323
824.405823,327
824.524353,320
824.642822,317
824.761353,328
824.879822,323
824.998291,319
825.116699,322
825.235291,321
825.353699,309
825.472168,333
825.590637,319
825.709106,329
825.827576,335
825.946045,314
826.064453,333
826.182983,301
826.301392,321
826.4198,322
826.53833,312
826.656738,332
826.775208,321
826.893677,316
827.012024,327
827.130493,310
827.248962,317
827.36731,309
827.485779,312
827.604248,310
827.722595,338
827.841064,307
827.959412,322
828.077942,325
828.196289,316
828.314636,324
828.433105,307
828.551514,314
828.669861,312
828.78833,306
828.906677,316
829.025085,311
829.143433,313
829.261841,322
829.38031,320
829.498657,324
829.617004,325
829.735413,325
829.85376,320
829.972107,302
830.090515,328
830.208862,305
830.327209,312
830.445557,325
830.563904,318
830.682312,317
830.800659,321
830.919006,316
831.037354,326
831.155701,324
831.274048,332
831.392395,319
831.51062,327
831.629028,309
831.747314,312
831.865662,317
831.984009,306
832.102356,307
832.220642,312
832.338928,322
832.457275,313
832.575623,328
832.693909,327
832.812134,308
832.930481,315
833.048828,312
833.167114,313
833.2854,330
833.403687,318
833.521973,309
833.640259,327
833.758545,318
833.876831,328
833.995056,318
834.113281,317
834.231628,308
834.349915,331
834.468201,327
834.586426,316
834.704651,318
834.822998,313
834.941162,310
835.059448,325
835.177673,310
835.295959,318
835.414246,327
835.53241,320
835.650635,312
835.768921,324
835.887146,313
836.005371,317
836.123596,320
836.241821,324
836.360046,318
836.478271,314
836.596497,316
836.714722,306
836.832886,311
836.95105,312
837.069336,313
837.1875,319
837.305725,329
837.423889,319
837.542053,319
837.660339,315
837.778503,305
837.896667,325
838.014832,326
838.132996,327
838.25116,322
838.369385,326
838.487488,316
838.605713,317
838.723877,328
838.84198,315
838.960205,329
839.078308,319
839.196472,310
839.314636,312
839.4328,315
839.550964,330
839.669067,307
839.787231,328
839.905396,320
840.023499,302
840.141602,327
840.259766,318
840.377869,316
840.495972,322
840.614136,319
840.732239,323
840.850342,313
840.968445,327
841.086548,313
841.204651,327
841.322754,313
841.440918,324
841.55896,316
841.677002,320
841.795166,318
841.913208,313
842.031311,341
842.149353,311
842.267456,316
842.385498,321
842.503601,315
842.621643,335
842.739746,308
842.857788,315
842.97583,320
843.093933,330
843.211975,311
843.330017,319
843.44812,315
843.566101,321
843.684204,318
843.802246,319
843.920227,315
844.038269,327
844.156311,313
844.274292,320
844.392395,327
844.510376,312
844.628357,315
844.74646,314
844.864441,318
844.982422,316
845.100403,322
845.218384,316
845.336426,317
845.454468,329
845.572449,319
845.69043,328
845.808411,319
845.926453,338
846.044373,344
846.162354,313
846.280396,304
846.398315,309
846.516296,326
846.634216,321
846.752197,317
846.870178,325
846.988098,309
847.106079,324
847.22406,333
847.34198,320
847.4599,323
847.577881,311
847.695801,320
847.813782,317
847.931641,324
848.049561,319
848.167603,309
848.285461,317
848.403381,305
848.521362,323
848.639221,322
848.75708,317
848.875,305
848.99292,322
849.110901,316
849.22876,301
849.34668,314
849.464539,314
849.582458,312
849.700317,308
849.818176,321
849.936096,318
850.053955,319
850.171875,328
850.289673,311
850.407593,317
850.525452,321
850.643311,314
850.761169,324
850.878967,331
850.996887,313
851.114746,311
851.232544,331
851.350403,324
851.468262,324
851.58606,311
851.703979,313
851.821777,331
851.939636,330
852.057434,331
852.175232,318
852.293091,327
852.410889,330
852.528687,323
852.646545,321
852.764343,328
852.88208,316
852.999939,323
853.117676,314
853.235535,333
853.353271,319
853.471069,319
853.588928,327
853.706604,314
853.824402,328
853.9422,307
854.059998,318
854.177734,324
854.295532,324
854.413269,320
854.531006,316
854.648804,327
854.766541,321
854.884277,317
855.002014,319
855.119751,324
855.237549,302
855.355225,309
855.473022,311
855.590698,318
855.708435,315
855.826172,326
855.943848,316
856.061646,327
856.179321,312
856.296997,323
856.414795,313
856.53241,315
856.650085,312
856.767822,318
856.885559,324
857.003174,313
857.120911,316
857.238586,317
857.356201,328
857.473938,329
857.591614,314
857.709351,322
857.826965,312
857.944641,323
858.062317,326
858.179993,317
858.297668,308
858.415283,317
858.532959,314
858.650574,326
858.768188,319
858.885803,322
859.003479,319
859.121094,334
859.23877,315
859.356384,321
859.473999,319
859.591675,326
859.709229,313
859.826843,324
859.944458,310
860.062012,331
860.179626,298
860.297302,323
860.414856,311
860.532471,312
860.650024,316
860.767639,307
860.885193,328
861.002808,326
861.120361,302
861.237976,323
861.35553,320
861.473022,312
861.590698,312
861.708191,328
861.825745,319
861.943298,317
862.060852,311
862.178406,329
862.295959,313
862.413513,322
862.531006,311
862.64856,320
862.766113,317
862.883667,310
863.00116,323
863.118713,307
863.236206,304
863.353699,320
863.471252,308
863.588745,313
863.706177,318
863.82373,322
863.941162,308
864.058716,325
864.176208,320
864.29364,304
864.411194,309
864.528687,311
864.646118,312
864.763611,320
864.881042,321
864.998535,312
865.116028,327
865.233459,324
865.350891,317
865.468384,318
865.585754,315
865.703308,317
865.820679,308
865.938171,318
866.055542,319
866.173035,322
866.290466,310
866.407837,319
866.52533,331
866.6427,318
866.760071,327
866.877563,319
866.994934,292
867.112305,331
867.229736,321
867.347107,318
867.464539,311
867.58197,313
867.699341,308
867.81665,323
867.934082,319
868.051453,334
868.168823,306
868.286194,323
868.403564,314
868.520935,336
868.638306,311
868.755676,308
868.872986,323
868.990295,314
869.107727,307
869.225037,325
869.342346,318
869.459717,317
869.577026,299
869.694336,327
869.811707,317
869.929016,304
870.046326,331
870.163635,320
870.280945,323
870.398254,322
870.515564,309
870.632812,315
870.750183,319
870.867432,310
870.984741,335
871.102051,319
871.219299,321
871.336609,315
871.453918,307
871.571106,321
871.688416,320
871.805664,314
871.922852,305
872.040222,317
872.157471,327
872.274719,322
872.391968,321
872.509155,326
872.626465,326
872.743652,314
872.860962,310
872.978149,317
873.095337,312
873.212646,331
873.329834,327
873.44696,324
873.564209,316
873.681396,328
873.798645,318
873.915894,318
874.03302,321
874.150208,315
874.267456,317
874.384583,319
874.501831,330
874.618958,320
874.736145,321
874.853333,313
874.970459,324
875.087646,320
875.204834,316
875.32196,333
875.439148,323
875.556274,314
875.673401,317
875.790527,342
875.907715,316
876.024841,304
876.141968,316
876.259094,328
876.376282,323
876.493347,320
876.610474,308
876.7276,320
876.844727,326
876.961853,320
877.078918,319
877.195984,337
877.313171,314
877.430237,325
877.547302,315
877.664368,312
877.781433,315
877.898499,326
878.015625,316
878.13269,316
878.249695,310
878.366821,308
878.483887,324
878.600952,323
878.717957,309
878.834961,315
878.952087,317
879.069092,315
879.186157,306
879.303162,327
879.420227,319
879.537231,304
879.654236,322
879.77124,322
879.888306,313
880.005249,327
880.122314,308
880.239319,327
880.356323,312
880.473328,307
880.590271,313
880.707275,317
880.824341,317
880.941284,310
881.058228,314
881.175232,326
881.292236,311
881.40918,329
881.526123,308
881.643066,312
881.760071,301
881.877014,323
881.993958,318
882.11084,317
882.227783,316
882.344727,310
882.46167,303
882.578613,323
882.695618,323
882.812439,328
882.929382,313
883.046326,314
883.163208,319
883.280151,316
883.397034,321
883.513916,327
883.630798,309
883.747742,322
883.864563,322
883.981506,326
884.098389,319
884.21521,315
884.332153,323
884.448975,324
884.565796,305
884.682678,315
884.7995,315
884.916443,316
885.033264,314
885.150085,324
885.266968,324
885.383789,321
885.500671,316
885.617493,321
885.734314,320
885.851196,318
885.967896,311
886.084717,324
886.201599,317
886.318359,316
886.435181,315
886.552002,326
886.668762,320
886.785645,331
886.902344,312
887.019165,324
887.135925,314
887.252747,309
887.369446,319
887.486267,311
887.603027,318
887.719788,317
887.836548,318
887.953247,324
888.070068,312
888.186829,318
888.303528,306
888.420288,326
888.536987,305
888.653687,321
888.770447,320
888.887146,318
889.003967,321
889.120667,314
889.237305,315
889.354065,325
889.470703,312
889.587463,312
889.704163,309
889.820862,314
889.937561,316
890.054199,319
890.170837,315
890.287598,329
890.404236,319
890.520874,318
890.637634,310
890.754211,314
890.87085,318
890.987549,322
891.104187,329
891.220886,318
891.337463,309
891.454102,327
891.57074,315
891.687378,320
891.804077,314
891.920654,314
892.037231,323
892.15387,324
892.270447,318
892.387085,328
892.503723,313
892.6203,320
892.736877,318
892.853516,322
892.970032,307
893.08667,325
893.203186,314
893.319763,330
893.43634,315
893.552917,312
893.669556,315
893.786011,330
893.902588,314
894.019165,317
894.135681,303
894.252197,321
894.368835,317
894.485291,330
894.601868,322
894.718384,318
894.8349,322
894.951355,313
895.067932,304
895.184448,316
895.300964,301
895.417419,324
895.533936,326
895.650452,311
895.766907,315
895.883423,329
895.999878,315
896.116333,320
896.232849,317
896.349304,332
896.465759,308
896.582214,323
896.698669,307
896.815125,309
896.931641,307
897.048035,324
897.164551,309
897.280884,310
897.397339,322
897.513794,314
897.630249,320
897.746582,326
897.863098,315
897.979431,319
898.095886,305
898.212341,309
898.328674,320
898.445129,311
898.561462,318
898.677795,312
898.794312,310
898.910645,313
899.026978,324
899.143433,320
899.259766,326
899.37616,325
899.492493,315
899.608765,319
899.725159,308
899.841553,315
899.957947,322
900.07428,316
900.190552,327
900.306946,318
900.423157,305
900.53949,303
900.655884,320
900.772156,320
900.888489,316
901.004822,322
901.121033,314
901.237366,331
901.353699,311
901.46991,324
901.586304,311
901.702515,320
901.818787,313
901.93512,320
902.051331,295
902.167603,320
902.283875,326
902.400085,333
902.516418,327
902.632629,309
902.74884,327
902.865112,313
902.981384,328
903.097595,330
903.213867,316
903.330017,327
903.446289,305
903.5625,325
903.67865,321
903.794922,330
903.911072,322
904.027344,317
904.143494,324
904.259705,324
904.375916,312
904.492065,319
904.608215,314
904.724426,326
904.840576,308
904.956726,318
905.072876,327
905.189087,322
905.305176,325
905.421387,328
905.537537,327
905.653687,324
905.769775,317
905.885925,319
906.002014,312
906.118164,316
906.234314,318
906.350403,324
906.466492,323
906.582642,335
906.69873,325
906.814758,327
906.930908,319
907.046936,328
907.163086,315
907.279175,323
907.395264,315
907.511353,320
907.62738,311
907.743408,300
907.859497,304
907.975525,328
908.091553,314
908.207703,326
908.32373,317
908.439758,310
908.555786,317
908.671814,319
908.787842,331
908.90387,329
909.019775,329
909.135864,322
909.251892,310
909.367859,323
909.483826,314
909.599854,311
909.715881,308
909.831848,322
909.947815,323
910.063782,322
910.179749,319
910.295776,312
910.411743,323
910.527649,315
910.643616,311
910.759583,317
910.875488,316
910.991455,326
911.107361,314
911.223267,322
911.339294,315
911.4552,318
911.571106,319
911.687073,314
911.802979,317
911.918823,309
912.034729,327
912.150635,311
912.266602,322
912.382446,323
912.498352,316
912.614197,328
912.730103,304
912.846008,313
792.44574,334
792.56488,346
792.68396,410
792.80304,384
792.92218,343
793.041199,317
793.160339,354
793.279419,325
793.398499,343
793.517578,320
793.636658,339
793.755737,340
793.874817,348
793.993896,348
794.112976,335
794.232056,328
794.351074,346
794.470215,333
794.589233,344
794.708313,338
794.827393,352
794.946411,341
795.065552,339
795.18457,328
795.303589,336
795.422668,327
795.541687,330
795.660767,336
795.779846,335
795.898865,331
796.017883,334
796.136963,337
796.255981,346
796.375061,326
796.49408,321
796.613037,342
796.732117,331
796.851135,337
796.970154,327
797.089233,320
797.208191,347
797.327271,305
797.446228,332
797.565186,328
797.684265,324
797.803223,336
797.922241,336
798.04126,330
798.160278,342
798.279297,322
798.398315,327
798.517273,339
798.636292,330
798.75531,343
798.874268,335
798.993286,333
799.112244,326
799.231323,329
799.350281,337
799.469238,315
799.588257,338
799.707153,331
799.826111,334
799.945129,336
800.064087,337
800.183044,329
800.302063,345
800.421021,322
800.539978,324
800.658936,320
800.777893,325
800.896912,337
801.015747,330
801.134705,321
801.253723,327
801.37262,328
801.491638,331
801.610535,316
801.729492,329
801.84845,322
801.967407,339
802.086243,329
802.205261,330
802.324158,327
802.443115,325
802.562073,331
802.680969,338
802.799927,323
802.918762,328
803.037659,308
803.156677,335
803.275574,323
803.39447,321
803.513428,332
803.632263,314
803.751221,326
803.870117,327
803.989014,336
804.107971,323
804.226746,334
804.345642,334
804.4646,318
804.583496,328
804.702393,319
804.821228,329
804.940125,326
805.059021,330
805.177917,332
805.296814,323
805.415649,319
805.534546,331
805.653442,338
805.772278,345
805.891113,324
806.01001,317
806.128906,333
806.247742,317
806.366577,317
806.485413,323
806.604309,322
806.723145,326
806.84198,322
806.960876,335
807.079712,317
807.198486,334
807.317383,338
807.436218,324
807.554993,337
807.673889,342
807.792725,320
807.91156,336
808.030396,324
808.14917,332
808.268005,327
808.386841,326
808.505676,326
808.624451,326
808.743286,337
808.862122,316
808.980896,324
809.099731,325
809.218506,328
809.337341,328
809.456116,329
809.57489,315
809.693726,326
809.8125,348
809.931274,329
810.050049,330
810.168884,329
810.287659,324
810.406372,342
810.525269,323
810.643982,323
810.762756,341
810.881531,309
811.000305,340
811.11908,312
811.237854,321
811.356567,315
811.475403,327
811.594116,330
811.71283,324
811.831604,324
811.950378,324
812.069153,314
812.187927,332
812.30658,317
812.425415,329
812.544128,314
812.662781,340
812.781616,332
812.900269,324
813.019043,332
813.137756,336
813.256531,327
813.375244,322
813.493896,326
813.612671,321
813.731384,334
813.850037,328
813.96875,324
814.087524,328
814.206238,317
814.324951,317
814.443604,327
814.562256,333
814.68103,322
814.799683,319
814.918335,312
815.037109,328
815.155762,320
815.274475,326
815.393188,330
815.511841,338
815.630554,315
815.749146,328
815.867859,342
815.986572,341
816.105164,316
816.223877,328
816.342529,320
816.461182,333
816.579895,327
816.698486,324
816.817139,325
816.935791,342
817.054504,316
817.173096,339
817.291748,327
817.4104,336
817.529053,334
817.647644,326
817.766235,317
817.884949,324
818.00354,314
818.122192,312
818.240845,324
818.359436,321
818.478088,310
818.59668,326
818.715271,318
818.833923,325
818.952515,323
819.071106,326
819.189758,335
819.30835,311
819.426941,318
819.545532,322
819.664124,324
819.782715,327
819.901306,314
820.019897,337
820.138489,305
820.25708,318
820.375671,324
820.494202,320
820.612732,312
820.731384,307
820.849915,320
820.968506,317
821.087097,316
821.205627,309
821.324158,320
821.442749,316
821.561279,323
821.679871,324
821.798401,327
821.916931,313
822.035461,307
822.154053,326
822.272583,318
822.391174,320
822.509583,322
822.628174,327
822.746704,310
822.865234,331
822.983765,318
823.102295,316
823.220825,316
823.339294,313
823.457825,310
823.576355,324
823.694824,325
823.813354,321
823.931885,319
824.050354,326
824.168884,332
824.287354,316
824.405823,321
824.524353,329
824.642822,317
824.761353,312
824.879822,317
824.998291,302
825.116699,312
825.235291,310
825.353699,331
825.472168,332
825.590637,318
825.709106,320
825.827576,314
825.946045,312
826.064453,303
826.182983,318
826.301392,307
826.4198,317
826.53833,315
826.656738,323
826.775208,308
826.893677,312
827.012024,321
827.130493,322
827.248962,315
827.36731,305
827.485779,322
827.604248,320
827.722595,313
827.841064,319
827.959412,321
828.077942,320
828.196289,323
828.314636,318
828.433105,322
828.551514,314
828.669861,302
828.78833,336
828.906677,309
829.025085,322
829.143433,312
829.261841,317
829.38031,312
829.498657,323
829.617004,303
829.735413,320
829.85376,309
829.972107,331
830.090515,308
830.208862,333
830.327209,312
830.445557,330
830.563904,313
830.682312,316
830.800659,319
830.919006,307
831.037354,321
831.155701,313
831.274048,308
831.392395,312
831.51062,317
831.629028,336
831.747314,302
831.865662,313
831.984009,314
832.102356,330
832.220642,309
832.338928,320
832.457275,316
832.575623,320
832.693909,314
832.812134,326
832.930481,321
833.048828,315
833.167114,307
833.2854,321
833.403687,319
833.521973,313
833.640259,324
833.758545,320
833.876831,310
833.995056,338
834.113281,308
834.231628,314
834.349915,324
834.468201,315
834.586426,318
834.704651,309
834.822998,317
834.941162,306
835.059448,310
835.177673,315
835.295959,321
835.414246,327
835.53241,316
835.650635,313
835.768921,316
835.887146,315
836.005371,315
836.123596,319
836.241821,318
836.360046,319
836.478271,313
836.596497,322
836.714722,298
836.832886,324
836.95105,317
837.069336,325
837.1875,324
837.305725,322
837.423889,308
837.542053,334
837.660339,313
837.778503,308
837.896667,323
838.014832,321
838.132996,324
838.25116,313
838.369385,303
838.487488,311
838.605713,331
838.723877,321
838.84198,313
838.960205,313
839.078308,324
839.196472,320
839.314636,334
839.4328,320
839.550964,306
839.669067,322
839.787231,318
839.905396,320
840.023499,293
840.141602,313
840.259766,325
840.377869,308
840.495972,329
840.614136,317
840.732239,325
840.850342,320
840.968445,312
841.086548,336
841.204651,312
841.322754,323
841.440918,305
841.55896,334
841.677002,314
841.795166,324
841.913208,318
842.031311,325
842.149353,303
842.267456,318
842.385498,306
842.503601,330
842.621643,314
842.739746,327
842.857788,326
842.97583,318
843.093933,322
843.211975,314
843.330017,325
843.44812,323
843.566101,306
843.684204,314
843.802246,310
843.920227,307
844.038269,328
844.156311,327
844.274292,318
844.392395,310
844.510376,318
844.628357,341
844.74646,310
844.864441,310
844.982422,310
845.100403,313
845.218384,323
845.336426,317
845.454468,312
845.572449,315
845.69043,314
845.808411,316
845.926453,310
846.044373,325
846.162354,316
846.280396,316
846.398315,317
846.516296,314
846.634216,319
846.752197,315
846.870178,309
846.988098,317
847.106079,303
847.22406,315
847.34198,318
847.4599,322
847.577881,326
847.695801,330
847.813782,304
847.931641,308
848.049561,315
848.167603,329
848.285461,315
848.403381,310
848.521362,321
848.639221,327
848.75708,313
848.875,310
848.99292,319
849.110901,334
849.22876,304
849.34668,313
849.464539,317
849.582458,324
849.700317,318
849.818176,317
849.936096,308
850.053955,328
850.171875,316
850.289673,321
850.407593,309
850.525452,323
850.643311,320
850.761169,304
850.878967,318
850.996887,322
851.114746,328
851.232544,318
851.350403,312
851.468262,321
851.58606,326
851.703979,311
851.821777,309
851.939636,326
852.057434,311
852.175232,306
852.293091,317
852.410889,309
852.528687,314
852.646545,323
852.764343,319
852.88208,324
852.999939,314
853.117676,320
853.235535,327
853.353271,321
853.471069,309
853.588928,319
853.706604,311
853.824402,324
853.9422,303
854.059998,317
854.177734,302
854.295532,325
854.413269,317
854.531006,320
854.648804,311
854.766541,319
854.884277,320
855.002014,323
855.119751,296
855.237549,317
855.355225,306
855.473022,306
855.590698,313
855.708435,320
855.826172,330
855.943848,326
856.061646,314
856.179321,321
856.296997,305
856.414795,320
856.53241,318
856.650085,313
856.767822,313
856.885559,325
857.003174,326
857.120911,314
857.238586,317
857.356201,322
857.473938,318
857.591614,319
857.709351,311
857.826965,322
857.944641,319
858.062317,333
858.179993,324
858.297668,317
858.415283,314
858.532959,316
858.650574,309
858.768188,325
858.885803,310
859.003479,315
859.121094,301
859.23877,312
859.356384,326
859.473999,327
859.591675,322
859.709229,318
859.826843,313
859.944458,306
860.062012,312
860.179626,315
860.297302,325
860.414856,326
860.532471,316
860.650024,320
860.767639,320
860.885193,320
861.002808,313
861.120361,313
861.237976,315
861.35553,325
861.473022,309
861.590698,316
861.708191,323
861.825745,321
861.943298,313
862.060852,319
862.178406,310
862.295959,326
862.413513,315
862.531006,306
862.64856,312
862.766113,319
862.883667,318
863.00116,335
863.118713,322
863.236206,314
863.353699,312
863.471252,319
863.588745,307
863.706177,303
863.82373,318
863.941162,314
864.058716,322
864.176208,328
864.29364,309
864.411194,316
864.528687,305
864.646118,317
864.763611,314
864.881042,329
864.998535,312
865.116028,316
865.233459,309
865.350891,323
865.468384,300
865.585754,318
865.703308,312
865.820679,322
865.938171,310
866.055542,320
866.173035,324
866.290466,316
866.407837,317
866.52533,333
866.6427,330
866.760071,319
866.877563,300
866.994934,325
867.112305,307
867.229736,319
867.347107,324
867.464539,314
867.58197,311
867.699341,329
867.81665,314
867.934082,323
868.051453,317
868.168823,321
868.286194,311
868.403564,322
868.520935,321
868.638306,337
868.755676,312
868.872986,301
868.990295,320
869.107727,322
869.225037,304
869.342346,316
869.459717,317
869.577026,317
869.694336,322
869.811707,319
869.929016,329
870.046326,319
870.163635,310
870.280945,316
870.398254,304
870.515564,323
870.632812,332
870.750183,321
870.867432,317
870.984741,320
871.102051,315
871.219299,326
871.336609,311
871.453918,326
871.571106,329
871.688416,315
871.805664,323
871.922852,328
872.040222,317
872.157471,321
872.274719,309
872.391968,321
872.509155,310
872.626465,329
872.743652,312
872.860962,323
872.978149,299
873.095337,315
873.212646,332
873.329834,315
873.44696,312
873.564209,326
873.681396,321
873.798645,323
873.915894,310
874.03302,328
874.150208,338
874.267456,308
874.384583,318
874.501831,320
874.618958,319
874.736145,320
874.853333,305
874.970459,336
875.087646,319
875.204834,320
875.32196,318
875.439148,339
875.556274,313
875.673401,319
875.790527,317
875.907715,319
876.024841,315
876.141968,313
876.259094,312
876.376282,317
876.493347,314
876.610474,322
876.7276,315
876.844727,316
876.961853,320
877.078918,323
877.195984,314
877.313171,325
877.430237,305
877.547302,323
877.664368,303
877.781433,329
877.898499,320
878.015625,310
878.13269,319
878.249695,333
878.366821,310
878.483887,316
878.600952,320
878.717957,325
878.834961,302
878.952087,312
879.069092,319
879.186157,312
879.303162,317
879.420227,312
879.537231,314
879.654236,326
879.77124,304
879.888306,318
880.005249,319
880.122314,317
880.239319,325
880.356323,306
880.473328,309
880.590271,310
880.707275,305
880.824341,327
880.941284,319
881.058228,317
881.175232,325
881.292236,319
881.40918,320
881.526123,314
881.643066,305
881.760071,324
881.877014,305
881.993958,313
882.11084,295
882.227783,319
882.344727,322
882.46167,326
882.578613,317
882.695618,306
882.812439,322
882.929382,321
883.046326,308
883.163208,323
883.280151,314
883.397034,334
883.513916,315
883.630798,326
883.747742,320
883.864563,328
883.981506,313
884.098389,315
884.21521,311
884.332153,322
884.448975,304
884.565796,306
884.682678,316
884.7995,322
884.916443,308
885.033264,308
885.150085,318
885.266968,324
885.383789,319
885.500671,320
885.617493,322
885.734314,317
885.851196,313
885.967896,315
886.084717,324
886.201599,318
886.318359,326
886.435181,321
886.552002,306
886.668762,326
886.785645,313
886.902344,318
887.019165,305
887.135925,329
887.252747,314
887.369446,328
887.486267,310
887.603027,315
887.719788,306
887.836548,324
887.953247,316
888.070068,336
888.186829,311
888.303528,321
888.420288,306
888.536987,313
888.653687,318
888.770447,320
888.887146,316
889.003967,329
889.120667,324
889.237305,320
889.354065,309
889.470703,321
889.587463,308
889.704163,309
889.820862,317
889.937561,318
890.054199,315
890.170837,317
890.287598,302
890.404236,326
890.520874,322
890.637634,318
890.754211,316
890.87085,328
890.987549,312
891.104187,310
891.220886,324
891.337463,328
891.454102,310
891.57074,314
891.687378,312
891.804077,325
891.920654,315
892.037231,321
892.15387,324
892.270447,318
892.387085,310
892.503723,324
892.6203,307
892.736877,308
892.853516,313
892.970032,310
893.08667,310
893.203186,303
893.319763,317
893.43634,326
893.552917,322
893.669556,329
893.786011,309
893.902588,320
894.019165,303
894.135681,322
894.252197,317
894.368835,311
894.485291,315
894.601868,306
894.718384,314
894.8349,331
894.951355,306
895.067932,322
895.184448,318
895.300964,311
895.417419,312
895.533936,325
895.650452,326
895.766907,316
895.883423,306
895.999878,317
896.116333,313
896.232849,321
896.349304,316
896.465759,320
896.582214,312
896.698669,317
896.815125,309
896.931641,331
897.048035,316
897.164551,324
897.280884,319
897.397339,323
897.513794,316
897.630249,313
897.746582,322
897.863098,315
897.979431,305
898.095886,314
898.212341,316
898.328674,318
898.445129,309
898.561462,319
898.677795,318
898.794312,310
898.910645,321
899.026978,317
899.143433,319
899.259766,318
899.37616,314
899.492493,327
899.608765,320
899.725159,313
899.841553,312
899.957947,314
900.07428,325
900.190552,328
900.306946,302
900.423157,317
900.53949,309
900.655884,307
900.772156,316
900.888489,321
901.004822,307
901.121033,325
901.237366,330
901.353699,298
901.46991,305
901.586304,332
901.702515,303
901.818787,322
901.93512,313
902.051331,307
902.167603,309
902.283875,315
902.400085,316
902.516418,313
902.632629,316
902.74884,314
902.865112,313
902.981384,328
903.097595,316
903.213867,338
903.330017,321
903.446289,317
903.5625,317
903.67865,316
903.794922,320
903.911072,319
904.027344,315
904.143494,316
904.259705,313
904.375916,319
904.492065,325
904.608215,324
904.724426,318
904.840576,311
904.956726,317
905.072876,321
905.189087,306
905.305176,316
905.421387,311
905.537537,321
905.653687,313
905.769775,314
905.885925,320
906.002014,317
906.118164,318
906.234314,323
906.350403,298
906.466492,313
906.582642,321
906.69873,321
906.814758,311
906.930908,327
907.046936,325
907.163086,330
907.279175,320
907.395264,324
907.511353,319
907.62738,317
907.743408,314
907.859497,314
907.975525,316
908.091553,316
908.207703,312
908.32373,316
908.439758,304
908.555786,326
908.671814,315
908.787842,316
908.90387,302
909.019775,316
909.135864,321
909.251892,319
909.367859,307
909.483826,309
909.599854,321
909.715881,322
909.831848,308
909.947815,314
910.063782,300
910.179749,329
910.295776,322
910.411743,315
910.527649,313
910.643616,323
910.759583,315
910.875488,326
910.991455,309
911.107361,312
911.223267,310
911.339294,321
911.4552,307
911.571106,319
911.687073,307
911.802979,316
911.918823,290
912.034729,319
912.150635,319
912.266602,310
912.382446,316
912.498352,322
912.614197,315
912.730103,307
912.846008,310
792.44574,315
792.56488,375
792.68396,403
792.80304,382
792.92218,336
793.041199,312
793.160339,337
793.279419,343
793.398499,335
793.517578,326
793.636658,330
793.755737,338
793.874817,360
793.993896,359
794.112976,344
794.232056,333
794.351074,327
794.470215,334
794.589233,338
794.708313,329
794.827393,322
794.946411,339
795.065552,337
795.18457,347
795.303589,345
795.422668,335
795.541687,340
795.660767,330
795.779846,333
795.898865,331
796.017883,336
796.136963,345
796.255981,323
796.375061,345
796.49408,343
796.613037,317
796.732117,337
796.851135,345
796.970154,337
797.089233,342
797.208191,312
797.327271,337
797.446228,331
797.565186,328
797.684265,331
797.803223,330
797.922241,333
798.04126,317
798.160278,340
798.279297,332
798.398315,331
798.517273,331
798.636292,334
798.75531,327
798.874268,328
798.993286,329
799.112244,333
799.231323,337
799.350281,327
799.469238,334
799.588257,327
799.707153,325
799.826111,317
799.945129,333
800.064087,320
800.183044,338
800.302063,333
800.421021,321
800.539978,319
800.658936,324
800.777893,350
800.896912,322
801.015747,331
801.134705,335
801.253723,328
801.37262,334
801.491638,326
801.610535,320
801.729492,325
801.84845,340
801.967407,327
802.086243,338
802.205261,325
802.324158,321
802.443115,337
802.562073,341
802.680969,325
802.799927,335
802.918762,320
803.037659,314
803.156677,327
803.275574,326
803.39447,310
803.513428,322
803.632263,339
803.751221,330
803.870117,316
803.989014,316
804.107971,320
804.226746,333
804.345642,328
804.4646,325
804.583496,331
804.702393,317
804.821228,324
804.940125,316
805.059021,329
805.177917,334
805.296814,318
805.415649,330
805.534546,323
805.653442,324
805.772278,335
805.891113,328
806.01001,332
806.128906,326
806.247742,343
806.366577,329
806.485413,325
806.604309,335
806.723145,336
806.84198,342
806.960876,320
807.079712,331
807.198486,320
807.317383,318
807.436218,320
807.554993,326
807.673889,331
807.792725,330
807.91156,330
808.030396,343
808.14917,332
808.268005,322
808.386841,338
808.505676,315
808.624451,318
808.743286,334
808.862122,317
808.980896,332
809.099731,329
809.218506,328
809.337341,325
809.456116,327
809.57489,338
809.693726,319
809.8125,336
809.931274,327
810.050049,340
810.168884,327
810.287659,328
810.406372,320
810.525269,329
810.643982,328
810.762756,327
810.881531,321
811.000305,340
811.11908,325
811.237854,322
811.356567,336
811.475403,333
811.594116,334
811.71283,338
811.831604,331
811.950378,338
812.069153,334
812.187927,331
812.30658,332
812.425415,336
812.544128,340
812.662781,329
812.781616,329
812.900269,319
813.019043,334
813.137756,335
813.256531,320
813.375244,339
813.493896,328
813.612671,327
813.731384,342
813.850037,330
813.96875,335
814.087524,321
814.206238,328
814.324951,325
814.443604,331
814.562256,329
814.68103,318
814.799683,323
814.918335,355
815.037109,327
815.155762,334
815.274475,330
815.393188,321
815.511841,328
815.630554,309
815.749146,334
815.867859,312
815.986572,322
816.105164,328
816.223877,328
816.342529,330
816.461182,333
816.579895,339
816.698486,343
816.817139,328
816.935791,331
817.054504,316
817.173096,336
817.291748,327
817.4104,329
817.529053,325
817.647644,317
817.766235,327
817.884949,328
818.00354,331
818.122192,334
818.240845,323
818.359436,320
818.478088,319
818.59668,320
818.715271,325
818.833923,329
818.952515,310
819.071106,326
819.189758,318
819.30835,312
819.426941,314
819.545532,317
819.664124,322
819.782715,313
819.901306,328
820.019897,312
820.138489,322
820.25708,309
820.375671,324
820.494202,319
820.612732,320
820.731384,326
820.849915,321
820.968506,315
821.087097,326
821.205627,320
821.324158,306
821.442749,328
821.561279,302
821.679871,316
821.798401,326
821.916931,315
822.035461,309
822.154053,318
822.272583,336
822.391174,313
822.509583,303
822.628174,319
822.746704,319
822.865234,328
822.983765,331
823.102295,320
823.220825,315
823.339294,314
823.457825,309
823.576355,316
823.694824,321
823.813354,330
823.931885,316
824.050354,316
824.168884,318
824.287354,310
824.405823,318
824.524353,323
824.642822,328
824.761353,311
824.879822,328
824.998291,315
825.116699,323
825.235291,326
825.353699,320
825.472168,321
825.590637,336
825.709106,327
825.827576,326
825.946045,323
826.064453,325
826.182983,320
826.301392,319
826.4198,328
826.53833,319
826.656738,316
826.775208,322
826.893677,315
827.012024,309
827.130493,309
827.248962,322
827.36731,317
827.485779,309
827.604248,320
827.722595,313
827.841064,314
827.959412,322
828.077942,320
828.196289,316
828.314636,323
828.433105,322
828.551514,316
828.669861,317
828.78833,315
828.906677,313
829.025085,332
829.143433,321
829.261841,310
829.38031,321
829.498657,325
829.617004,309
829.735413,327
829.85376,315
829.972107,323
830.090515,318
830.208862,315
830.327209,307
830.445557,314
830.563904,312
830.682312,305
830.800659,314
830.919006,321
831.037354,311
831.155701,325
831.274048,312
831.392395,315
831.51062,313
831.629028,317
831.747314,311
831.865662,309
831.984009,323
832.102356,308
832.220642,311
832.338928,324
832.457275,325
832.575623,335
832.693909,315
832.812134,330
832.930481,322
833.048828,321
833.167114,323
833.2854,317
833.403687,313
833.521973,336
833.640259,308
833.758545,312
833.876831,317
833.995056,320
834.113281,315
834.231628,327
834.349915,318
834.468201,332
834.586426,308
834.704651,317
834.822998,318
834.941162,310
835.059448,314
835.177673,316
835.295959,327
835.414246,321
835.53241,318
835.650635,315
835.768921,297
835.887146,323
836.005371,331
836.123596,312
836.241821,315
836.360046,321
836.478271,315
836.596497,323
836.714722,321
836.832886,319
836.95105,314
837.069336,313
837.1875,310
837.305725,317
837.423889,308
837.542053,314
837.660339,313
837.778503,307
837.896667,315
838.014832,315
838.132996,309
838.25116,326
838.369385,309
838.487488,325
838.605713,310
838.723877,319
838.84198,326
838.960205,314
839.078308,311
839.196472,328
839.314636,333
839.4328,311
839.550964,306
839.669067,334
839.787231,326
839.905396,315
840.023499,315
840.141602,324
840.259766,319
840.377869,328
840.495972,316
840.614136,316
840.732239,320
840.850342,325
840.968445,309
841.086548,311
841.204651,320
841.322754,313
841.440918,307
841.55896,326
841.677002,314
841.795166,315
841.913208,315
842.031311,326
842.149353,317
842.267456,313
842.385498,311
842.503601,329
842.621643,310
842.739746,308
842.857788,314
842.97583,322
843.093933,313
843.211975,320
843.330017,318
843.44812,327
843.566101,309
843.684204,306
843.802246,314
843.920227,307
844.038269,333
844.156311,329
844.274292,318
844.392395,316
844.510376,325
844.628357,314
844.74646,324
844.864441,309
844.982422,314
845.100403,319
845.218384,321
845.336426,332
845.454468,315
845.572449,328
845.69043,315
845.808411,313
845.926453,314
846.044373,317
846.162354,318
846.280396,330
846.398315,315
846.516296,331
846.634216,298
846.752197,327
846.870178,314
846.988098,329
847.106079,314
847.22406,335
847.34198,318
847.4599,324
847.577881,315
847.695801,314
847.813782,329
847.931641,327
848.049561,300
848.167603,328
848.285461,328
848.403381,325
848.521362,317
848.639221,323
848.75708,319
848.875,324
848.99292,324
849.110901,325
849.22876,304
849.34668,321
849.464539,304
849.582458,316
849.700317,318
849.818176,306
849.936096,310
850.053955,324
850.171875,309
850.289673,316
850.407593,307
850.525452,321
850.643311,297
850.761169,317
850.878967,315
850.996887,324
851.114746,304
851.232544,322
851.350403,313
851.468262,321
851.58606,332
851.703979,328
851.821777,315
851.939636,309
852.057434,320
852.175232,320
852.293091,318
852.410889,330
852.528687,320
852.646545,318
852.764343,316
852.88208,321
852.999939,323
853.117676,318
853.235535,323
853.353271,324
853.471069,312
853.588928,334
853.706604,304
853.824402,316
853.9422,320
854.059998,307
854.177734,317
854.295532,311
854.413269,326
854.531006,326
854.648804,321
854.766541,324
854.884277,314
855.002014,332
855.119751,314
855.237549,316
855.355225,318
855.473022,315
855.590698,316
855.708435,325
855.826172,305
855.943848,324
856.061646,304
856.179321,329
856.296997,308
856.414795,320
856.53241,313
856.650085,325
856.767822,312
856.885559,310
857.003174,322
857.120911,326
857.238586,308
857.356201,311
857.473938,324
857.591614,316
857.709351,322
857.826965,326
857.944641,318
858.062317,324
858.179993,306
858.297668,325
858.415283,324
858.532959,320
858.650574,332
858.768188,312
858.885803,309
859.003479,329
859.121094,315
859.23877,321
859.356384,316
859.473999,313
859.591675,323
859.709229,325
859.826843,321
859.944458,329
860.062012,316
860.179626,320
860.297302,315
860.414856,321
860.532471,304
860.650024,323
860.767639,318
860.885193,320
861.002808,320
861.120361,322
861.237976,312
861.35553,330
861.473022,317
861.590698,315
861.708191,307
861.825745,323
861.943298,323
862.060852,314
862.178406,313
862.295959,306
862.413513,320
862.531006,317
862.64856,314
862.766113,317
862.883667,305
863.00116,328
863.118713,325
863.236206,315
863.353699,318
863.471252,328
863.588745,314
863.706177,320
863.82373,325
863.941162,323
864.058716,320
864.176208,321
864.29364,304
864.411194,314
864.528687,310
864.646118,328
864.763611,309
864.881042,322
864.998535,307
865.116028,321
865.233459,310
865.350891,323
865.468384,311
865.585754,323
865.703308,319
865.820679,331
865.938171,313
866.055542,324
866.173035,308
866.290466,337
866.407837,325
866.52533,310
866.6427,323
866.760071,313
866.877563,315
866.994934,329
867.112305,311
867.229736,323
867.347107,312
867.464539,306
867.58197,311
867.699341,326
867.81665,315
867.934082,314
868.051453,311
868.168823,319
868.286194,314
868.403564,337
868.520935,320
868.638306,326
868.755676,311
868.872986,321
868.990295,327
869.107727,325
869.225037,313
869.342346,331
869.459717,321
869.577026,331
869.694336,312
869.811707,323
869.929016,314
870.046326,332
870.163635,328
870.280945,317
870.398254,325
870.515564,330
870.632812,325
870.750183,326
870.867432,311
870.984741,329
871.102051,310
871.219299,315
871.336609,315
871.453918,319
871.571106,317
871.688416,324
871.805664,312
871.922852,329
872.040222,319
872.157471,321
872.274719,316
872.391968,326
872.509155,314
872.626465,330
872.743652,319
872.860962,316
872.978149,310
873.095337,325
873.212646,312
873.329834,321
873.44696,316
873.564209,318
873.681396,322
873.798645,324
873.915894,312
874.03302,312
874.150208,317
874.267456,317
874.384583,310
874.501831,326
874.618958,314
874.736145,328
874.853333,318
874.970459,325
875.087646,320
875.204834,326
875.32196,326
875.439148,321
875.556274,328
875.673401,326
875.790527,326
875.907715,316
876.024841,300
876.141968,317
876.259094,309
876.376282,313
876.493347,321
876.610474,319
876.7276,316
876.844727,313
876.961853,314
877.078918,319
877.195984,316
877.313171,329
877.430237,327
877.547302,317
877.664368,304
877.781433,323
877.898499,313
878.015625,318
878.13269,310
878.249695,316
878.366821,332
878.483887,316
878.600952,331
878.717957,332
878.834961,317
878.952087,319
879.069092,314
879.186157,321
879.303162,308
879.420227,327
879.537231,315
879.654236,312
879.77124,325
879.888306,316
880.005249,312
880.122314,316
880.239319,320
880.356323,314
880.473328,318
880.590271,326
880.707275,299
880.824341,315
880.941284,315
881.058228,318
881.175232,312
881.292236,321
881.40918,302
881.526123,329
881.643066,331
881.760071,322
881.877014,312
881.993958,328
882.11084,311
882.227783,323
882.344727,310
882.46167,323
882.578613,315
882.695618,323
882.812439,324
882.929382,328
883.046326,301
883.163208,310
883.280151,329
883.397034,317
883.513916,314
883.630798,315
883.747742,322
883.864563,312
883.981506,314
884.098389,325
884.21521,311
884.332153,333
884.448975,318
884.565796,317
884.682678,319
884.7995,326
884.916443,328
885.033264,326
885.150085,314
885.266968,338
885.383789,323
885.500671,309
885.617493,315
885.734314,334
885.851196,318
885.967896,323
886.084717,315
886.201599,319
886.318359,321
886.435181,317
886.552002,303
886.668762,322
886.785645,308
886.902344,316
887.019165,317
887.135925,329
887.252747,327
887.369446,329
887.486267,308
887.603027,311
887.719788,310
887.836548,321
887.953247,310
888.070068,314
888.186829,317
888.303528,296
888.420288,317
888.536987,307
888.653687,325
888.770447,304
888.887146,325
889.003967,328
889.120667,315
889.237305,314
889.354065,311
889.470703,316
889.587463,317
889.704163,322
889.820862,319
889.937561,322
890.054199,315
890.170837,329
890.287598,299
890.404236,313
890.520874,329
890.637634,313
890.754211,318
890.87085,335
890.987549,310
891.104187,326
891.220886,324
891.337463,327
891.454102,315
891.57074,320
891.687378,315
891.804077,330
891.920654,322
892.037231,323
892.15387,316
892.270447,331
892.387085,308
892.503723,315
892.6203,315
892.736877,314
892.853516,308
892.970032,310
893.08667,322
893.203186,311
893.319763,321
893.43634,329
893.552917,319
893.669556,325
893.786011,313
893.902588,322
894.019165,308
894.135681,331
894.252197,309
894.368835,317
894.485291,310
894.601868,321
894.718384,316
894.8349,311
894.951355,309
895.067932,327
895.184448,316
895.300964,322
895.417419,312
895.533936,321
895.650452,322
895.766907,314
895.883423,324
895.999878,320
896.116333,312
896.232849,316
896.349304,319
896.465759,319
896.582214,327
896.698669,324
896.815125,306
896.931641,328
897.048035,309
897.164551,318
897.280884,322
897.397339,317
897.513794,313
897.630249,332
897.746582,314
897.863098,338
897.979431,311
898.095886,312
898.212341,323
898.328674,320
898.445129,319
898.561462,323
898.677795,315
898.794312,309
898.910645,301
899.026978,334
899.143433,308
899.259766,327
899.37616,319
899.492493,319
899.608765,291
899.725159,321
899.841553,314
899.957947,321
900.07428,317
900.190552,333
900.306946,321
900.423157,312
900.53949,317
900.655884,317
900.772156,316
900.888489,325
901.004822,318
901.121033,320
901.237366,315
901.353699,329
901.46991,320
901.586304,313
901.702515,308
901.818787,325
901.93512,318
902.051331,321
902.167603,324
902.283875,322
902.400085,329
902.516418,324
902.632629,313
902.74884,334
902.865112,316
902.981384,330
903.097595,327
903.213867,311
903.330017,313
903.446289,323
903.5625,311
903.67865,320
903.794922,329
903.911072,319
904.027344,306
904.143494,324
904.259705,316
904.375916,327
904.492065,312
904.608215,322
904.724426,316
904.840576,327
904.956726,326
905.072876,313
905.189087,325
905.305176,326
905.421387,310
905.537537,328
905.653687,313
905.769775,330
905.885925,314
906.002014,332
906.118164,302
906.234314,328
906.350403,312
906.466492,316
906.582642,323
906.69873,323
906.814758,314
906.930908,328
907.046936,318
907.163086,315
907.279175,314
907.395264,324
907.511353,314
907.62738,324
907.743408,295
907.859497,324
907.975525,313
908.091553,313
908.207703,313
908.32373,330
908.439758,311
908.555786,315
908.671814,321
908.787842,319
908.90387,312
909.019775,317
909.135864,315
909.251892,319
909.367859,321
909.483826,321
909.599854,306
909.715881,325
909.831848,312
909.947815,326
910.063782,318
910.179749,319
910.295776,326
910.411743,322
910.527649,323
910.643616,322
910.759583,323
910.875488,326
910.991455,310
911.107361,317
911.223267,315
911.339294,325
911.4552,323
911.571106,314
911.687073,306
911.802979,331
911.918823,314
912.034729,319
912.150635,316
912.266602,319
912.382446,314
912.498352,327
912.614197,320
912.730103,328
912.846008,313
