792.44574,303
792.56488,338
792.68396,392
792.80304,367
792.92218,328
793.041199,316
793.160339,305
793.279419,335
793.398499,334
793.517578,312
793.636658,309
793.755737,317
793.874817,356
793.993896,334
794.112976,328
794.232056,317
794.351074,322
794.470215,328
794.589233,329
794.708313,327
794.827393,318
794.946411,319
795.065552,337
795.18457,334
795.303589,313
795.422668,314
795.541687,326
795.660767,330
795.779846,310
795.898865,322
796.017883,318
796.136963,335
796.255981,323
796.375061,337
796.49408,335
796.613037,308
796.732117,325
796.851135,323
796.970154,310
797.089233,333
797.208191,311
797.327271,324
797.446228,324
797.565186,327
797.684265,324
797.803223,335
797.922241,319
798.04126,323
798.160278,322
798.279297,312
798.398315,326
798.517273,338
798.636292,335
798.75531,330
798.874268,315
798.993286,328
799.112244,316
799.231323,320
799.350281,321
799.469238,314
799.588257,311
799.707153,318
799.826111,327
799.945129,309
800.064087,333
800.183044,321
800.302063,314
800.421021,321
800.539978,316
800.658936,320
800.777893,330
800.896912,319
801.015747,325
801.134705,299
801.253723,314
801.37262,311
801.491638,325
801.610535,315
801.729492,321
801.84845,326
801.967407,313
802.086243,305
802.205261,309
802.324158,321
802.443115,325
802.562073,321
802.680969,318
802.799927,323
802.918762,316
803.037659,325
803.156677,326
803.275574,322
803.39447,323
803.513428,321
803.632263,323
803.751221,323
803.870117,301
803.989014,325
804.107971,314
804.226746,328
804.345642,311
804.4646,323
804.583496,315
804.702393,323
804.821228,321
804.940125,324
805.059021,319
805.177917,305
805.296814,311
805.415649,330
805.534546,324
805.653442,313
805.772278,319
805.891113,333
806.01001,327
806.128906,325
806.247742,332
806.366577,310
806.485413,307
806.604309,335
806.723145,306
806.84198,324
806.960876,320
807.079712,324
807.198486,321
807.317383,324
807.436218,320
807.554993,332
807.673889,315
807.792725,317
807.91156,326
808.030396,312
808.14917,318
808.268005,318
808.386841,316
808.505676,317
808.624451,325
808.743286,312
808.862122,314
808.980896,317
809.099731,322
809.218506,337
809.337341,314
809.456116,308
809.57489,320
809.693726,329
809.8125,324
809.931274,307
810.050049,326
810.168884,324
810.287659,304
810.406372,331
810.525269,333
810.643982,320
810.762756,320
810.881531,327
811.000305,319
811.11908,318
811.237854,325
811.356567,309
811.475403,317
811.594116,328
811.71283,323
811.831604,316
811.950378,326
812.069153,320
812.187927,313
812.30658,321
812.425415,322
812.544128,311
812.662781,320
812.781616,313
812.900269,309
813.019043,317
813.137756,320
813.256531,329
813.375244,315
813.493896,312
813.612671,320
813.731384,322
813.850037,311
813.96875,321
814.087524,312
814.206238,318
814.324951,320
814.443604,318
814.562256,301
814.68103,323
814.799683,311
814.918335,326
815.037109,318
815.155762,313
815.274475,324
815.393188,309
815.511841,324
815.630554,322
815.749146,321
815.867859,319
815.986572,317
816.105164,311
816.223877,311
816.342529,320
816.461182,313
816.579895,331
816.698486,314
816.817139,314
816.935791,320
817.054504,321
817.173096,326
817.291748,314
817.4104,318
817.529053,301
817.647644,326
817.766235,309
817.884949,304
818.00354,313
818.122192,315
818.240845,322
818.359436,314
818.478088,320
818.59668,313
818.715271,312
818.833923,317
818.952515,315
819.071106,309
819.189758,316
819.30835,308
819.426941,319
819.545532,302
819.664124,307
819.782715,319
819.901306,327
820.019897,328
820.138489,311
820.25708,321
820.375671,328
820.494202,313
820.612732,324
820.731384,313
820.849915,309
820.968506,328
821.087097,329
821.205627,302
821.324158,314
821.442749,314
821.561279,333
821.679871,305
821.798401,325
821.916931,319
822.035461,308
822.154053,327
822.272583,314
822.391174,311
822.509583,316
822.628174,314
822.746704,312
822.865234,319
822.983765,316
823.102295,308
823.220825,324
823.339294,308
823.457825,316
823.576355,326
823.694824,318
823.813354,303
823.931885,324
824.050354,304
824.168884,315
824.287354,314
824.405823,316
824.524353,313
824.642822,321
824.761353,305
824.879822,306
824.998291,323
825.116699,317
825.235291,305
825.353699,332
825.472168,302
825.590637,314
825.709106,320
825.827576,307
825.946045,310
826.064453,300
826.182983,310
826.301392,316
826.4198,302
826.53833,311
826.656738,329
826.775208,333
826.893677,319
827.012024,306
827.130493,317
827.248962,317
827.36731,316
827.485779,318
827.604248,317
827.722595,312
827.841064,314
827.959412,324
828.077942,319
828.196289,317
828.314636,321
828.433105,321
828.551514,320
828.669861,318
828.78833,307
828.906677,324
829.025085,314
829.143433,326
829.261841,325
829.38031,310
829.498657,313
829.617004,313
829.735413,315
829.85376,314
829.972107,307
830.090515,328
830.208862,310
830.327209,309
830.445557,316
830.563904,314
830.682312,310
830.800659,305
830.919006,309
831.037354,307
831.155701,297
831.274048,306
831.392395,310
831.51062,321
831.629028,317
831.747314,317
831.865662,315
831.984009,312
832.102356,314
832.220642,310
832.338928,312
832.457275,310
832.575623,318
832.693909,306
832.812134,320
832.930481,311
833.048828,322
833.167114,317
833.2854,319
833.403687,312
833.521973,306
833.640259,318
833.758545,317
833.876831,316
833.995056,306
834.113281,308
834.231628,314
834.349915,323
834.468201,309
834.586426,315
834.704651,302
834.822998,325
834.941162,311
835.059448,319
835.177673,315
835.295959,321
835.414246,301
835.53241,306
835.650635,311
835.768921,312
835.887146,293
836.005371,324
836.123596,307
836.241821,319
836.360046,305
836.478271,314
836.596497,311
836.714722,318
836.832886,313
836.95105,311
837.069336,322
837.1875,307
837.305725,306
837.423889,323
837.542053,315
837.660339,323
837.778503,311
837.896667,317
838.014832,333
838.132996,307
838.25116,318
838.369385,321
838.487488,308
838.605713,325
838.723877,319
838.84198,314
838.960205,317
839.078308,307
839.196472,323
839.314636,327
839.4328,308
839.550964,310
839.669067,312
839.787231,306
839.905396,320
840.023499,322
840.141602,323
840.259766,317
840.377869,313
840.495972,310
840.614136,308
840.732239,322
840.850342,319
840.968445,335
841.086548,314
841.204651,310
841.322754,309
841.440918,329
841.55896,315
841.677002,314
841.795166,298
841.913208,303
842.031311,312
842.149353,318
842.267456,310
842.385498,298
842.503601,315
842.621643,316
842.739746,316
842.857788,315
842.97583,308
843.093933,323
843.211975,306
843.330017,317
843.44812,310
843.566101,308
843.684204,303
843.802246,315
843.920227,308
844.038269,335
844.156311,307
844.274292,329
844.392395,303
844.510376,320
844.628357,316
844.74646,320
844.864441,311
844.982422,328
845.100403,320
845.218384,299
845.336426,313
845.454468,313
845.572449,315
845.69043,328
845.808411,317
845.926453,310
846.044373,325
846.162354,313
846.280396,315
846.398315,310
846.516296,312
846.634216,299
846.752197,308
846.870178,330
846.988098,322
847.106079,304
847.22406,314
847.34198,322
847.4599,318
847.577881,317
847.695801,325
847.813782,316
847.931641,316
848.049561,306
848.167603,317
848.285461,319
848.403381,321
848.521362,308
848.639221,319
848.75708,319
848.875,313
848.99292,317
849.110901,313
849.22876,324
849.34668,311
849.464539,304
849.582458,312
849.700317,327
849.818176,325
849.936096,335
850.053955,316
850.171875,318
850.289673,302
850.407593,319
850.525452,313
850.643311,313
850.761169,307
850.878967,316
850.996887,321
851.114746,303
851.232544,308
851.350403,318
851.468262,311
851.58606,325
851.703979,320
851.821777,328
851.939636,314
852.057434,306
852.175232,318
852.293091,306
852.410889,316
852.528687,317
852.646545,314
852.764343,319
852.88208,313
852.999939,309
853.117676,315
853.235535,313
853.353271,295
853.471069,308
853.588928,316
853.706604,320
853.824402,320
853.9422,303
854.059998,319
854.177734,302
854.295532,313
854.413269,318
854.531006,310
854.648804,316
854.766541,309
854.884277,317
855.002014,311
855.119751,326
855.237549,311
855.355225,319
855.473022,323
855.590698,318
855.708435,311
855.826172,314
855.943848,307
856.061646,318
856.179321,307
856.296997,313
856.414795,311
856.53241,310
856.650085,306
856.767822,314
856.885559,323
857.003174,303
857.120911,311
857.238586,327
857.356201,304
857.473938,327
857.591614,316
857.709351,313
857.826965,303
857.944641,305
858.062317,320
858.179993,327
858.297668,313
858.415283,316
858.532959,308
858.650574,305
858.768188,319
858.885803,321
859.003479,320
859.121094,320
859.23877,316
859.356384,316
859.473999,303
859.591675,313
859.709229,305
859.826843,321
859.944458,302
860.062012,317
860.179626,306
860.297302,307
860.414856,297
860.532471,321
860.650024,323
860.767639,313
860.885193,329
861.002808,316
861.120361,327
861.237976,310
861.35553,319
861.473022,320
861.590698,314
861.708191,326
861.825745,308
861.943298,315
862.060852,302
862.178406,332
862.295959,306
862.413513,315
862.531006,307
862.64856,334
862.766113,317
862.883667,316
863.00116,316
863.118713,318
863.236206,311
863.353699,308
863.471252,317
863.588745,324
863.706177,314
863.82373,315
863.941162,315
864.058716,308
864.176208,309
864.29364,320
864.411194,301
864.528687,305
864.646118,313
864.763611,325
864.881042,314
864.998535,338
865.116028,318
865.233459,321
865.350891,313
865.468384,318
865.585754,318
865.703308,331
865.820679,308
865.938171,314
866.055542,321
866.173035,309
866.290466,319
866.407837,319
866.52533,329
866.6427,317
866.760071,302
866.877563,323
866.994934,314
867.112305,324
867.229736,311
867.347107,314
867.464539,310
867.58197,310
867.699341,313
867.81665,314
867.934082,297
868.051453,324
868.168823,317
868.286194,313
868.403564,323
868.520935,311
868.638306,316
868.755676,317
868.872986,316
868.990295,318
869.107727,326
869.225037,317
869.342346,305
869.459717,309
869.577026,322
869.694336,320
869.811707,318
869.929016,312
870.046326,308
870.163635,314
870.280945,317
870.398254,333
870.515564,313
870.632812,316
870.750183,319
870.867432,313
870.984741,321
871.102051,320
871.219299,319
871.336609,321
871.453918,313
871.571106,324
871.688416,310
871.805664,306
871.922852,323
872.040222,308
872.157471,301
872.274719,312
872.391968,312
872.509155,323
872.626465,305
872.743652,319
872.860962,316
872.978149,310
873.095337,315
873.212646,314
873.329834,333
873.44696,320
873.564209,308
873.681396,327
873.798645,320
873.915894,309
874.03302,327
874.150208,310
874.267456,322
874.384583,302
874.501831,312
874.618958,315
874.736145,300
874.853333,314
874.970459,307
875.087646,320
875.204834,314
875.32196,313
875.439148,315
875.556274,306
875.673401,317
875.790527,319
875.907715,315
876.024841,325
876.141968,315
876.259094,320
876.376282,309
876.493347,316
876.610474,313
876.7276,324
876.844727,308
876.961853,313
877.078918,314
877.195984,318
877.313171,308
877.430237,314
877.547302,305
877.664368,316
877.781433,306
877.898499,315
878.015625,307
878.13269,321
878.249695,308
878.366821,303
878.483887,310
878.600952,321
878.717957,310
878.834961,307
878.952087,311
879.069092,317
879.186157,324
879.303162,324
879.420227,317
879.537231,317
879.654236,309
879.77124,312
879.888306,319
880.005249,303
880.122314,315
880.239319,308
880.356323,309
880.473328,311
880.590271,305
880.707275,306
880.824341,302
880.941284,308
881.058228,317
881.175232,319
881.292236,321
881.40918,306
881.526123,325
881.643066,324
881.760071,293
881.877014,321
881.993958,310
882.11084,314
882.227783,314
882.344727,320
882.46167,301
882.578613,304
882.695618,300
882.812439,313
882.929382,307
883.046326,317
883.163208,306
883.280151,308
883.397034,306
883.513916,321
883.630798,331
883.747742,321
883.864563,314
883.981506,320
884.098389,316
884.21521,324
884.332153,317
884.448975,320
884.565796,315
884.682678,305
884.7995,312
884.916443,305
885.033264,321
885.150085,328
885.266968,300
885.383789,322
885.500671,319
885.617493,336
885.734314,295
885.851196,322
885.967896,311
886.084717,317
886.201599,319
886.318359,311
886.435181,314
886.552002,319
886.668762,315
886.785645,315
886.902344,315
887.019165,314
887.135925,311
887.252747,319
887.369446,316
887.486267,303
887.603027,308
887.719788,312
887.836548,314
887.953247,317
888.070068,321
888.186829,319
888.303528,311
888.420288,312
888.536987,316
888.653687,309
888.770447,309
888.887146,309
889.003967,322
889.120667,324
889.237305,326
889.354065,310
889.470703,303
889.587463,323
889.704163,319
889.820862,311
889.937561,310
890.054199,319
890.170837,311
890.287598,330
890.404236,305
890.520874,325
890.637634,318
890.754211,315
890.87085,301
890.987549,317
891.104187,312
891.220886,314
891.337463,308
891.454102,321
891.57074,315
891.687378,304
891.804077,315
891.920654,314
892.037231,316
892.15387,315
892.270447,318
892.387085,324
892.503723,307
892.6203,323
892.736877,309
892.853516,312
892.970032,306
893.08667,314
893.203186,313
893.319763,338
893.43634,319
893.552917,317
893.669556,302
893.786011,324
893.902588,319
894.019165,310
894.135681,313
894.252197,316
894.368835,320
894.485291,318
894.601868,311
894.718384,320
894.8349,323
894.951355,326
895.067932,314
895.184448,324
895.300964,305
895.417419,329
895.533936,317
895.650452,320
895.766907,306
895.883423,309
895.999878,319
896.116333,311
896.232849,323
896.349304,303
896.465759,308
896.582214,311
896.698669,325
896.815125,320
896.931641,315
897.048035,315
897.164551,313
897.280884,309
897.397339,302
897.513794,304
897.630249,321
897.746582,317
897.863098,317
897.979431,321
898.095886,309
898.212341,312
898.328674,313
898.445129,314
898.561462,316
898.677795,321
898.794312,330
898.910645,310
899.026978,311
899.143433,321
899.259766,309
899.37616,317
899.492493,310
899.608765,318
899.725159,317
899.841553,324
899.957947,312
900.07428,319
900.190552,324
900.306946,328
900.423157,309
900.53949,310
900.655884,319
900.772156,319
900.888489,312
901.004822,324
901.121033,318
901.237366,319
901.353699,314
901.46991,326
901.586304,322
901.702515,317
901.818787,308
901.93512,318
902.051331,313
902.167603,325
902.283875,318
902.400085,315
902.516418,315
902.632629,319
902.74884,315
902.865112,323
902.981384,314
903.097595,323
903.213867,305
903.330017,309
903.446289,308
903.5625,313
903.67865,314
903.794922,312
903.911072,307
904.027344,308
904.143494,311
904.259705,304
904.375916,312
904.492065,318
904.608215,318
904.724426,310
904.840576,317
904.956726,327
905.072876,315
905.189087,313
905.305176,317
905.421387,311
905.537537,312
905.653687,307
905.769775,312
905.885925,319
906.002014,313
906.118164,327
906.234314,317
906.350403,320
906.466492,325
906.582642,304
906.69873,318
906.814758,313
906.930908,323
907.046936,316
907.163086,302
907.279175,320
907.395264,317
907.511353,312
907.62738,317
907.743408,317
907.859497,320
907.975525,316
908.091553,315
908.207703,311
908.32373,327
908.439758,314
908.555786,323
908.671814,316
908.787842,308
908.90387,312
909.019775,319
909.135864,315
909.251892,324
909.367859,316
909.483826,319
909.599854,319
909.715881,315
909.831848,319
909.947815,305
910.063782,320
910.179749,323
910.295776,323
910.411743,312
910.527649,316
910.643616,318
910.759583,326
910.875488,311
910.991455,332
911.107361,314
911.223267,319
911.339294,314
911.4552,326
911.571106,302
911.687073,308
911.802979,317
911.918823,313
912.034729,313
912.150635,318
912.266602,318
912.382446,322
912.498352,318
912.614197,326
912.730103,313
912.846008,309
792.44574,309
792.56488,343
792.68396,395
792.80304,373
792.92218,345
793.041199,320
793.160339,329
793.279419,339
793.398499,331
793.517578,300
793.636658,320
793.755737,310
793.874817,357
793.993896,339
794.112976,320
794.232056,319
794.351074,315
794.470215,318
794.589233,332
794.708313,326
794.827393,322
794.946411,320
795.065552,330
795.18457,321
795.303589,324
795.422668,325
795.541687,318
795.660767,330
795.779846,323
795.898865,324
796.017883,332
796.136963,327
796.255981,332
796.375061,323
796.49408,323
796.613037,302
796.732117,334
796.851135,315
796.970154,328
797.089233,323
797.208191,337
797.327271,321
797.446228,321
797.565186,324
797.684265,328
797.803223,317
797.922241,322
798.04126,316
798.160278,332
798.279297,312
798.398315,324
798.517273,315
798.636292,326
798.75531,317
798.874268,331
798.993286,312
799.112244,318
799.231323,303
799.350281,322
799.469238,327
799.588257,322
799.707153,321
799.826111,312
799.945129,319
800.064087,320
800.183044,320
800.302063,324
800.421021,324
800.539978,335
800.658936,316
800.777893,325
800.896912,328
801.015747,321
801.134705,322
801.253723,311
801.37262,313
801.491638,323
801.610535,309
801.729492,310
801.84845,315
801.967407,328
802.086243,318
802.205261,322
802.324158,310
802.443115,328
802.562073,321
802.680969,327
802.799927,331
802.918762,325
803.037659,322
803.156677,335
803.275574,330
803.39447,312
803.513428,314
803.632263,330
803.751221,325
803.870117,310
803.989014,309
804.107971,320
804.226746,308
804.345642,326
804.4646,313
804.583496,303
804.702393,306
804.821228,313
804.940125,325
805.059021,321
805.177917,326
805.296814,323
805.415649,314
805.534546,312
805.653442,328
805.772278,318
805.891113,315
806.01001,339
806.128906,314
806.247742,324
806.366577,313
806.485413,312
806.604309,324
806.723145,309
806.84198,308
806.960876,327
807.079712,318
807.198486,326
807.317383,314
807.436218,324
807.554993,314
807.673889,328
807.792725,317
807.91156,322
808.030396,320
808.14917,324
808.268005,328
808.386841,321
808.505676,306
808.624451,327
808.743286,322
808.862122,315
808.980896,308
809.099731,327
809.218506,325
809.337341,311
809.456116,308
809.57489,319
809.693726,329
809.8125,332
809.931274,323
810.050049,322
810.168884,329
810.287659,333
810.406372,313
810.525269,327
810.643982,314
810.762756,319
810.881531,311
811.000305,324
811.11908,326
811.237854,327
811.356567,303
811.475403,301
811.594116,322
811.71283,329
811.831604,314
811.950378,312
812.069153,307
812.187927,316
812.30658,314
812.425415,318
812.544128,328
812.662781,323
812.781616,319
812.900269,306
813.019043,322
813.137756,323
813.256531,312
813.375244,315
813.493896,313
813.612671,326
813.731384,317
813.850037,323
813.96875,319
814.087524,317
814.206238,329
814.324951,314
814.443604,326
814.562256,326
814.68103,317
814.799683,334
814.918335,319
815.037109,332
815.155762,317
815.274475,319
815.393188,324
815.511841,314
815.630554,322
815.749146,319
815.867859,324
815.986572,320
816.105164,318
816.223877,311
816.342529,322
816.461182,312
816.579895,309
816.698486,328
816.817139,325
816.935791,318
817.054504,305
817.173096,328
817.291748,325
817.4104,323
817.529053,313
817.647644,323
817.766235,324
817.884949,327
818.00354,315
818.122192,309
818.240845,320
818.359436,323
818.478088,318
818.59668,328
818.715271,319
818.833923,314
818.952515,321
819.071106,317
819.189758,312
819.30835,314
819.426941,324
819.545532,324
819.664124,313
819.782715,317
819.901306,306
820.019897,318
820.138489,321
820.25708,318
820.375671,318
820.494202,322
820.612732,320
820.731384,317
820.849915,309
820.968506,311
821.087097,307
821.205627,306
821.324158,315
821.442749,309
821.561279,320
821.679871,324
821.798401,312
821.916931,326
822.035461,317
822.154053,318
822.272583,318
822.391174,323
822.509583,315
822.628174,327
822.746704,321
822.865234,326
822.983765,304
823.102295,316
823.220825,316
823.339294,326
823.457825,312
823.576355,312
823.694824,317
823.813354,306
823.931885,310
824.050354,319
824.168884,316
824.287354,319
824.405823,320
824.524353,310
824.642822,325
824.761353,313
824.879822,319
824.998291,310
825.116699,319
825.235291,321
825.353699,319
825.472168,326
825.590637,301
825.709106,312
825.827576,323
825.946045,302
826.064453,333
826.182983,323
826.301392,322
826.4198,320
826.53833,319
826.656738,342
826.775208,314
826.893677,317
827.012024,302
827.130493,312
827.248962,318
827.36731,300
827.485779,306
827.604248,325
827.722595,310
827.841064,319
827.959412,319
828.077942,324
828.196289,302
828.314636,319
828.433105,319
828.551514,309
828.669861,319
828.78833,311
828.906677,324
829.025085,314
829.143433,298
829.261841,316
829.38031,314
829.498657,313
829.617004,304
829.735413,322
829.85376,321
829.972107,306
830.090515,314
830.208862,323
830.327209,294
830.445557,318
830.563904,312
830.682312,312
830.800659,312
830.919006,337
831.037354,312
831.155701,325
831.274048,321
831.392395,310
831.51062,303
831.629028,320
831.747314,321
831.865662,300
831.984009,320
832.102356,312
832.220642,316
832.338928,324
832.457275,315
832.575623,309
832.693909,317
832.812134,324
832.930481,318
833.048828,316
833.167114,300
833.2854,312
833.403687,321
833.521973,315
833.640259,326
833.758545,308
833.876831,315
833.995056,324
834.113281,314
834.231628,314
834.349915,319
834.468201,301
834.586426,310
834.704651,321
834.822998,311
834.941162,306
835.059448,315
835.177673,314
835.295959,318
835.414246,318
835.53241,309
835.650635,319
835.768921,307
835.887146,321
836.005371,302
836.123596,322
836.241821,320
836.360046,320
836.478271,325
836.596497,320
836.714722,311
836.832886,323
836.95105,298
837.069336,311
837.1875,320
837.305725,318
837.423889,317
837.542053,312
837.660339,303
837.778503,314
837.896667,306
838.014832,336
838.132996,311
838.25116,315
838.369385,315
838.487488,320
838.605713,315
838.723877,325
838.84198,308
838.960205,299
839.078308,301
839.196472,321
839.314636,315
839.4328,321
839.550964,316
839.669067,316
839.787231,296
839.905396,324
840.023499,321
840.141602,312
840.259766,325
840.377869,320
840.495972,318
840.614136,318
840.732239,313
840.850342,331
840.968445,306
841.086548,323
841.204651,323
841.322754,312
841.440918,306
841.55896,333
841.677002,329
841.795166,325
841.913208,319
842.031311,330
842.149353,314
842.267456,311
842.385498,298
842.503601,318
842.621643,307
842.739746,317
842.857788,323
842.97583,303
843.093933,315
843.211975,322
843.330017,321
843.44812,313
843.566101,320
843.684204,316
843.802246,311
843.920227,322
844.038269,310
844.156311,319
844.274292,308
844.392395,320
844.510376,315
844.628357,314
844.74646,318
844.864441,327
844.982422,318
845.100403,316
845.218384,316
845.336426,323
845.454468,311
845.572449,319
845.69043,315
845.808411,322
845.926453,311
846.044373,315
846.162354,313
846.280396,320
846.398315,316
846.516296,316
846.634216,318
846.752197,315
846.870178,305
846.988098,315
847.106079,314
847.22406,317
847.34198,329
847.4599,319
847.577881,310
847.695801,326
847.813782,316
847.931641,330
848.049561,309
848.167603,308
848.285461,317
848.403381,322
848.521362,307
848.639221,316
848.75708,319
848.875,317
848.99292,326
849.110901,326
849.22876,309
849.34668,314
849.464539,310
849.582458,317
849.700317,312
849.818176,315
849.936096,317
850.053955,313
850.171875,309
850.289673,315
850.407593,318
850.525452,313
850.643311,317
850.761169,321
850.878967,301
850.996887,320
851.114746,315
851.232544,318
851.350403,308
851.468262,316
851.58606,309
851.703979,312
851.821777,316
851.939636,313
852.057434,317
852.175232,313
852.293091,328
852.410889,316
852.528687,318
852.646545,306
852.764343,316
852.88208,316
852.999939,311
853.117676,313
853.235535,307
853.353271,300
853.471069,321
853.588928,331
853.706604,327
853.824402,324
853.9422,314
854.059998,315
854.177734,323
854.295532,320
854.413269,315
854.531006,317
854.648804,307
854.766541,320
854.884277,329
855.002014,323
855.119751,295
855.237549,322
855.355225,327
855.473022,325
855.590698,325
855.708435,315
855.826172,314
855.943848,317
856.061646,311
856.179321,314
856.296997,319
856.414795,324
856.53241,312
856.650085,311
856.767822,319
856.885559,321
857.003174,318
857.120911,314
857.238586,315
857.356201,312
857.473938,314
857.591614,316
857.709351,310
857.826965,319
857.944641,315
858.062317,330
858.179993,324
858.297668,303
858.415283,317
858.532959,322
858.650574,322
858.768188,302
858.885803,315
859.003479,314
859.121094,306
859.23877,317
859.356384,333
859.473999,317
859.591675,302
859.709229,309
859.826843,318
859.944458,310
860.062012,318
860.179626,314
860.297302,330
860.414856,319
860.532471,316
860.650024,316
860.767639,290
860.885193,328
861.002808,316
861.120361,310
861.237976,309
861.35553,314
861.473022,307
861.590698,312
861.708191,306
861.825745,318
861.943298,299
862.060852,337
862.178406,317
862.295959,318
862.413513,307
862.531006,326
862.64856,314
862.766113,322
862.883667,310
863.00116,326
863.118713,315
863.236206,322
863.353699,313
863.471252,322
863.588745,311
863.706177,306
863.82373,325
863.941162,316
864.058716,322
864.176208,310
864.29364,312
864.411194,308
864.528687,303
864.646118,321
864.763611,312
864.881042,316
864.998535,316
865.116028,313
865.233459,311
865.350891,327
865.468384,302
865.585754,307
865.703308,313
865.820679,322
865.938171,321
866.055542,319
866.173035,315
866.290466,315
866.407837,310
866.52533,306
866.6427,315
866.760071,327
866.877563,320
866.994934,311
867.112305,311
867.229736,318
867.347107,306
867.464539,316
867.58197,323
867.699341,318
867.81665,316
867.934082,302
868.051453,312
868.168823,319
868.286194,320
868.403564,321
868.520935,317
868.638306,313
868.755676,303
868.872986,319
868.990295,307
869.107727,322
869.225037,311
869.342346,320
869.459717,330
869.577026,329
869.694336,314
869.811707,316
869.929016,311
870.046326,324
870.163635,314
870.280945,319
870.398254,320
870.515564,345
870.632812,311
870.750183,302
870.867432,317
870.984741,304
871.102051,319
871.219299,321
871.336609,303
871.453918,315
871.571106,320
871.688416,316
871.805664,318
871.922852,298
872.040222,312
872.157471,306
872.274719,304
872.391968,308
872.509155,303
872.626465,313
872.743652,300
872.860962,318
872.978149,310
873.095337,322
873.212646,323
873.329834,318
873.44696,308
873.564209,318
873.681396,320
873.798645,318
873.915894,313
874.03302,325
874.150208,321
874.267456,311
874.384583,323
874.501831,309
874.618958,314
874.736145,322
874.853333,322
874.970459,324
875.087646,302
875.204834,309
875.32196,314
875.439148,323
875.556274,310
875.673401,326
875.790527,311
875.907715,313
876.024841,310
876.141968,319
876.259094,302
876.376282,318
876.493347,316
876.610474,325
876.7276,303
876.844727,318
876.961853,315
877.078918,330
877.195984,309
877.313171,321
877.430237,315
877.547302,313
877.664368,318
877.781433,314
877.898499,315
878.015625,321
878.13269,312
878.249695,315
878.366821,317
878.483887,322
878.600952,304
878.717957,310
878.834961,302
878.952087,326
879.069092,316
879.186157,311
879.303162,305
879.420227,318
879.537231,314
879.654236,314
879.77124,317
879.888306,301
880.005249,310
880.122314,317
880.239319,304
880.356323,325
880.473328,310
880.590271,317
880.707275,323
880.824341,315
880.941284,306
881.058228,320
881.175232,300
881.292236,311
881.40918,308
881.526123,314
881.643066,309
881.760071,313
881.877014,300
881.993958,321
882.11084,305
882.227783,324
882.344727,312
882.46167,321
882.578613,320
882.695618,316
882.812439,307
882.929382,318
883.046326,312
883.163208,315
883.280151,299
883.397034,322
883.513916,311
883.630798,312
883.747742,321
883.864563,312
883.981506,320
884.098389,328
884.21521,302
884.332153,306
884.448975,304
884.565796,324
884.682678,311
884.7995,316
884.916443,307
885.033264,317
885.150085,305
885.266968,311
885.383789,314
885.500671,315
885.617493,311
885.734314,312
885.851196,315
885.967896,329
886.084717,319
886.201599,313
886.318359,316
886.435181,320
886.552002,315
886.668762,312
886.785645,311
886.902344,323
887.019165,305
887.135925,313
887.252747,317
887.369446,321
887.486267,304
887.603027,305
887.719788,337
887.836548,324
887.953247,310
888.070068,318
888.186829,317
888.303528,317
888.420288,316
888.536987,309
888.653687,327
888.770447,318
888.887146,310
889.003967,328
889.120667,311
889.237305,327
889.354065,314
889.470703,310
889.587463,317
889.704163,317
889.820862,311
889.937561,323
890.054199,307
890.170837,320
890.287598,320
890.404236,315
890.520874,313
890.637634,311
890.754211,303
890.87085,318
890.987549,309
891.104187,328
891.220886,310
891.337463,318
891.454102,314
891.57074,327
891.687378,314
891.804077,322
891.920654,318
892.037231,327
892.15387,316
892.270447,325
892.387085,320
892.503723,312
892.6203,318
892.736877,325
892.853516,322
892.970032,309
893.08667,329
893.203186,321
893.319763,324
893.43634,323
893.552917,309
893.669556,320
893.786011,309
893.902588,320
894.019165,311
894.135681,325
894.252197,305
894.368835,330
894.485291,327
894.601868,311
894.718384,313
894.8349,340
894.951355,312
895.067932,315
895.184448,317
895.300964,312
895.417419,315
895.533936,315
895.650452,312
895.766907,332
895.883423,316
895.999878,319
896.116333,298
896.232849,313
896.349304,323
896.465759,323
896.582214,304
896.698669,316
896.815125,299
896.931641,321
897.048035,315
897.164551,323
897.280884,302
897.397339,321
897.513794,314
897.630249,316
897.746582,294
897.863098,318
897.979431,311
898.095886,324
898.212341,321
898.328674,311
898.445129,302
898.561462,325
898.677795,312
898.794312,318
898.910645,316
899.026978,317
899.143433,301
899.259766,316
899.37616,316
899.492493,321
899.608765,318
899.725159,314
899.841553,307
899.957947,315
900.07428,314
900.190552,317
900.306946,311
900.423157,324
900.53949,313
900.655884,321
900.772156,314
900.888489,333
901.004822,319
901.121033,331
901.237366,318
901.353699,325
901.46991,323
901.586304,307
901.702515,316
901.818787,323
901.93512,310
902.051331,313
902.167603,312
902.283875,310
902.400085,321
902.516418,323
902.632629,309
902.74884,324
902.865112,310
902.981384,313
903.097595,302
903.213867,310
903.330017,320
903.446289,320
903.5625,307
903.67865,332
903.794922,319
903.911072,320
904.027344,308
904.143494,320
904.259705,313
904.375916,329
904.492065,317
904.608215,309
904.724426,307
904.840576,319
904.956726,325
905.072876,309
905.189087,316
905.305176,312
905.421387,315
905.537537,330
905.653687,321
905.769775,314
905.885925,313
906.002014,315
906.118164,321
906.234314,324
906.350403,312
906.466492,325
906.582642,314
906.69873,330
906.814758,310
906.930908,325
907.046936,313
907.163086,319
907.279175,321
907.395264,317
907.511353,322
907.62738,321
907.743408,304
907.859497,313
907.975525,323
908.091553,310
908.207703,319
908.32373,321
908.439758,322
908.555786,317
908.671814,319
908.787842,321
908.90387,304
909.019775,318
909.135864,309
909.251892,317
909.367859,328
909.483826,315
909.599854,317
909.715881,320
909.831848,313
909.947815,321
910.063782,316
910.179749,321
910.295776,306
910.411743,322
910.527649,318
910.643616,316
910.759583,338
910.875488,317
910.991455,309
911.107361,324
911.223267,310
911.339294,331
911.4552,314
911.571106,308
911.687073,307
911.802979,306
911.918823,325
912.034729,327
912.150635,299
912.266602,315
912.382446,312
912.498352,319
912.614197,319
912.730103,317
912.846008,317
792.44574,306
792.56488,346
792.68396,396
792.80304,367
792.92218,334
793.041199,319
793.160339,319
793.279419,351
793.398499,320
793.517578,325
793.636658,307
793.755737,332
793.874817,345
793.993896,346
794.112976,328
794.232056,315
794.351074,321
794.470215,327
794.589233,320
794.708313,306
794.827393,324
794.946411,326
795.065552,341
795.18457,334
795.303589,313
795.422668,336
795.541687,304
795.660767,320
795.779846,318
795.898865,331
796.017883,320
796.136963,333
796.255981,319
796.375061,312
796.49408,330
796.613037,323
796.732117,315
796.851135,330
796.970154,320
797.089233,324
797.208191,323
797.327271,329
797.446228,307
797.565186,329
797.684265,322
797.803223,328
797.922241,317
798.04126,342
798.160278,324
798.279297,316
798.398315,321
798.517273,322
798.636292,322
798.75531,328
798.874268,316
798.993286,314
799.112244,316
799.231323,309
799.350281,321
799.469238,331
799.588257,327
799.707153,330
799.826111,311
799.945129,336
800.064087,321
800.183044,318
800.302063,318
800.421021,325
800.539978,329
800.658936,324
800.777893,326
800.896912,301
801.015747,318
801.134705,312
801.253723,325
801.37262,330
801.491638,325
801.610535,331
801.729492,317
801.84845,318
801.967407,328
802.086243,322
802.205261,319
802.324158,321
802.443115,323
802.562073,334
802.680969,315
802.799927,323
802.918762,321
803.037659,331
803.156677,304
803.275574,320
803.39447,318
803.513428,336
803.632263,318
803.751221,326
803.870117,328
803.989014,325
804.107971,314
804.226746,332
804.345642,320
804.4646,316
804.583496,332
804.702393,310
804.821228,320
804.940125,331
805.059021,307
805.177917,311
805.296814,319
805.415649,317
805.534546,322
805.653442,306
805.772278,339
805.891113,309
806.01001,336
806.128906,320
806.247742,327
806.366577,314
806.485413,332
806.604309,325
806.723145,317
806.84198,326
806.960876,314
807.079712,319
807.198486,311
807.317383,334
807.436218,319
807.554993,332
807.673889,311
807.792725,312
807.91156,325
808.030396,322
808.14917,307
808.268005,328
808.386841,321
808.505676,324
808.624451,315
808.743286,314
808.862122,328
808.980896,329
809.099731,321
809.218506,329
809.337341,327
809.456116,325
809.57489,319
809.693726,323
809.8125,327
809.931274,321
810.050049,319
810.168884,311
810.287659,324
810.406372,317
810.525269,325
810.643982,329
810.762756,312
810.881531,320
811.000305,336
811.11908,326
811.237854,310
811.356567,309
811.475403,313
811.594116,317
811.71283,311
811.831604,320
811.950378,316
812.069153,319
812.187927,315
812.30658,316
812.425415,332
812.544128,320
812.662781,321
812.781616,327
812.900269,319
813.019043,333
813.137756,316
813.256531,313
813.375244,307
813.493896,333
813.612671,308
813.731384,334
813.850037,334
813.96875,325
814.087524,323
814.206238,312
814.324951,326
814.443604,313
814.562256,310
814.68103,323
814.799683,311
814.918335,324
815.037109,322
815.155762,311
815.274475,307
815.393188,317
815.511841,324
815.630554,328
815.749146,319
815.867859,329
815.986572,319
816.105164,316
816.223877,312
816.342529,313
816.461182,326
816.579895,313
816.698486,327
816.817139,318
816.935791,321
817.054504,325
817.173096,323
817.291748,325
817.4104,316
817.529053,317
817.647644,316
817.766235,327
817.884949,328
818.00354,319
818.122192,333
818.240845,329
818.359436,327
818.478088,320
818.59668,329
818.715271,316
818.833923,310
818.952515,301
819.071106,317
819.189758,309
819.30835,313
819.426941,316
819.545532,322
819.664124,314
819.782715,329
819.901306,321
820.019897,313
820.138489,313
820.25708,314
820.375671,321
820.494202,309
820.612732,327
820.731384,314
820.849915,322
820.968506,328
821.087097,309
821.205627,317
821.324158,328
821.442749,309
821.561279,319
821.679871,327
821.798401,327
821.916931,323
822.035461,316
822.154053,315
822.272583,325
822.391174,307
822.509583,320
822.628174,305
822.746704,330
822.865234,314
822.983765,315
823.102295,312
823.220825,327
823.339294,311
823.457825,322
823.576355,318
823.694824,310
823.813354,302
823.931885,317
824.050354,307
824.168884,314
824.287354,306
824.405823,318
824.524353,302
824.642822,310
824.761353,318
824.879822,321
824.998291,323
825.116699,315
825.235291,309
825.353699,323
825.472168,303
825.590637,326
825.709106,308
825.827576,319
825.946045,321
826.064453,328
826.182983,317
826.301392,321
826.4198,297
826.53833,308
826.656738,313
826.775208,325
826.893677,324
827.012024,314
827.130493,309
827.248962,334
827.36731,323
827.485779,312
827.604248,314
827.722595,318
827.841064,305
827.959412,315
828.077942,323
828.196289,317
828.314636,315
828.433105,310
828.551514,307
828.669861,321
828.78833,326
828.906677,305
829.025085,322
829.143433,326
829.261841,322
829.38031,313
829.498657,315
829.617004,315
829.735413,321
829.85376,319
829.972107,319
830.090515,319
830.208862,314
830.327209,324
830.445557,327
830.563904,324
830.682312,311
830.800659,308
830.919006,324
831.037354,305
831.155701,325
831.274048,308
831.392395,307
831.51062,330
831.629028,318
831.747314,323
831.865662,317
831.984009,314
832.102356,317
832.220642,311
832.338928,317
832.457275,322
832.575623,320
832.693909,317
832.812134,300
832.930481,319
833.048828,312
833.167114,317
833.2854,320
833.403687,302
833.521973,322
833.640259,311
833.758545,310
833.876831,307
833.995056,327
834.113281,316
834.231628,319
834.349915,305
834.468201,307
834.586426,326
834.704651,310
834.822998,319
834.941162,312
835.059448,320
835.177673,319
835.295959,310
835.414246,311
835.53241,314
835.650635,315
835.768921,316
835.887146,310
836.005371,316
836.123596,320
836.241821,331
836.360046,307
836.478271,325
836.596497,314
836.714722,313
836.832886,314
836.95105,318
837.069336,315
837.1875,322
837.305725,304
837.423889,311
837.542053,314
837.660339,315
837.778503,322
837.896667,335
838.014832,307
838.132996,324
838.25116,306
838.369385,307
838.487488,313
838.605713,316
838.723877,316
838.84198,317
838.960205,322
839.078308,323
839.196472,326
839.314636,304
839.4328,313
839.550964,334
839.669067,298
839.787231,316
839.905396,316
840.023499,312
840.141602,326
840.259766,308
840.377869,325
840.495972,315
840.614136,324
840.732239,316
840.850342,317
840.968445,317
841.086548,311
841.204651,317
841.322754,311
841.440918,323
841.55896,330
841.677002,314
841.795166,314
841.913208,322
842.031311,327
842.149353,315
842.267456,323
842.385498,308
842.503601,316
842.621643,303
842.739746,325
842.857788,322
842.97583,309
843.093933,321
843.211975,303
843.330017,335
843.44812,317
843.566101,322
843.684204,308
843.802246,299
843.920227,319
844.038269,311
844.156311,319
844.274292,319
844.392395,312
844.510376,318
844.628357,315
844.74646,315
844.864441,319
844.982422,310
845.100403,321
845.218384,321
845.336426,326
845.454468,295
845.572449,319
845.69043,320
845.808411,311
845.926453,308
846.044373,324
846.162354,300
846.280396,317
846.398315,311
846.516296,317
846.634216,314
846.752197,316
846.870178,324
846.988098,330
847.106079,299
847.22406,299
847.34198,314
847.4599,320
847.577881,312
847.695801,308
847.813782,331
847.931641,314
848.049561,319
848.167603,306
848.285461,308
848.403381,311
848.521362,330
848.639221,324
848.75708,315
848.875,300
848.99292,320
849.110901,311
849.22876,330
849.34668,311
849.464539,336
849.582458,310
849.700317,310
849.818176,320
849.936096,322
850.053955,307
850.171875,327
850.289673,314
850.407593,321
850.525452,319
850.643311,308
850.761169,312
850.878967,320
850.996887,322
851.114746,314
851.232544,306
851.350403,314
851.468262,330
851.58606,311
851.703979,313
851.821777,306
851.939636,317
852.057434,314
852.175232,312
852.293091,311
852.410889,317
852.528687,309
852.646545,299
852.764343,312
852.88208,302
852.999939,309
853.117676,321
853.235535,325
853.353271,320
853.471069,315
853.588928,314
853.706604,319
853.824402,312
853.9422,311
854.059998,322
854.177734,314
854.295532,317
854.413269,305
854.531006,309
854.648804,316
854.766541,312
854.884277,321
855.002014,318
855.119751,320
855.237549,317
855.355225,315
855.473022,309
855.590698,326
855.708435,319
855.826172,309
855.943848,303
856.061646,321
856.179321,317
856.296997,324
856.414795,322
856.53241,310
856.650085,316
856.767822,317
856.885559,317
857.003174,315
857.120911,315
857.238586,315
857.356201,313
857.473938,307
857.591614,318
857.709351,317
857.826965,318
857.944641,313
858.062317,317
858.179993,307
858.297668,317
858.415283,321
858.532959,303
858.650574,313
858.768188,312
858.885803,341
859.003479,326
859.121094,315
859.23877,318
859.356384,316
859.473999,324
859.591675,306
859.709229,313
859.826843,311
859.944458,311
860.062012,314
860.179626,324
860.297302,304
860.414856,319
860.532471,302
860.650024,308
860.767639,326
860.885193,313
861.002808,327
861.120361,308
861.237976,304
861.35553,313
861.473022,316
861.590698,324
861.708191,302
861.825745,309
861.943298,327
862.060852,310
862.178406,332
862.295959,314
862.413513,323
862.531006,322
862.64856,317
862.766113,316
862.883667,323
863.00116,307
863.118713,307
863.236206,316
863.353699,325
863.471252,304
863.588745,323
863.706177,313
863.82373,313
863.941162,317
864.058716,313
864.176208,322
864.29364,332
864.411194,313
864.528687,309
864.646118,314
864.763611,319
864.881042,312
864.998535,315
865.116028,313
865.233459,315
865.350891,308
865.468384,306
865.585754,314
865.703308,322
865.820679,317
865.938171,329
866.055542,311
866.173035,321
866.290466,313
866.407837,310
866.52533,316
866.6427,317
866.760071,308
866.877563,315
866.994934,315
867.112305,311
867.229736,316
867.347107,319
867.464539,312
867.58197,320
867.699341,318
867.81665,318
867.934082,324
868.051453,318
868.168823,294
868.286194,310
868.403564,317
868.520935,322
868.638306,316
868.755676,312
868.872986,315
868.990295,300
869.107727,307
869.225037,328
869.342346,318
869.459717,328
869.577026,320
869.694336,318
869.811707,323
869.929016,314
870.046326,316
870.163635,323
870.280945,318
870.398254,309
870.515564,325
870.632812,319
870.750183,314
870.867432,317
870.984741,313
871.102051,314
871.219299,315
871.336609,312
871.453918,321
871.571106,325
871.688416,312
871.805664,318
871.922852,316
872.040222,310
872.157471,318
872.274719,324
872.391968,312
872.509155,299
872.626465,307
872.743652,328
872.860962,313
872.978149,314
873.095337,325
873.212646,328
873.329834,308
873.44696,311
873.564209,307
873.681396,313
873.798645,324
873.915894,326
874.03302,326
874.150208,323
874.267456,313
874.384583,319
874.501831,327
874.618958,308
874.736145,305
874.853333,312
874.970459,306
875.087646,322
875.204834,301
875.32196,323
875.439148,325
875.556274,318
875.673401,304
875.790527,323
875.907715,314
876.024841,317
876.141968,325
876.259094,319
876.376282,316
876.493347,308
876.610474,328
876.7276,317
876.844727,329
876.961853,321
877.078918,318
877.195984,318
877.313171,311
877.430237,318
877.547302,305
877.664368,313
877.781433,314
877.898499,325
878.015625,308
878.13269,317
878.249695,320
878.366821,300
878.483887,311
878.600952,314
878.717957,298
878.834961,313
878.952087,306
879.069092,322
879.186157,315
879.303162,314
879.420227,324
879.537231,317
879.654236,309
879.77124,319
879.888306,314
880.005249,313
880.122314,318
880.239319,314
880.356323,312
880.473328,311
880.590271,313
880.707275,314
880.824341,316
880.941284,324
881.058228,326
881.175232,307
881.292236,324
881.40918,324
881.526123,326
881.643066,312
881.760071,307
881.877014,319
881.993958,315
882.11084,317
882.227783,314
882.344727,308
882.46167,322
882.578613,317
882.695618,304
882.812439,316
882.929382,321
883.046326,320
883.163208,319
883.280151,327
883.397034,325
883.513916,299
883.630798,315
883.747742,310
883.864563,314
883.981506,316
884.098389,322
884.21521,324
884.332153,313
884.448975,321
884.565796,308
884.682678,307
884.7995,319
884.916443,308
885.033264,317
885.150085,321
885.266968,304
885.383789,315
885.500671,317
885.617493,323
885.734314,321
885.851196,322
885.967896,327
886.084717,304
886.201599,320
886.318359,323
886.435181,330
886.552002,308
886.668762,308
886.785645,314
886.902344,315
887.019165,314
887.135925,305
887.252747,312
887.369446,314
887.486267,333
887.603027,320
887.719788,323
887.836548,311
887.953247,333
888.070068,315
888.186829,324
888.303528,317
888.420288,317
888.536987,328
888.653687,331
888.770447,319
888.887146,314
889.003967,323
889.120667,320
889.237305,317
889.354065,300
889.470703,313
889.587463,322
889.704163,312
889.820862,323
889.937561,313
890.054199,324
890.170837,303
890.287598,318
890.404236,308
890.520874,318
890.637634,313
890.754211,308
890.87085,315
890.987549,319
891.104187,306
891.220886,318
891.337463,308
891.454102,317
891.57074,323
891.687378,309
891.804077,315
891.920654,318
892.037231,316
892.15387,319
892.270447,319
892.387085,311
892.503723,320
892.6203,327
892.736877,316
892.853516,302
892.970032,318
893.08667,316
893.203186,310
893.319763,317
893.43634,313
893.552917,324
893.669556,328
893.786011,321
893.902588,302
894.019165,313
894.135681,322
894.252197,324
894.368835,317
894.485291,328
894.601868,318
894.718384,314
894.8349,316
894.951355,307
895.067932,306
895.184448,311
895.300964,305
895.417419,304
895.533936,314
895.650452,318
895.766907,316
895.883423,322
895.999878,317
896.116333,321
896.232849,318
896.349304,318
896.465759,315
896.582214,307
896.698669,329
896.815125,312
896.931641,316
897.048035,312
897.164551,318
897.280884,319
897.397339,306
897.513794,315
897.630249,316
897.746582,309
897.863098,308
897.979431,313
898.095886,313
898.212341,320
898.328674,317
898.445129,315
898.561462,312
898.677795,313
898.794312,316
898.910645,315
899.026978,322
899.143433,323
899.259766,308
899.37616,321
899.492493,314
899.608765,316
899.725159,314
899.841553,303
899.957947,331
900.07428,324
900.190552,314
900.306946,315
900.423157,323
900.53949,317
900.655884,316
900.772156,318
900.888489,324
901.004822,317
901.121033,321
901.237366,307
901.353699,314
901.46991,315
901.586304,313
901.702515,310
901.818787,308
901.93512,318
902.051331,326
902.167603,323
902.283875,305
902.400085,323
902.516418,319
902.632629,326
902.74884,324
902.865112,315
902.981384,316
903.097595,329
903.213867,310
903.330017,324
903.446289,314
903.5625,320
903.67865,327
903.794922,324
903.911072,310
904.027344,315
904.143494,314
904.259705,319
904.375916,319
904.492065,324
904.608215,304
904.724426,313
904.840576,329
904.956726,312
905.072876,304
905.189087,322
905.305176,310
905.421387,323
905.537537,323
905.653687,307
905.769775,316
905.885925,309
906.002014,307
906.118164,320
906.234314,309
906.350403,315
906.466492,309
906.582642,323
906.69873,316
906.814758,305
906.930908,311
907.046936,317
907.163086,316
907.279175,308
907.395264,320
907.511353,312
907.62738,315
907.743408,312
907.859497,327
907.975525,322
908.091553,308
908.207703,299
908.32373,301
908.439758,310
908.555786,306
908.671814,332
908.787842,317
908.90387,315
909.019775,312
909.135864,325
909.251892,318
909.367859,321
909.483826,309
909.599854,314
909.715881,321
909.831848,303
909.947815,324
910.063782,321
910.179749,312
910.295776,320
910.411743,313
910.527649,314
910.643616,322
910.759583,316
910.875488,316
910.991455,300
911.107361,319
911.223267,310
911.339294,328
911.4552,315
911.571106,316
911.687073,327
911.802979,315
911.918823,321
912.034729,320
912.150635,321
912.266602,307
912.382446,319
912.498352,317
912.614197,304
912.730103,297
912.846008,317
