792.44574,319
792.56488,329
792.68396,397
792.80304,364
792.92218,350
793.041199,315
793.160339,333
793.279419,330
793.398499,330
793.517578,322
793.636658,314
793.755737,345
793.874817,353
793.993896,341
794.112976,322
794.232056,328
794.351074,334
794.470215,332
794.589233,335
794.708313,333
794.827393,342
794.946411,323
795.065552,347
795.18457,328
795.303589,321
795.422668,328
795.541687,341
795.660767,336
795.779846,335
795.898865,321
796.017883,329
796.136963,328
796.255981,333
796.375061,331
796.49408,328
796.613037,329
796.732117,333
796.851135,314
796.970154,319
797.089233,327
797.208191,324
797.327271,338
797.446228,325
797.565186,331
797.684265,325
797.803223,334
797.922241,338
798.04126,337
798.160278,329
798.279297,340
798.398315,325
798.517273,339
798.636292,325
798.75531,331
798.874268,334
798.993286,338
799.112244,329
799.231323,327
799.350281,327
799.469238,320
799.588257,339
799.707153,323
799.826111,338
799.945129,332
800.064087,314
800.183044,330
800.302063,335
800.421021,325
800.539978,323
800.658936,333
800.777893,313
800.896912,332
801.015747,340
801.134705,324
801.253723,336
801.37262,329
801.491638,340
801.610535,334
801.729492,327
801.84845,333
801.967407,332
802.086243,317
802.205261,320
802.324158,334
802.443115,337
802.562073,327
802.680969,337
802.799927,331
802.918762,324
803.037659,314
803.156677,340
803.275574,335
803.39447,322
803.513428,329
803.632263,339
803.751221,320
803.870117,341
803.989014,327
804.107971,319
804.226746,324
804.345642,337
804.4646,320
804.583496,334
804.702393,338
804.821228,331
804.940125,323
805.059021,327
805.177917,328
805.296814,327
805.415649,331
805.534546,323
805.653442,310
805.772278,328
805.891113,330
806.01001,331
806.128906,331
806.247742,340
806.366577,319
806.485413,339
806.604309,328
806.723145,333
806.84198,326
806.960876,345
807.079712,315
807.198486,331
807.317383,332
807.436218,340
807.554993,336
807.673889,313
807.792725,333
807.91156,332
808.030396,319
808.14917,340
808.268005,328
808.386841,319
808.505676,341
808.624451,337
808.743286,329
808.862122,334
808.980896,329
809.099731,338
809.218506,334
809.337341,327
809.456116,306
809.57489,345
809.693726,320
809.8125,337
809.931274,329
810.050049,332
810.168884,326
810.287659,336
810.406372,329
810.525269,331
810.643982,341
810.762756,327
810.881531,321
811.000305,344
811.11908,331
811.237854,336
811.356567,328
811.475403,323
811.594116,325
811.71283,338
811.831604,329
811.950378,335
812.069153,316
812.187927,326
812.30658,344
812.425415,341
812.544128,328
812.662781,326
812.781616,324
812.900269,339
813.019043,322
813.137756,335
813.256531,325
813.375244,346
813.493896,326
813.612671,337
813.731384,330
813.850037,339
813.96875,334
814.087524,325
814.206238,336
814.324951,329
814.443604,325
814.562256,334
814.68103,330
814.799683,331
814.918335,333
815.037109,331
815.155762,340
815.274475,339
815.393188,340
815.511841,336
815.630554,320
815.749146,335
815.867859,322
815.986572,335
816.105164,321
816.223877,329
816.342529,327
816.461182,334
816.579895,334
816.698486,329
816.817139,344
816.935791,339
817.054504,342
817.173096,327
817.291748,317
817.4104,341
817.529053,331
817.647644,324
817.766235,323
817.884949,321
818.00354,311
818.122192,325
818.240845,328
818.359436,326
818.478088,333
818.59668,328
818.715271,325
818.833923,322
818.952515,326
819.071106,324
819.189758,315
819.30835,320
819.426941,309
819.545532,331
819.664124,307
819.782715,327
819.901306,323
820.019897,320
820.138489,315
820.25708,329
820.375671,314
820.494202,322
820.612732,325
820.731384,330
820.849915,314
820.968506,342
821.087097,317
821.205627,312
821.324158,323
821.442749,320
821.561279,314
821.679871,333
821.798401,318
821.916931,327
822.035461,317
822.154053,315
822.272583,326
822.391174,323
822.509583,315
822.628174,316
822.746704,322
822.865234,317
822.983765,312
823.102295,312
823.220825,318
823.339294,327
823.457825,317
823.576355,325
823.694824,318
823.813354,325
823.931885,314
824.050354,318
824.168884,330
824.287354,326
824.405823,330
824.524353,325
824.642822,313
824.761353,315
824.879822,308
824.998291,330
825.116699,326
825.235291,320
825.353699,321
825.472168,323
825.590637,309
825.709106,311
825.827576,325
825.946045,323
826.064453,324
826.182983,317
826.301392,328
826.4198,335
826.53833,307
826.656738,313
826.775208,310
826.893677,321
827.012024,320
827.130493,324
827.248962,314
827.36731,309
827.485779,307
827.604248,315
827.722595,316
827.841064,328
827.959412,322
828.077942,331
828.196289,322
828.314636,314
828.433105,319
828.551514,319
828.669861,314
828.78833,326
828.906677,316
829.025085,316
829.143433,305
829.261841,320
829.38031,318
829.498657,332
829.617004,308
829.735413,320
829.85376,311
829.972107,316
830.090515,314
830.208862,321
830.327209,302
830.445557,322
830.563904,301
830.682312,322
830.800659,321
830.919006,311
831.037354,307
831.155701,320
831.274048,316
831.392395,310
831.51062,321
831.629028,319
831.747314,303
831.865662,303
831.984009,302
832.102356,327
832.220642,315
832.338928,319
832.457275,306
832.575623,319
832.693909,311
832.812134,325
832.930481,313
833.048828,325
833.167114,314
833.2854,320
833.403687,312
833.521973,310
833.640259,316
833.758545,323
833.876831,311
833.995056,322
834.113281,309
834.231628,313
834.349915,316
834.468201,305
834.586426,302
834.704651,325
834.822998,309
834.941162,315
835.059448,314
835.177673,317
835.295959,310
835.414246,308
835.53241,309
835.650635,314
835.768921,318
835.887146,314
836.005371,317
836.123596,322
836.241821,312
836.360046,333
836.478271,313
836.596497,312
836.714722,317
836.832886,323
836.95105,312
837.069336,324
837.1875,306
837.305725,308
837.423889,323
837.542053,327
837.660339,318
837.778503,318
837.896667,322
838.014832,325
838.132996,321
838.25116,309
838.369385,313
838.487488,314
838.605713,320
838.723877,313
838.84198,313
838.960205,312
839.078308,305
839.196472,324
839.314636,304
839.4328,322
839.550964,316
839.669067,333
839.787231,314
839.905396,306
840.023499,313
840.141602,319
840.259766,315
840.377869,326
840.495972,320
840.614136,322
840.732239,302
840.850342,310
840.968445,303
841.086548,300
841.204651,328
841.322754,328
841.440918,318
841.55896,315
841.677002,319
841.795166,319
841.913208,299
842.031311,324
842.149353,312
842.267456,330
842.385498,317
842.503601,311
842.621643,313
842.739746,320
842.857788,305
842.97583,323
843.093933,313
843.211975,312
843.330017,326
843.44812,328
843.566101,314
843.684204,305
843.802246,314
843.920227,334
844.038269,310
844.156311,319
844.274292,337
844.392395,317
844.510376,309
844.628357,313
844.74646,313
844.864441,331
844.982422,319
845.100403,319
845.218384,318
845.336426,328
845.454468,320
845.572449,324
845.69043,313
845.808411,314
845.926453,316
846.044373,320
846.162354,305
846.280396,328
846.398315,318
846.516296,327
846.634216,316
846.752197,330
846.870178,330
846.988098,316
847.106079,320
847.22406,313
847.34198,323
847.4599,334
847.577881,314
847.695801,320
847.813782,318
847.931641,311
848.049561,329
848.167603,311
848.285461,325
848.403381,325
848.521362,304
848.639221,311
848.75708,321
848.875,326
848.99292,319
849.110901,310
849.22876,310
849.34668,315
849.464539,314
849.582458,317
849.700317,323
849.818176,311
849.936096,312
850.053955,315
850.171875,311
850.289673,320
850.407593,321
850.525452,324
850.643311,318
850.761169,318
850.878967,322
850.996887,315
851.114746,321
851.232544,316
851.350403,308
851.468262,327
851.58606,293
851.703979,312
851.821777,320
851.939636,321
852.057434,315
852.175232,322
852.293091,317
852.410889,333
852.528687,306
852.646545,314
852.764343,318
852.88208,315
852.999939,316
853.117676,321
853.235535,327
853.353271,318
853.471069,312
853.588928,319
853.706604,311
853.824402,316
853.9422,318
854.059998,314
854.177734,316
854.295532,322
854.413269,311
854.531006,319
854.648804,322
854.766541,326
854.884277,304
855.002014,305
855.119751,312
855.237549,322
855.355225,313
855.473022,329
855.590698,304
855.708435,312
855.826172,326
855.943848,323
856.061646,320
856.179321,326
856.296997,310
856.414795,320
856.53241,320
856.650085,318
856.767822,311
856.885559,318
857.003174,314
857.120911,316
857.238586,320
857.356201,317
857.473938,335
857.591614,313
857.709351,318
857.826965,331
857.944641,318
858.062317,301
858.179993,310
858.297668,310
858.415283,318
858.532959,314
858.650574,324
858.768188,313
858.885803,327
859.003479,316
859.121094,305
859.23877,324
859.356384,307
859.473999,328
859.591675,319
859.709229,330
859.826843,310
859.944458,319
860.062012,314
860.179626,318
860.297302,321
860.414856,335
860.532471,322
860.650024,321
860.767639,306
860.885193,313
861.002808,319
861.120361,320
861.237976,325
861.35553,316
861.473022,301
861.590698,316
861.708191,324
861.825745,310
861.943298,327
862.060852,314
862.178406,304
862.295959,321
862.413513,307
862.531006,327
862.64856,317
862.766113,325
862.883667,329
863.00116,332
863.118713,310
863.236206,312
863.353699,316
863.471252,321
863.588745,324
863.706177,330
863.82373,307
863.941162,328
864.058716,318
864.176208,319
864.29364,317
864.411194,327
864.528687,297
864.646118,323
864.763611,315
864.881042,312
864.998535,312
865.116028,315
865.233459,312
865.350891,327
865.468384,319
865.585754,321
865.703308,302
865.820679,320
865.938171,316
866.055542,323
866.173035,305
866.290466,326
866.407837,304
866.52533,319
866.6427,310
866.760071,317
866.877563,315
866.994934,318
867.112305,312
867.229736,309
867.347107,319
867.464539,304
867.58197,320
867.699341,336
867.81665,303
867.934082,305
868.051453,325
868.168823,327
868.286194,321
868.403564,334
868.520935,322
868.638306,315
868.755676,314
868.872986,318
868.990295,322
869.107727,329
869.225037,311
869.342346,319
869.459717,316
869.577026,317
869.694336,318
869.811707,326
869.929016,309
870.046326,308
870.163635,315
870.280945,332
870.398254,309
870.515564,311
870.632812,314
870.750183,324
870.867432,316
870.984741,329
871.102051,301
871.219299,315
871.336609,316
871.453918,306
871.571106,327
871.688416,315
871.805664,307
871.922852,318
872.040222,304
872.157471,322
872.274719,328
872.391968,324
872.509155,323
872.626465,315
872.743652,319
872.860962,317
872.978149,313
873.095337,323
873.212646,312
873.329834,320
873.44696,322
873.564209,324
873.681396,334
873.798645,328
873.915894,321
874.03302,318
874.150208,321
874.267456,313
874.384583,318
874.501831,320
874.618958,303
874.736145,316
874.853333,320
874.970459,319
875.087646,318
875.204834,317
875.32196,313
875.439148,321
875.556274,334
875.673401,321
875.790527,317
875.907715,330
876.024841,309
876.141968,330
876.259094,316
876.376282,319
876.493347,329
876.610474,321
876.7276,320
876.844727,328
876.961853,319
877.078918,320
877.195984,307
877.313171,330
877.430237,316
877.547302,316
877.664368,309
877.781433,319
877.898499,313
878.015625,318
878.13269,313
878.249695,325
878.366821,334
878.483887,330
878.600952,322
878.717957,313
878.834961,317
878.952087,320
879.069092,303
879.186157,322
879.303162,323
879.420227,329
879.537231,321
879.654236,317
879.77124,312
879.888306,324
880.005249,327
880.122314,327
880.239319,323
880.356323,318
880.473328,320
880.590271,320
880.707275,327
880.824341,311
880.941284,319
881.058228,311
881.175232,322
881.292236,309
881.40918,313
881.526123,319
881.643066,321
881.760071,322
881.877014,314
881.993958,319
882.11084,307
882.227783,320
882.344727,302
882.46167,318
882.578613,324
882.695618,324
882.812439,321
882.929382,332
883.046326,324
883.163208,318
883.280151,324
883.397034,314
883.513916,319
883.630798,306
883.747742,315
883.864563,310
883.981506,323
884.098389,327
884.21521,323
884.332153,307
884.448975,321
884.565796,328
884.682678,316
884.7995,315
884.916443,315
885.033264,320
885.150085,313
885.266968,321
885.383789,318
885.500671,313
885.617493,324
885.734314,317
885.851196,327
885.967896,320
886.084717,307
886.201599,331
886.318359,317
886.435181,338
886.552002,329
886.668762,321
886.785645,314
886.902344,326
887.019165,307
887.135925,336
887.252747,311
887.369446,323
887.486267,318
887.603027,324
887.719788,316
887.836548,307
887.953247,327
888.070068,311
888.186829,327
888.303528,325
888.420288,316
888.536987,320
888.653687,308
888.770447,315
888.887146,319
889.003967,318
889.120667,306
889.237305,323
889.354065,316
889.470703,315
889.587463,304
889.704163,318
889.820862,309
889.937561,326
890.054199,324
890.170837,306
890.287598,339
890.404236,320
890.520874,312
890.637634,327
890.754211,326
890.87085,308
890.987549,323
891.104187,320
891.220886,306
891.337463,323
891.454102,326
891.57074,331
891.687378,316
891.804077,336
891.920654,311
892.037231,314
892.15387,317
892.270447,345
892.387085,305
892.503723,316
892.6203,307
892.736877,324
892.853516,308
892.970032,320
893.08667,313
893.203186,319
893.319763,310
893.43634,327
893.552917,319
893.669556,318
893.786011,309
893.902588,313
894.019165,314
894.135681,322
894.252197,322
894.368835,322
894.485291,316
894.601868,308
894.718384,315
894.8349,346
894.951355,323
895.067932,321
895.184448,328
895.300964,319
895.417419,310
895.533936,327
895.650452,318
895.766907,328
895.883423,324
895.999878,330
896.116333,315
896.232849,318
896.349304,320
896.465759,332
896.582214,308
896.698669,320
896.815125,318
896.931641,322
897.048035,315
897.164551,325
897.280884,323
897.397339,323
897.513794,320
897.630249,313
897.746582,316
897.863098,310
897.979431,312
898.095886,317
898.212341,316
898.328674,309
898.445129,327
898.561462,318
898.677795,302
898.794312,326
898.910645,330
899.026978,320
899.143433,314
899.259766,317
899.37616,308
899.492493,333
899.608765,314
899.725159,323
899.841553,312
899.957947,326
900.07428,311
900.190552,318
900.306946,302
900.423157,320
900.53949,314
900.655884,317
900.772156,320
900.888489,315
901.004822,317
901.121033,312
901.237366,308
901.353699,328
901.46991,315
901.586304,328
901.702515,317
901.818787,323
901.93512,314
902.051331,312
902.167603,322
902.283875,333
902.400085,319
902.516418,321
902.632629,313
902.74884,317
902.865112,317
902.981384,315
903.097595,325
903.213867,312
903.330017,321
903.446289,314
903.5625,311
903.67865,318
903.794922,313
903.911072,324
904.027344,321
904.143494,322
904.259705,312
904.375916,321
904.492065,315
904.608215,323
904.724426,318
904.840576,323
904.956726,322
905.072876,326
905.189087,314
905.305176,341
905.421387,321
905.537537,304
905.653687,320
905.769775,329
905.885925,318
906.002014,315
906.118164,308
906.234314,317
906.350403,318
906.466492,314
906.582642,310
906.69873,322
906.814758,313
906.930908,317
907.046936,309
907.163086,325
907.279175,309
907.395264,322
907.511353,308
907.62738,319
907.743408,314
907.859497,323
907.975525,314
908.091553,322
908.207703,327
908.32373,323
908.439758,323
908.555786,325
908.671814,301
908.787842,331
908.90387,315
909.019775,318
909.135864,331
909.251892,323
909.367859,318
909.483826,315
909.599854,318
909.715881,319
909.831848,321
909.947815,323
910.063782,326
910.179749,329
910.295776,311
910.411743,327
910.527649,312
910.643616,328
910.759583,304
910.875488,321
910.991455,320
911.107361,340
911.223267,313
911.339294,323
911.4552,322
911.571106,332
911.687073,304
911.802979,321
911.918823,330
912.034729,318
912.150635,325
912.266602,325
912.382446,306
912.498352,332
912.614197,321
912.730103,319
912.846008,309
792.44574,326
792.56488,347
792.68396,397
792.80304,367
792.92218,337
793.041199,313
793.160339,321
793.279419,336
793.398499,334
793.517578,340
793.636658,333
793.755737,323
793.874817,345
793.993896,344
794.112976,331
794.232056,330
794.351074,328
794.470215,339
794.589233,333
794.708313,316
794.827393,333
794.946411,338
795.065552,334
795.18457,333
795.303589,332
795.422668,329
795.541687,346
795.660767,343
795.779846,341
795.898865,326
796.017883,340
796.136963,328
796.255981,325
796.375061,320
796.49408,319
796.613037,324
796.732117,325
796.851135,326
796.970154,324
797.089233,315
797.208191,337
797.327271,320
797.446228,328
797.565186,328
797.684265,342
797.803223,334
797.922241,324
798.04126,335
798.160278,342
798.279297,328
798.398315,331
798.517273,332
798.636292,328
798.75531,321
798.874268,335
798.993286,331
799.112244,331
799.231323,344
799.350281,327
799.469238,326
799.588257,343
799.707153,323
799.826111,334
799.945129,332
800.064087,327
800.183044,311
800.302063,331
800.421021,342
800.539978,338
800.658936,333
800.777893,336
800.896912,322
801.015747,353
801.134705,320
801.253723,333
801.37262,323
801.491638,334
801.610535,323
801.729492,318
801.84845,329
801.967407,330
802.086243,325
802.205261,322
802.324158,330
802.443115,332
802.562073,334
802.680969,344
802.799927,316
802.918762,315
803.037659,316
803.156677,329
803.275574,333
803.39447,321
803.513428,322
803.632263,337
803.751221,312
803.870117,335
803.989014,337
804.107971,346
804.226746,330
804.345642,324
804.4646,326
804.583496,330
804.702393,327
804.821228,329
804.940125,339
805.059021,344
805.177917,334
805.296814,330
805.415649,333
805.534546,327
805.653442,330
805.772278,329
805.891113,315
806.01001,336
806.128906,328
806.247742,324
806.366577,335
806.485413,312
806.604309,313
806.723145,344
806.84198,316
806.960876,335
807.079712,346
807.198486,339
807.317383,336
807.436218,324
807.554993,351
807.673889,329
807.792725,330
807.91156,336
808.030396,326
808.14917,331
808.268005,337
808.386841,334
808.505676,328
808.624451,335
808.743286,331
808.862122,338
808.980896,325
809.099731,340
809.218506,318
809.337341,339
809.456116,332
809.57489,347
809.693726,319
809.8125,321
809.931274,340
810.050049,333
810.168884,330
810.287659,337
810.406372,316
810.525269,330
810.643982,318
810.762756,349
810.881531,329
811.000305,324
811.11908,327
811.237854,339
811.356567,330
811.475403,326
811.594116,338
811.71283,344
811.831604,319
811.950378,348
812.069153,316
812.187927,347
812.30658,328
812.425415,340
812.544128,343
812.662781,329
812.781616,347
812.900269,334
813.019043,337
813.137756,333
813.256531,322
813.375244,340
813.493896,334
813.612671,325
813.731384,344
813.850037,328
813.96875,324
814.087524,338
814.206238,322
814.324951,324
814.443604,330
814.562256,338
814.68103,325
814.799683,318
814.918335,342
815.037109,334
815.155762,331
815.274475,335
815.393188,332
815.511841,334
815.630554,321
815.749146,330
815.867859,323
815.986572,331
816.105164,329
816.223877,322
816.342529,327
816.461182,339
816.579895,312
816.698486,341
816.817139,331
816.935791,332
817.054504,338
817.173096,344
817.291748,322
817.4104,317
817.529053,332
817.647644,336
817.766235,316
817.884949,330
818.00354,333
818.122192,324
818.240845,318
818.359436,324
818.478088,332
818.59668,321
818.715271,305
818.833923,327
818.952515,305
819.071106,337
819.189758,321
819.30835,322
819.426941,328
819.545532,316
819.664124,332
819.782715,316
819.901306,340
820.019897,320
820.138489,315
820.25708,314
820.375671,327
820.494202,324
820.612732,334
820.731384,316
820.849915,316
820.968506,326
821.087097,324
821.205627,317
821.324158,325
821.442749,314
821.561279,315
821.679871,317
821.798401,319
821.916931,308
822.035461,314
822.154053,332
822.272583,319
822.391174,330
822.509583,326
822.628174,316
822.746704,320
822.865234,332
822.983765,316
823.102295,331
823.220825,320
823.339294,320
823.457825,310
823.576355,340
823.694824,311
823.813354,318
823.931885,313
824.050354,326
824.168884,323
824.287354,319
824.405823,331
824.524353,332
824.642822,309
824.761353,313
824.879822,311
824.998291,335
825.116699,313
825.235291,325
825.353699,329
825.472168,316
825.590637,319
825.709106,322
825.827576,313
825.946045,313
826.064453,327
826.182983,315
826.301392,303
826.4198,317
826.53833,318
826.656738,307
826.775208,326
826.893677,321
827.012024,313
827.130493,314
827.248962,317
827.36731,331
827.485779,322
827.604248,307
827.722595,315
827.841064,327
827.959412,322
828.077942,323
828.196289,318
828.314636,319
828.433105,303
828.551514,313
828.669861,314
828.78833,320
828.906677,326
829.025085,308
829.143433,311
829.261841,331
829.38031,314
829.498657,323
829.617004,323
829.735413,318
829.85376,318
829.972107,323
830.090515,313
830.208862,312
830.327209,308
830.445557,307
830.563904,326
830.682312,319
830.800659,323
830.919006,316
831.037354,325
831.155701,320
831.274048,320
831.392395,315
831.51062,320
831.629028,313
831.747314,328
831.865662,328
831.984009,321
832.102356,314
832.220642,331
832.338928,309
832.457275,314
832.575623,315
832.693909,315
832.812134,317
832.930481,316
833.048828,319
833.167114,318
833.2854,333
833.403687,287
833.521973,313
833.640259,323
833.758545,324
833.876831,310
833.995056,304
834.113281,317
834.231628,315
834.349915,310
834.468201,321
834.586426,315
834.704651,318
834.822998,310
834.941162,328
835.059448,321
835.177673,315
835.295959,307
835.414246,329
835.53241,317
835.650635,305
835.768921,326
835.887146,330
836.005371,311
836.123596,313
836.241821,323
836.360046,318
836.478271,307
836.596497,323
836.714722,312
836.832886,322
836.95105,320
837.069336,318
837.1875,313
837.305725,324
837.423889,319
837.542053,316
837.660339,340
837.778503,328
837.896667,311
838.014832,316
838.132996,311
838.25116,315
838.369385,313
838.487488,321
838.605713,314
838.723877,323
838.84198,330
838.960205,322
839.078308,306
839.196472,319
839.314636,321
839.4328,329
839.550964,306
839.669067,316
839.787231,311
839.905396,319
840.023499,329
840.141602,321
840.259766,305
840.377869,320
840.495972,319
840.614136,312
840.732239,310
840.850342,322
840.968445,316
841.086548,325
841.204651,314
841.322754,319
841.440918,310
841.55896,322
841.677002,298
841.795166,330
841.913208,305
842.031311,317
842.149353,303
842.267456,312
842.385498,328
842.503601,313
842.621643,312
842.739746,319
842.857788,314
842.97583,325
843.093933,323
843.211975,319
843.330017,321
843.44812,326
843.566101,330
843.684204,328
843.802246,301
843.920227,324
844.038269,319
844.156311,333
844.274292,317
844.392395,314
844.510376,316
844.628357,320
844.74646,295
844.864441,324
844.982422,330
845.100403,323
845.218384,313
845.336426,313
845.454468,325
845.572449,312
845.69043,314
845.808411,322
845.926453,316
846.044373,311
846.162354,314
846.280396,314
846.398315,309
846.516296,311
846.634216,317
846.752197,311
846.870178,308
846.988098,315
847.106079,319
847.22406,313
847.34198,310
847.4599,323
847.577881,301
847.695801,314
847.813782,321
847.931641,320
848.049561,316
848.167603,316
848.285461,315
848.403381,328
848.521362,308
848.639221,333
848.75708,318
848.875,321
848.99292,319
849.110901,325
849.22876,325
849.34668,316
849.464539,322
849.582458,307
849.700317,321
849.818176,316
849.936096,309
850.053955,327
850.171875,313
850.289673,308
850.407593,313
850.525452,327
850.643311,312
850.761169,325
850.878967,307
850.996887,317
851.114746,322
851.232544,313
851.350403,303
851.468262,311
851.58606,319
851.703979,322
851.821777,316
851.939636,314
852.057434,317
852.175232,316
852.293091,308
852.410889,331
852.528687,321
852.646545,329
852.764343,309
852.88208,316
852.999939,319
853.117676,320
853.235535,307
853.353271,327
853.471069,320
853.588928,305
853.706604,326
853.824402,312
853.9422,324
854.059998,309
854.177734,313
854.295532,306
854.413269,317
854.531006,332
854.648804,315
854.766541,320
854.884277,329
855.002014,313
855.119751,322
855.237549,321
855.355225,309
855.473022,322
855.590698,307
855.708435,326
855.826172,315
855.943848,327
856.061646,325
856.179321,315
856.296997,312
856.414795,324
856.53241,319
856.650085,315
856.767822,311
856.885559,326
857.003174,304
857.120911,326
857.238586,319
857.356201,328
857.473938,314
857.591614,319
857.709351,324
857.826965,325
857.944641,303
858.062317,321
858.179993,329
858.297668,328
858.415283,321
858.532959,314
858.650574,312
858.768188,316
858.885803,316
859.003479,308
859.121094,316
859.23877,332
859.356384,306
859.473999,327
859.591675,312
859.709229,321
859.826843,309
859.944458,311
860.062012,323
860.179626,325
860.297302,318
860.414856,318
860.532471,311
860.650024,316
860.767639,313
860.885193,310
861.002808,317
861.120361,322
861.237976,325
861.35553,323
861.473022,324
861.590698,322
861.708191,314
861.825745,327
861.943298,307
862.060852,312
862.178406,317
862.295959,308
862.413513,308
862.531006,335
862.64856,312
862.766113,332
862.883667,314
863.00116,328
863.118713,315
863.236206,319
863.353699,311
863.471252,318
863.588745,320
863.706177,322
863.82373,316
863.941162,329
864.058716,313
864.176208,317
864.29364,322
864.411194,319
864.528687,326
864.646118,324
864.763611,310
864.881042,326
864.998535,313
865.116028,322
865.233459,305
865.350891,318
865.468384,313
865.585754,320
865.703308,318
865.820679,329
865.938171,313
866.055542,314
866.173035,316
866.290466,320
866.407837,322
866.52533,332
866.6427,317
866.760071,322
866.877563,314
866.994934,317
867.112305,319
867.229736,318
867.347107,299
867.464539,321
867.58197,321
867.699341,318
867.81665,316
867.934082,322
868.051453,315
868.168823,323
868.286194,311
868.403564,312
868.520935,309
868.638306,332
868.755676,310
868.872986,328
868.990295,310
869.107727,321
869.225037,314
869.342346,324
869.459717,327
869.577026,307
869.694336,297
869.811707,346
869.929016,298
870.046326,321
870.163635,318
870.280945,322
870.398254,308
870.515564,308
870.632812,320
870.750183,327
870.867432,307
870.984741,325
871.102051,317
871.219299,328
871.336609,306
871.453918,316
871.571106,328
871.688416,316
871.805664,319
871.922852,313
872.040222,303
872.157471,313
872.274719,321
872.391968,312
872.509155,319
872.626465,316
872.743652,308
872.860962,311
872.978149,316
873.095337,328
873.212646,317
873.329834,327
873.44696,315
873.564209,324
873.681396,299
873.798645,320
873.915894,316
874.03302,316
874.150208,306
874.267456,317
874.384583,310
874.501831,319
874.618958,313
874.736145,315
874.853333,321
874.970459,318
875.087646,310
875.204834,321
875.32196,322
875.439148,323
875.556274,315
875.673401,331
875.790527,310
875.907715,316
876.024841,309
876.141968,313
876.259094,306
876.376282,326
876.493347,327
876.610474,327
876.7276,317
876.844727,319
876.961853,321
877.078918,318
877.195984,317
877.313171,328
877.430237,311
877.547302,317
877.664368,330
877.781433,332
877.898499,326
878.015625,316
878.13269,308
878.249695,319
878.366821,315
878.483887,303
878.600952,323
878.717957,323
878.834961,315
878.952087,319
879.069092,313
879.186157,326
879.303162,324
879.420227,324
879.537231,317
879.654236,316
879.77124,300
879.888306,307
880.005249,319
880.122314,322
880.239319,315
880.356323,306
880.473328,322
880.590271,323
880.707275,307
880.824341,324
880.941284,302
881.058228,324
881.175232,320
881.292236,304
881.40918,315
881.526123,314
881.643066,320
881.760071,323
881.877014,314
881.993958,313
882.11084,306
882.227783,325
882.344727,313
882.46167,337
882.578613,310
882.695618,317
882.812439,302
882.929382,331
883.046326,312
883.163208,319
883.280151,309
883.397034,327
883.513916,319
883.630798,314
883.747742,310
883.864563,317
883.981506,320
884.098389,325
884.21521,311
884.332153,315
884.448975,313
884.565796,323
884.682678,316
884.7995,318
884.916443,316
885.033264,318
885.150085,297
885.266968,328
885.383789,311
885.500671,324
885.617493,317
885.734314,327
885.851196,310
885.967896,314
886.084717,318
886.201599,311
886.318359,305
886.435181,312
886.552002,321
886.668762,315
886.785645,305
886.902344,318
887.019165,323
887.135925,304
887.252747,311
887.369446,330
887.486267,308
887.603027,315
887.719788,321
887.836548,324
887.953247,318
888.070068,327
888.186829,316
888.303528,320
888.420288,323
888.536987,327
888.653687,314
888.770447,344
888.887146,311
889.003967,312
889.120667,315
889.237305,331
889.354065,320
889.470703,329
889.587463,321
889.704163,323
889.820862,309
889.937561,335
890.054199,311
890.170837,320
890.287598,312
890.404236,328
890.520874,320
890.637634,309
890.754211,321
890.87085,327
890.987549,309
891.104187,326
891.220886,323
891.337463,326
891.454102,318
891.57074,321
891.687378,320
891.804077,314
891.920654,313
892.037231,320
892.15387,311
892.270447,322
892.387085,325
892.503723,316
892.6203,316
892.736877,319
892.853516,321
892.970032,318
893.08667,310
893.203186,324
893.319763,327
893.43634,323
893.552917,323
893.669556,325
893.786011,300
893.902588,311
894.019165,330
894.135681,319
894.252197,306
894.368835,325
894.485291,316
894.601868,323
894.718384,311
894.8349,318
894.951355,323
895.067932,311
895.184448,320
895.300964,332
895.417419,313
895.533936,312
895.650452,312
895.766907,326
895.883423,311
895.999878,326
896.116333,313
896.232849,315
896.349304,302
896.465759,326
896.582214,320
896.698669,322
896.815125,307
896.931641,325
897.048035,318
897.164551,327
897.280884,318
897.397339,325
897.513794,307
897.630249,328
897.746582,310
897.863098,333
897.979431,318
898.095886,321
898.212341,312
898.328674,326
898.445129,309
898.561462,321
898.677795,317
898.794312,314
898.910645,307
899.026978,317
899.143433,315
899.259766,306
899.37616,318
899.492493,305
899.608765,325
899.725159,332
899.841553,318
899.957947,322
900.07428,320
900.190552,312
900.306946,317
900.423157,322
900.53949,315
900.655884,329
900.772156,322
900.888489,319
901.004822,329
901.121033,326
901.237366,320
901.353699,324
901.46991,311
901.586304,315
901.702515,319
901.818787,319
901.93512,320
902.051331,328
902.167603,330
902.283875,328
902.400085,316
902.516418,322
902.632629,311
902.74884,329
902.865112,314
902.981384,334
903.097595,317
903.213867,322
903.330017,330
903.446289,331
903.5625,313
903.67865,326
903.794922,315
903.911072,324
904.027344,318
904.143494,325
904.259705,314
904.375916,315
904.492065,320
904.608215,318
904.724426,318
904.840576,312
904.956726,318
905.072876,324
905.189087,315
905.305176,329
905.421387,312
905.537537,317
905.653687,308
905.769775,336
905.885925,317
906.002014,324
906.118164,315
906.234314,322
906.350403,315
906.466492,332
906.582642,309
906.69873,308
906.814758,323
906.930908,311
907.046936,311
907.163086,323
907.279175,311
907.395264,334
907.511353,319
907.62738,319
907.743408,319
907.859497,318
907.975525,304
908.091553,328
908.207703,315
908.32373,323
908.439758,309
908.555786,328
908.671814,327
908.787842,317
908.90387,315
909.019775,318
909.135864,333
909.251892,326
909.367859,317
909.483826,327
909.599854,314
909.715881,319
909.831848,319
909.947815,312
910.063782,319
910.179749,320
910.295776,322
910.411743,333
910.527649,335
910.643616,329
910.759583,323
910.875488,330
910.991455,314
911.107361,322
911.223267,312
911.339294,323
911.4552,320
911.571106,322
911.687073,310
911.802979,327
911.918823,325
912.034729,318
912.150635,312
912.266602,305
912.382446,301
912.498352,308
912.614197,322
912.730103,317
912.846008,312
792.44574,310
792.56488,353
792.68396,397
792.80304,375
792.92218,316
793.041199,319
793.160339,321
793.279419,332
793.398499,339
793.517578,302
793.636658,317
793.755737,336
793.874817,340
793.993896,344
794.112976,333
794.232056,333
794.351074,328
794.470215,332
794.589233,317
794.708313,340
794.827393,320
794.946411,334
795.065552,332
795.18457,331
795.303589,332
795.422668,330
795.541687,342
795.660767,329
795.779846,325
795.898865,329
796.017883,324
796.136963,339
796.255981,325
796.375061,333
796.49408,331
796.613037,309
796.732117,334
796.851135,325
796.970154,334
797.089233,340
797.208191,320
797.327271,320
797.446228,332
797.565186,327
797.684265,330
797.803223,336
797.922241,338
798.04126,327
798.160278,331
798.279297,326
798.398315,336
798.517273,336
798.636292,330
798.75531,332
798.874268,323
798.993286,322
799.112244,334
799.231323,332
799.350281,328
799.469238,355
799.588257,328
799.707153,322
799.826111,328
799.945129,329
800.064087,317
800.183044,332
800.302063,324
800.421021,324
800.539978,350
800.658936,324
800.777893,330
800.896912,337
801.015747,318
801.134705,331
801.253723,341
801.37262,320
801.491638,322
801.610535,317
801.729492,328
801.84845,322
801.967407,324
802.086243,326
802.205261,341
802.324158,318
802.443115,327
802.562073,329
802.680969,325
802.799927,339
802.918762,301
803.037659,313
803.156677,317
803.275574,329
803.39447,338
803.513428,322
803.632263,329
803.751221,331
803.870117,319
803.989014,326
804.107971,339
804.226746,323
804.345642,338
804.4646,329
804.583496,314
804.702393,332
804.821228,329
804.940125,325
805.059021,332
805.177917,322
805.296814,319
805.415649,329
805.534546,327
805.653442,337
805.772278,325
805.891113,331
806.01001,322
806.128906,332
806.247742,334
806.366577,314
806.485413,333
806.604309,322
806.723145,330
806.84198,324
806.960876,342
807.079712,334
807.198486,336
807.317383,335
807.436218,323
807.554993,345
807.673889,327
807.792725,337
807.91156,340
808.030396,339
808.14917,329
808.268005,351
808.386841,333
808.505676,341
808.624451,323
808.743286,333
808.862122,331
808.980896,329
809.099731,337
809.218506,329
809.337341,334
809.456116,331
809.57489,320
809.693726,341
809.8125,336
809.931274,331
810.050049,323
810.168884,322
810.287659,334
810.406372,328
810.525269,333
810.643982,334
810.762756,338
810.881531,333
811.000305,329
811.11908,343
811.237854,321
811.356567,344
811.475403,331
811.594116,333
811.71283,318
811.831604,331
811.950378,320
812.069153,324
812.187927,341
812.30658,321
812.425415,335
812.544128,332
812.662781,336
812.781616,335
812.900269,330
813.019043,337
813.137756,336
813.256531,338
813.375244,336
813.493896,335
813.612671,339
813.731384,342
813.850037,332
813.96875,318
814.087524,317
814.206238,324
814.324951,325
814.443604,331
814.562256,342
814.68103,326
814.799683,322
814.918335,325
815.037109,318
815.155762,342
815.274475,320
815.393188,336
815.511841,336
815.630554,330
815.749146,326
815.867859,325
815.986572,333
816.105164,324
816.223877,334
816.342529,321
816.461182,330
816.579895,339
816.698486,330
816.817139,339
816.935791,327
817.054504,334
817.173096,322
817.291748,332
817.4104,333
817.529053,335
817.647644,332
817.766235,336
817.884949,326
818.00354,325
818.122192,325
818.240845,323
818.359436,315
818.478088,334
818.59668,326
818.715271,345
818.833923,324
818.952515,316
819.071106,322
819.189758,318
819.30835,316
819.426941,326
819.545532,313
819.664124,335
819.782715,322
819.901306,317
820.019897,316
820.138489,322
820.25708,300
820.375671,327
820.494202,330
820.612732,326
820.731384,306
820.849915,309
820.968506,338
821.087097,327
821.205627,314
821.324158,307
821.442749,320
821.561279,317
821.679871,313
821.798401,322
821.916931,314
822.035461,317
822.154053,317
822.272583,328
822.391174,308
822.509583,325
822.628174,315
822.746704,320
822.865234,312
822.983765,321
823.102295,330
823.220825,315
823.339294,337
823.457825,303
823.576355,317
823.694824,317
823.813354,328
823.931885,302
824.050354,316
824.168884,312
824.287354,314
824.405823,312
824.524353,318
824.642822,311
824.761353,316
824.879822,330
824.998291,315
825.116699,319
825.235291,314
825.353699,319
825.472168,313
825.590637,310
825.709106,323
825.827576,314
825.946045,325
826.064453,321
826.182983,316
826.301392,330
826.4198,315
826.53833,316
826.656738,308
826.775208,317
826.893677,318
827.012024,299
827.130493,310
827.248962,326
827.36731,302
827.485779,328
827.604248,319
827.722595,317
827.841064,328
827.959412,302
828.077942,326
828.196289,323
828.314636,310
828.433105,317
828.551514,321
828.669861,306
828.78833,311
828.906677,312
829.025085,319
829.143433,310
829.261841,323
829.38031,307
829.498657,322
829.617004,316
829.735413,307
829.85376,316
829.972107,317
830.090515,318
830.208862,314
830.327209,311
830.445557,323
830.563904,322
830.682312,316
830.800659,317
830.919006,311
831.037354,322
831.155701,316
831.274048,312
831.392395,321
831.51062,321
831.629028,318
831.747314,317
831.865662,298
831.984009,307
832.102356,314
832.220642,320
832.338928,299
832.457275,311
832.575623,310
832.693909,318
832.812134,325
832.930481,325
833.048828,306
833.167114,317
833.2854,318
833.403687,305
833.521973,314
833.640259,320
833.758545,315
833.876831,312
833.995056,314
834.113281,318
834.231628,315
834.349915,311
834.468201,312
834.586426,308
834.704651,312
834.822998,302
834.941162,321
835.059448,323
835.177673,322
835.295959,320
835.414246,320
835.53241,323
835.650635,301
835.768921,307
835.887146,322
836.005371,308
836.123596,321
836.241821,323
836.360046,322
836.478271,306
836.596497,306
836.714722,330
836.832886,307
836.95105,317
837.069336,312
837.1875,316
837.305725,313
837.423889,308
837.542053,315
837.660339,311
837.778503,319
837.896667,321
838.014832,312
838.132996,331
838.25116,321
838.369385,324
838.487488,314
838.605713,318
838.723877,321
838.84198,310
838.960205,307
839.078308,310
839.196472,298
839.314636,321
839.4328,313
839.550964,321
839.669067,317
839.787231,319
839.905396,313
840.023499,314
840.141602,317
840.259766,339
840.377869,322
840.495972,336
840.614136,308
840.732239,331
840.850342,319
840.968445,302
841.086548,315
841.204651,318
841.322754,323
841.440918,327
841.55896,322
841.677002,307
841.795166,331
841.913208,322
842.031311,315
842.149353,308
842.267456,315
842.385498,315
842.503601,319
842.621643,310
842.739746,308
842.857788,318
842.97583,340
843.093933,312
843.211975,305
843.330017,313
843.44812,329
843.566101,313
843.684204,316
843.802246,319
843.920227,310
844.038269,318
844.156311,323
844.274292,310
844.392395,321
844.510376,314
844.628357,306
844.74646,321
844.864441,319
844.982422,337
845.100403,308
845.218384,324
845.336426,313
845.454468,320
845.572449,307
845.69043,303
845.808411,312
845.926453,307
846.044373,310
846.162354,319
846.280396,299
846.398315,319
846.516296,310
846.634216,313
846.752197,318
846.870178,327
846.988098,310
847.106079,329
847.22406,309
847.34198,319
847.4599,310
847.577881,323
847.695801,312
847.813782,309
847.931641,308
848.049561,316
848.167603,309
848.285461,312
848.403381,306
848.521362,318
848.639221,311
848.75708,322
848.875,313
848.99292,315
849.110901,317
849.22876,329
849.34668,304
849.464539,307
849.582458,317
849.700317,325
849.818176,325
849.936096,323
850.053955,317
850.171875,321
850.289673,308
850.407593,310
850.525452,307
850.643311,324
850.761169,313
850.878967,329
850.996887,308
851.114746,311
851.232544,312
851.350403,308
851.468262,316
851.58606,325
851.703979,306
851.821777,314
851.939636,321
852.057434,304
852.175232,309
852.293091,331
852.410889,311
852.528687,321
852.646545,322
852.764343,310
852.88208,319
852.999939,315
853.117676,312
853.235535,312
853.353271,325
853.471069,327
853.588928,301
853.706604,322
853.824402,329
853.9422,298
854.059998,312
854.177734,310
854.295532,303
854.413269,317
854.531006,309
854.648804,327
854.766541,309
854.884277,325
855.002014,313
855.119751,312
855.237549,319
855.355225,313
855.473022,311
855.590698,322
855.708435,332
855.826172,313
855.943848,310
856.061646,309
856.179321,322
856.296997,317
856.414795,309
856.53241,325
856.650085,304
856.767822,316
856.885559,298
857.003174,323
857.120911,297
857.238586,318
857.356201,313
857.473938,312
857.591614,325
857.709351,322
857.826965,316
857.944641,323
858.062317,319
858.179993,331
858.297668,316
858.415283,315
858.532959,320
858.650574,313
858.768188,316
858.885803,314
859.003479,319
859.121094,313
859.23877,322
859.356384,312
859.473999,308
859.591675,313
859.709229,319
859.826843,314
859.944458,327
860.062012,316
860.179626,310
860.297302,315
860.414856,304
860.532471,325
860.650024,310
860.767639,309
860.885193,317
861.002808,315
861.120361,325
861.237976,317
861.35553,333
861.473022,325
861.590698,320
861.708191,321
861.825745,318
861.943298,302
862.060852,322
862.178406,323
862.295959,312
862.413513,316
862.531006,323
862.64856,306
862.766113,307
862.883667,331
863.00116,319
863.118713,306
863.236206,322
863.353699,308
863.471252,324
863.588745,315
863.706177,295
863.82373,316
863.941162,314
864.058716,328
864.176208,327
864.29364,329
864.411194,330
864.528687,315
864.646118,329
864.763611,317
864.881042,312
864.998535,313
865.116028,317
865.233459,311
865.350891,321
865.468384,309
865.585754,319
865.703308,320
865.820679,328
865.938171,312
866.055542,310
866.173035,318
866.290466,319
866.407837,310
866.52533,319
866.6427,325
866.760071,322
866.877563,317
866.994934,311
867.112305,326
867.229736,309
867.347107,317
867.464539,312
867.58197,311
867.699341,317
867.81665,327
867.934082,322
868.051453,326
868.168823,318
868.286194,322
868.403564,306
868.520935,309
868.638306,311
868.755676,326
868.872986,315
868.990295,333
869.107727,318
869.225037,309
869.342346,316
869.459717,323
869.577026,299
869.694336,315
869.811707,322
869.929016,318
870.046326,318
870.163635,319
870.280945,303
870.398254,318
870.515564,312
870.632812,315
870.750183,316
870.867432,315
870.984741,304
871.102051,308
871.219299,318
871.336609,315
871.453918,327
871.571106,304
871.688416,316
871.805664,320
871.922852,318
872.040222,325
872.157471,316
872.274719,325
872.391968,315
872.509155,320
872.626465,315
872.743652,337
872.860962,326
872.978149,315
873.095337,316
873.212646,321
873.329834,330
873.44696,320
873.564209,327
873.681396,315
873.798645,311
873.915894,311
874.03302,320
874.150208,319
874.267456,295
874.384583,317
874.501831,309
874.618958,321
874.736145,309
874.853333,319
874.970459,311
875.087646,311
875.204834,314
875.32196,311
875.439148,311
875.556274,315
875.673401,317
875.790527,302
875.907715,316
876.024841,314
876.141968,308
876.259094,324
876.376282,315
876.493347,317
876.610474,321
876.7276,317
876.844727,318
876.961853,323
877.078918,316
877.195984,316
877.313171,306
877.430237,309
877.547302,318
877.664368,318
877.781433,306
877.898499,318
878.015625,302
878.13269,309
878.249695,320
878.366821,312
878.483887,315
878.600952,318
878.717957,321
878.834961,324
878.952087,313
879.069092,315
879.186157,315
879.303162,331
879.420227,321
879.537231,311
879.654236,324
879.77124,324
879.888306,309
880.005249,326
880.122314,312
880.239319,316
880.356323,314
880.473328,306
880.590271,320
880.707275,320
880.824341,311
880.941284,315
881.058228,315
881.175232,323
881.292236,311
881.40918,317
881.526123,318
881.643066,330
881.760071,320
881.877014,314
881.993958,329
882.11084,307
882.227783,324
882.344727,317
882.46167,318
882.578613,314
882.695618,312
882.812439,305
882.929382,314
883.046326,320
883.163208,314
883.280151,319
883.397034,306
883.513916,316
883.630798,315
883.747742,322
883.864563,320
883.981506,318
884.098389,301
884.21521,310
884.332153,315
884.448975,312
884.565796,316
884.682678,312
884.7995,317
884.916443,318
885.033264,310
885.150085,309
885.266968,324
885.383789,327
885.500671,316
885.617493,318
885.734314,328
885.851196,303
885.967896,321
886.084717,322
886.201599,305
886.318359,329
886.435181,316
886.552002,319
886.668762,322
886.785645,331
886.902344,315
887.019165,319
887.135925,308
887.252747,320
887.369446,325
887.486267,316
887.603027,316
887.719788,315
887.836548,316
887.953247,306
888.070068,317
888.186829,319
888.303528,318
888.420288,322
888.536987,309
888.653687,318
888.770447,320
888.887146,319
889.003967,317
889.120667,330
889.237305,320
889.354065,307
889.470703,308
889.587463,326
889.704163,315
889.820862,316
889.937561,326
890.054199,318
890.170837,306
890.287598,321
890.404236,307
890.520874,310
890.637634,323
890.754211,306
890.87085,312
890.987549,328
891.104187,325
891.220886,327
891.337463,321
891.454102,318
891.57074,324
891.687378,326
891.804077,315
891.920654,315
892.037231,314
892.15387,322
892.270447,314
892.387085,306
892.503723,322
892.6203,321
892.736877,325
892.853516,304
892.970032,307
893.08667,318
893.203186,322
893.319763,330
893.43634,326
893.552917,306
893.669556,304
893.786011,328
893.902588,321
894.019165,315
894.135681,314
894.252197,309
894.368835,312
894.485291,317
894.601868,306
894.718384,319
894.8349,307
894.951355,313
895.067932,317
895.184448,324
895.300964,309
895.417419,326
895.533936,329
895.650452,317
895.766907,311
895.883423,324
895.999878,321
896.116333,318
896.232849,329
896.349304,334
896.465759,313
896.582214,318
896.698669,312
896.815125,324
896.931641,311
897.048035,311
897.164551,319
897.280884,319
897.397339,312
897.513794,310
897.630249,324
897.746582,310
897.863098,318
897.979431,320
898.095886,318
898.212341,325
898.328674,302
898.445129,320
898.561462,332
898.677795,338
898.794312,314
898.910645,321
899.026978,308
899.143433,323
899.259766,314
899.37616,325
899.492493,309
899.608765,327
899.725159,316
899.841553,314
899.957947,317
900.07428,309
900.190552,316
900.306946,328
900.423157,320
900.53949,310
900.655884,323
900.772156,310
900.888489,320
901.004822,321
901.121033,316
901.237366,326
901.353699,319
901.46991,307
901.586304,305
901.702515,321
901.818787,312
901.93512,328
902.051331,324
902.167603,319
902.283875,316
902.400085,319
902.516418,302
902.632629,316
902.74884,318
902.865112,303
902.981384,329
903.097595,325
903.213867,307
903.330017,335
903.446289,312
903.5625,325
903.67865,314
903.794922,309
903.911072,310
904.027344,319
904.143494,316
904.259705,329
904.375916,328
904.492065,324
904.608215,312
904.724426,317
904.840576,305
904.956726,326
905.072876,315
905.189087,321
905.305176,315
905.421387,328
905.537537,309
905.653687,321
905.769775,294
905.885925,318
906.002014,308
906.118164,318
906.234314,314
906.350403,317
906.466492,321
906.582642,321
906.69873,331
906.814758,323
906.930908,312
907.046936,316
907.163086,311
907.279175,324
907.395264,319
907.511353,327
907.62738,288
907.743408,325
907.859497,317
907.975525,331
908.091553,315
908.207703,333
908.32373,315
908.439758,326
908.555786,307
908.671814,323
908.787842,309
908.90387,322
909.019775,312
909.135864,324
909.251892,320
909.367859,321
909.483826,316
909.599854,304
909.715881,313
909.831848,304
909.947815,323
910.063782,318
910.179749,316
910.295776,326
910.411743,306
910.527649,317
910.643616,311
910.759583,329
910.875488,306
910.991455,329
911.107361,312
911.223267,313
911.339294,320
911.4552,319
911.571106,306
911.687073,326
911.802979,313
911.918823,319
912.034729,319
912.150635,307
912.266602,311
912.382446,329
912.498352,326
912.614197,319
912.730103,325
912.846008,316
