792.44574,308
792.56488,344
792.68396,395
792.80304,365
792.92218,332
793.041199,318
793.160339,308
793.279419,325
793.398499,331
793.517578,303
793.636658,302
793.755737,321
793.874817,341
793.993896,333
794.112976,323
794.232056,304
794.351074,315
794.470215,318
794.589233,315
794.708313,304
794.827393,327
794.946411,322
795.065552,337
795.18457,326
795.303589,304
795.422668,326
795.541687,309
795.660767,322
795.779846,326
795.898865,333
796.017883,336
796.136963,316
796.255981,329
796.375061,325
796.49408,325
796.613037,319
796.732117,331
796.851135,325
796.970154,334
797.089233,311
797.208191,318
797.327271,314
797.446228,336
797.565186,315
797.684265,316
797.803223,320
797.922241,333
798.04126,318
798.160278,319
798.279297,325
798.398315,311
798.517273,325
798.636292,322
798.75531,331
798.874268,324
798.993286,321
799.112244,322
799.231323,316
799.350281,337
799.469238,322
799.588257,322
799.707153,324
799.826111,319
799.945129,311
800.064087,320
800.183044,319
800.302063,314
800.421021,314
800.539978,318
800.658936,314
800.777893,320
800.896912,300
801.015747,328
801.134705,327
801.253723,316
801.37262,314
801.491638,333
801.610535,313
801.729492,317
801.84845,323
801.967407,325
802.086243,320
802.205261,312
802.324158,318
802.443115,321
802.562073,330
802.680969,306
802.799927,315
802.918762,321
803.037659,321
803.156677,310
803.275574,314
803.39447,318
803.513428,318
803.632263,313
803.751221,321
803.870117,309
803.989014,328
804.107971,322
804.226746,315
804.345642,324
804.4646,318
804.583496,319
804.702393,321
804.821228,322
804.940125,316
805.059021,315
805.177917,324
805.296814,316
805.415649,324
805.534546,318
805.653442,309
805.772278,318
805.891113,321
806.01001,314
806.128906,337
806.247742,321
806.366577,328
806.485413,323
806.604309,307
806.723145,324
806.84198,325
806.960876,312
807.079712,315
807.198486,321
807.317383,317
807.436218,313
807.554993,318
807.673889,313
807.792725,310
807.91156,308
808.030396,317
808.14917,316
808.268005,318
808.386841,333
808.505676,312
808.624451,324
808.743286,316
808.862122,317
808.980896,311
809.099731,317
809.218506,296
809.337341,312
809.456116,323
809.57489,313
809.693726,323
809.8125,321
809.931274,322
810.050049,321
810.168884,325
810.287659,307
810.406372,307
810.525269,308
810.643982,320
810.762756,314
810.881531,313
811.000305,323
811.11908,315
811.237854,314
811.356567,317
811.475403,321
811.594116,322
811.71283,307
811.831604,320
811.950378,312
812.069153,315
812.187927,321
812.30658,311
812.425415,319
812.544128,318
812.662781,316
812.781616,317
812.900269,309
813.019043,313
813.137756,307
813.256531,313
813.375244,312
813.493896,327
813.612671,312
813.731384,324
813.850037,315
813.96875,315
814.087524,312
814.206238,308
814.324951,313
814.443604,312
814.562256,327
814.68103,324
814.799683,320
814.918335,308
815.037109,326
815.155762,328
815.274475,325
815.393188,323
815.511841,321
815.630554,323
815.749146,330
815.867859,311
815.986572,303
816.105164,317
816.223877,316
816.342529,313
816.461182,321
816.579895,325
816.698486,323
816.817139,309
816.935791,329
817.054504,310
817.173096,315
817.291748,319
817.4104,319
817.529053,325
817.647644,326
817.766235,330
817.884949,323
818.00354,313
818.122192,317
818.240845,309
818.359436,314
818.478088,325
818.59668,313
818.715271,328
818.833923,307
818.952515,307
819.071106,308
819.189758,313
819.30835,317
819.426941,325
819.545532,321
819.664124,315
819.782715,306
819.901306,307
820.019897,312
820.138489,311
820.25708,331
820.375671,305
820.494202,314
820.612732,320
820.731384,319
820.849915,323
820.968506,316
821.087097,309
821.205627,321
821.324158,299
821.442749,316
821.561279,319
821.679871,314
821.798401,324
821.916931,316
822.035461,319
822.154053,319
822.272583,318
822.391174,316
822.509583,302
822.628174,304
822.746704,313
822.865234,313
822.983765,322
823.102295,324
823.220825,307
823.339294,312
823.457825,314
823.576355,315
823.694824,307
823.813354,308
823.931885,317
824.050354,325
824.168884,321
824.287354,307
824.405823,312
824.524353,318
824.642822,308
824.761353,316
824.879822,312
824.998291,312
825.116699,315
825.235291,322
825.353699,312
825.472168,321
825.590637,315
825.709106,304
825.827576,324
825.946045,313
826.064453,321
826.182983,321
826.301392,302
826.4198,318
826.53833,319
826.656738,308
826.775208,309
826.893677,317
827.012024,319
827.130493,325
827.248962,306
827.36731,311
827.485779,315
827.604248,305
827.722595,326
827.841064,304
827.959412,308
828.077942,328
828.196289,307
828.314636,312
828.433105,330
828.551514,313
828.669861,307
828.78833,316
828.906677,317
829.025085,313
829.143433,309
829.261841,318
829.38031,324
829.498657,312
829.617004,319
829.735413,301
829.85376,308
829.972107,325
830.090515,327
830.208862,317
830.327209,295
830.445557,319
830.563904,309
830.682312,326
830.800659,316
830.919006,311
831.037354,319
831.155701,323
831.274048,320
831.392395,324
831.51062,312
831.629028,311
831.747314,313
831.865662,316
831.984009,313
832.102356,314
832.220642,312
832.338928,320
832.457275,318
832.575623,319
832.693909,329
832.812134,309
832.930481,322
833.048828,306
833.167114,321
833.2854,318
833.403687,324
833.521973,310
833.640259,316
833.758545,311
833.876831,313
833.995056,315
834.113281,323
834.231628,313
834.349915,306
834.468201,325
834.586426,323
834.704651,321
834.822998,319
834.941162,322
835.059448,313
835.177673,295
835.295959,323
835.414246,325
835.53241,318
835.650635,306
835.768921,315
835.887146,311
836.005371,316
836.123596,316
836.241821,316
836.360046,321
836.478271,322
836.596497,320
836.714722,322
836.832886,306
836.95105,322
837.069336,328
837.1875,334
837.305725,318
837.423889,306
837.542053,327
837.660339,313
837.778503,309
837.896667,315
838.014832,299
838.132996,315
838.25116,306
838.369385,316
838.487488,306
838.605713,324
838.723877,320
838.84198,312
838.960205,312
839.078308,315
839.196472,323
839.314636,317
839.4328,317
839.550964,317
839.669067,300
839.787231,325
839.905396,315
840.023499,321
840.141602,318
840.259766,318
840.377869,315
840.495972,310
840.614136,305
840.732239,313
840.850342,313
840.968445,310
841.086548,303
841.204651,318
841.322754,309
841.440918,309
841.55896,326
841.677002,314
841.795166,314
841.913208,313
842.031311,314
842.149353,310
842.267456,317
842.385498,309
842.503601,309
842.621643,328
842.739746,304
842.857788,315
842.97583,317
843.093933,311
843.211975,321
843.330017,308
843.44812,305
843.566101,312
843.684204,311
843.802246,311
843.920227,311
844.038269,303
844.156311,332
844.274292,321
844.392395,303
844.510376,312
844.628357,318
844.74646,310
844.864441,306
844.982422,315
845.100403,325
845.218384,318
845.336426,309
845.454468,314
845.572449,321
845.69043,312
845.808411,304
845.926453,312
846.044373,304
846.162354,315
846.280396,317
846.398315,315
846.516296,309
846.634216,312
846.752197,330
846.870178,319
846.988098,303
847.106079,316
847.22406,309
847.34198,316
847.4599,300
847.577881,311
847.695801,317
847.813782,304
847.931641,322
848.049561,311
848.167603,319
848.285461,319
848.403381,324
848.521362,320
848.639221,317
848.75708,309
848.875,306
848.99292,324
849.110901,323
849.22876,315
849.34668,320
849.464539,327
849.582458,322
849.700317,312
849.818176,306
849.936096,319
850.053955,308
850.171875,310
850.289673,315
850.407593,314
850.525452,307
850.643311,316
850.761169,311
850.878967,321
850.996887,312
851.114746,318
851.232544,312
851.350403,326
851.468262,316
851.58606,314
851.703979,304
851.821777,319
851.939636,311
852.057434,317
852.175232,303
852.293091,316
852.410889,312
852.528687,318
852.646545,326
852.764343,301
852.88208,310
852.999939,324
853.117676,316
853.235535,315
853.353271,314
853.471069,317
853.588928,305
853.706604,309
853.824402,317
853.9422,318
854.059998,300
854.177734,316
854.295532,301
854.413269,316
854.531006,303
854.648804,319
854.766541,323
854.884277,311
855.002014,314
855.119751,311
855.237549,314
855.355225,311
855.473022,321
855.590698,319
855.708435,313
855.826172,322
855.943848,322
856.061646,330
856.179321,318
856.296997,311
856.414795,325
856.53241,316
856.650085,318
856.767822,316
856.885559,301
857.003174,324
857.120911,311
857.238586,327
857.356201,313
857.473938,321
857.591614,302
857.709351,314
857.826965,319
857.944641,312
858.062317,313
858.179993,304
858.297668,322
858.415283,325
858.532959,327
858.650574,307
858.768188,308
858.885803,320
859.003479,314
859.121094,307
859.23877,302
859.356384,306
859.473999,323
859.591675,320
859.709229,300
859.826843,309
859.944458,324
860.062012,317
860.179626,318
860.297302,311
860.414856,312
860.532471,320
860.650024,305
860.767639,335
860.885193,319
861.002808,304
861.120361,313
861.237976,318
861.35553,325
861.473022,311
861.590698,309
861.708191,318
861.825745,306
861.943298,311
862.060852,304
862.178406,313
862.295959,312
862.413513,310
862.531006,314
862.64856,309
862.766113,311
862.883667,315
863.00116,323
863.118713,322
863.236206,306
863.353699,317
863.471252,314
863.588745,298
863.706177,309
863.82373,313
863.941162,312
864.058716,329
864.176208,312
864.29364,320
864.411194,318
864.528687,304
864.646118,309
864.763611,309
864.881042,319
864.998535,305
865.116028,306
865.233459,321
865.350891,306
865.468384,321
865.585754,314
865.703308,314
865.820679,321
865.938171,319
866.055542,313
866.173035,308
866.290466,307
866.407837,303
866.52533,306
866.6427,320
866.760071,316
866.877563,313
866.994934,320
867.112305,321
867.229736,316
867.347107,300
867.464539,302
867.58197,319
867.699341,320
867.81665,319
867.934082,300
868.051453,306
868.168823,307
868.286194,328
868.403564,310
868.520935,309
868.638306,314
868.755676,313
868.872986,305
868.990295,328
869.107727,327
869.225037,323
869.342346,291
869.459717,306
869.577026,316
869.694336,320
869.811707,319
869.929016,308
870.046326,293
870.163635,319
870.280945,321
870.398254,309
870.515564,304
870.632812,306
870.750183,332
870.867432,303
870.984741,326
871.102051,305
871.219299,302
871.336609,317
871.453918,303
871.571106,319
871.688416,309
871.805664,320
871.922852,308
872.040222,322
872.157471,318
872.274719,324
872.391968,322
872.509155,325
872.626465,320
872.743652,309
872.860962,313
872.978149,314
873.095337,306
873.212646,332
873.329834,305
873.44696,301
873.564209,321
873.681396,327
873.798645,324
873.915894,311
874.03302,304
874.150208,310
874.267456,326
874.384583,323
874.501831,310
874.618958,318
874.736145,309
874.853333,317
874.970459,311
875.087646,324
875.204834,315
875.32196,317
875.439148,327
875.556274,325
875.673401,310
875.790527,323
875.907715,304
876.024841,323
876.141968,317
876.259094,318
876.376282,308
876.493347,305
876.610474,318
876.7276,327
876.844727,314
876.961853,318
877.078918,308
877.195984,328
877.313171,317
877.430237,305
877.547302,323
877.664368,323
877.781433,307
877.898499,316
878.015625,306
878.13269,322
878.249695,305
878.366821,316
878.483887,323
878.600952,300
878.717957,324
878.834961,309
878.952087,320
879.069092,320
879.186157,303
879.303162,307
879.420227,314
879.537231,317
879.654236,319
879.77124,318
879.888306,317
880.005249,312
880.122314,308
880.239319,313
880.356323,308
880.473328,311
880.590271,310
880.707275,310
880.824341,322
880.941284,320
881.058228,310
881.175232,304
881.292236,300
881.40918,322
881.526123,321
881.643066,317
881.760071,310
881.877014,325
881.993958,319
882.11084,306
882.227783,309
882.344727,309
882.46167,325
882.578613,315
882.695618,313
882.812439,322
882.929382,313
883.046326,313
883.163208,303
883.280151,311
883.397034,308
883.513916,317
883.630798,328
883.747742,309
883.864563,317
883.981506,324
884.098389,308
884.21521,306
884.332153,305
884.448975,311
884.565796,318
884.682678,314
884.7995,315
884.916443,313
885.033264,319
885.150085,304
885.266968,308
885.383789,326
885.500671,309
885.617493,308
885.734314,318
885.851196,315
885.967896,314
886.084717,321
886.201599,313
886.318359,309
886.435181,316
886.552002,326
886.668762,312
886.785645,319
886.902344,308
887.019165,302
887.135925,319
887.252747,329
887.369446,309
887.486267,338
887.603027,310
887.719788,321
887.836548,317
887.953247,323
888.070068,315
888.186829,308
888.303528,314
888.420288,314
888.536987,313
888.653687,309
888.770447,304
888.887146,324
889.003967,324
889.120667,324
889.237305,316
889.354065,300
889.470703,315
889.587463,318
889.704163,312
889.820862,310
889.937561,305
890.054199,304
890.170837,306
890.287598,315
890.404236,315
890.520874,315
890.637634,316
890.754211,314
890.87085,316
890.987549,330
891.104187,307
891.220886,319
891.337463,316
891.454102,305
891.57074,321
891.687378,314
891.804077,299
891.920654,320
892.037231,310
892.15387,312
892.270447,307
892.387085,325
892.503723,319
892.6203,316
892.736877,324
892.853516,310
892.970032,313
893.08667,302
893.203186,290
893.319763,321
893.43634,309
893.552917,327
893.669556,320
893.786011,308
893.902588,316
894.019165,320
894.135681,317
894.252197,321
894.368835,314
894.485291,315
894.601868,307
894.718384,334
894.8349,307
894.951355,319
895.067932,332
895.184448,323
895.300964,318
895.417419,310
895.533936,311
895.650452,305
895.766907,305
895.883423,315
895.999878,314
896.116333,314
896.232849,319
896.349304,319
896.465759,315
896.582214,330
896.698669,302
896.815125,316
896.931641,312
897.048035,313
897.164551,320
897.280884,309
897.397339,314
897.513794,305
897.630249,305
897.746582,320
897.863098,314
897.979431,332
898.095886,309
898.212341,311
898.328674,313
898.445129,318
898.561462,312
898.677795,313
898.794312,308
898.910645,320
899.026978,310
899.143433,329
899.259766,314
899.37616,334
899.492493,319
899.608765,329
899.725159,325
899.841553,310
899.957947,316
900.07428,310
900.190552,314
900.306946,323
900.423157,314
900.53949,317
900.655884,324
900.772156,319
900.888489,320
901.004822,312
901.121033,316
901.237366,318
901.353699,307
901.46991,321
901.586304,298
901.702515,326
901.818787,309
901.93512,315
902.051331,305
902.167603,309
902.283875,330
902.400085,314
902.516418,308
902.632629,308
902.74884,318
902.865112,305
902.981384,317
903.097595,309
903.213867,319
903.330017,317
903.446289,314
903.5625,312
903.67865,319
903.794922,317
903.911072,325
904.027344,324
904.143494,310
904.259705,318
904.375916,320
904.492065,320
904.608215,324
904.724426,325
904.840576,299
904.956726,313
905.072876,312
905.189087,306
905.305176,318
905.421387,323
905.537537,304
905.653687,319
905.769775,312
905.885925,316
906.002014,325
906.118164,318
906.234314,301
906.350403,327
906.466492,317
906.582642,304
906.69873,311
906.814758,304
906.930908,307
907.046936,308
907.163086,307
907.279175,315
907.395264,300
907.511353,321
907.62738,315
907.743408,316
907.859497,313
907.975525,324
908.091553,308
908.207703,310
908.32373,305
908.439758,316
908.555786,310
908.671814,308
908.787842,311
908.90387,324
909.019775,315
909.135864,318
909.251892,309
909.367859,313
909.483826,327
909.599854,306
909.715881,312
909.831848,316
909.947815,315
910.063782,328
910.179749,314
910.295776,327
910.411743,311
910.527649,316
910.643616,302
910.759583,308
910.875488,315
910.991455,313
911.107361,314
911.223267,316
911.339294,312
911.4552,312
911.571106,308
911.687073,320
911.802979,319
911.918823,319
912.034729,311
912.150635,312
912.266602,316
912.382446,326
912.498352,319
912.614197,317
912.730103,316
912.846008,315
792.44574,310
792.56488,360
792.68396,400
792.80304,363
792.92218,321
793.041199,315
793.160339,315
793.279419,323
793.398499,317
793.517578,310
793.636658,298
793.755737,339
793.874817,343
793.993896,336
794.112976,317
794.232056,321
794.351074,329
794.470215,320
794.589233,323
794.708313,316
794.827393,316
794.946411,323
795.065552,334
795.18457,343
795.303589,339
795.422668,326
795.541687,328
795.660767,328
795.779846,333
795.898865,333
796.017883,320
796.136963,313
796.255981,319
796.375061,330
796.49408,320
796.613037,329
796.732117,322
796.851135,319
796.970154,317
797.089233,318
797.208191,325
797.327271,322
797.446228,318
797.565186,311
797.684265,333
797.803223,321
797.922241,335
798.04126,317
798.160278,315
798.279297,320
798.398315,340
798.517273,316
798.636292,313
798.75531,317
798.874268,328
798.993286,318
799.112244,324
799.231323,330
799.350281,330
799.469238,316
799.588257,325
799.707153,319
799.826111,330
799.945129,311
800.064087,308
800.183044,316
800.302063,326
800.421021,321
800.539978,310
800.658936,323
800.777893,326
800.896912,311
801.015747,326
801.134705,307
801.253723,324
801.37262,319
801.491638,344
801.610535,320
801.729492,317
801.84845,322
801.967407,317
802.086243,309
802.205261,319
802.324158,312
802.443115,321
802.562073,327
802.680969,320
802.799927,325
802.918762,336
803.037659,315
803.156677,311
803.275574,317
803.39447,319
803.513428,329
803.632263,313
803.751221,320
803.870117,315
803.989014,330
804.107971,309
804.226746,318
804.345642,327
804.4646,332
804.583496,321
804.702393,310
804.821228,326
804.940125,321
805.059021,314
805.177917,313
805.296814,291
805.415649,330
805.534546,326
805.653442,326
805.772278,323
805.891113,320
806.01001,325
806.128906,331
806.247742,318
806.366577,324
806.485413,315
806.604309,333
806.723145,316
806.84198,307
806.960876,318
807.079712,314
807.198486,317
807.317383,332
807.436218,319
807.554993,316
807.673889,323
807.792725,321
807.91156,325
808.030396,326
808.14917,316
808.268005,324
808.386841,318
808.505676,328
808.624451,324
808.743286,320
808.862122,326
808.980896,323
809.099731,320
809.218506,320
809.337341,324
809.456116,320
809.57489,341
809.693726,326
809.8125,340
809.931274,317
810.050049,325
810.168884,318
810.287659,305
810.406372,314
810.525269,315
810.643982,305
810.762756,327
810.881531,324
811.000305,331
811.11908,326
811.237854,320
811.356567,311
811.475403,316
811.594116,309
811.71283,322
811.831604,326
811.950378,301
812.069153,345
812.187927,331
812.30658,320
812.425415,320
812.544128,324
812.662781,322
812.781616,315
812.900269,317
813.019043,314
813.137756,326
813.256531,312
813.375244,322
813.493896,310
813.612671,321
813.731384,313
813.850037,305
813.96875,322
814.087524,332
814.206238,327
814.324951,325
814.443604,332
814.562256,318
814.68103,307
814.799683,313
814.918335,313
815.037109,315
815.155762,316
815.274475,318
815.393188,313
815.511841,309
815.630554,320
815.749146,317
815.867859,310
815.986572,323
816.105164,314
816.223877,316
816.342529,313
816.461182,331
816.579895,321
816.698486,337
816.817139,329
816.935791,320
817.054504,308
817.173096,322
817.291748,318
817.4104,320
817.529053,325
817.647644,326
817.766235,319
817.884949,318
818.00354,311
818.122192,319
818.240845,316
818.359436,311
818.478088,316
818.59668,324
818.715271,318
818.833923,313
818.952515,323
819.071106,304
819.189758,321
819.30835,320
819.426941,327
819.545532,323
819.664124,314
819.782715,304
819.901306,327
820.019897,332
820.138489,315
820.25708,312
820.375671,316
820.494202,312
820.612732,328
820.731384,310
820.849915,314
820.968506,311
821.087097,322
821.205627,317
821.324158,312
821.442749,320
821.561279,314
821.679871,318
821.798401,320
821.916931,328
822.035461,317
822.154053,316
822.272583,320
822.391174,299
822.509583,323
822.628174,320
822.746704,308
822.865234,330
822.983765,326
823.102295,317
823.220825,319
823.339294,312
823.457825,308
823.576355,332
823.694824,323
823.813354,312
823.931885,325
824.050354,323
824.168884,321
824.287354,322
824.405823,309
824.524353,317
824.642822,337
824.761353,313
824.879822,314
824.998291,318
825.116699,317
825.235291,320
825.353699,323
825.472168,308
825.590637,314
825.709106,302
825.827576,320
825.946045,309
826.064453,303
826.182983,321
826.301392,318
826.4198,324
826.53833,321
826.656738,319
826.775208,318
826.893677,325
827.012024,318
827.130493,299
827.248962,326
827.36731,314
827.485779,322
827.604248,317
827.722595,320
827.841064,300
827.959412,308
828.077942,316
828.196289,318
828.314636,303
828.433105,317
828.551514,321
828.669861,317
828.78833,319
828.906677,315
829.025085,316
829.143433,323
829.261841,324
829.38031,317
829.498657,313
829.617004,315
829.735413,317
829.85376,317
829.972107,330
830.090515,320
830.208862,315
830.327209,319
830.445557,310
830.563904,311
830.682312,322
830.800659,316
830.919006,307
831.037354,323
831.155701,316
831.274048,320
831.392395,308
831.51062,314
831.629028,323
831.747314,311
831.865662,321
831.984009,323
832.102356,317
832.220642,311
832.338928,325
832.457275,314
832.575623,301
832.693909,335
832.812134,316
832.930481,320
833.048828,312
833.167114,316
833.2854,313
833.403687,318
833.521973,326
833.640259,314
833.758545,313
833.876831,315
833.995056,310
834.113281,320
834.231628,310
834.349915,323
834.468201,317
834.586426,313
834.704651,308
834.822998,323
834.941162,314
835.059448,316
835.177673,320
835.295959,308
835.414246,304
835.53241,320
835.650635,324
835.768921,330
835.887146,325
836.005371,322
836.123596,313
836.241821,312
836.360046,309
836.478271,314
836.596497,320
836.714722,316
836.832886,316
836.95105,311
837.069336,304
837.1875,316
837.305725,318
837.423889,336
837.542053,330
837.660339,311
837.778503,327
837.896667,317
838.014832,323
838.132996,315
838.25116,317
838.369385,323
838.487488,321
838.605713,319
838.723877,324
838.84198,321
838.960205,319
839.078308,318
839.196472,318
839.314636,324
839.4328,310
839.550964,300
839.669067,322
839.787231,319
839.905396,306
840.023499,311
840.141602,313
840.259766,327
840.377869,316
840.495972,327
840.614136,315
840.732239,324
840.850342,303
840.968445,309
841.086548,321
841.204651,323
841.322754,317
841.440918,337
841.55896,310
841.677002,322
841.795166,317
841.913208,329
842.031311,330
842.149353,317
842.267456,310
842.385498,323
842.503601,309
842.621643,314
842.739746,321
842.857788,320
842.97583,325
843.093933,313
843.211975,325
843.330017,327
843.44812,298
843.566101,330
843.684204,302
843.802246,303
843.920227,330
844.038269,311
844.156311,304
844.274292,321
844.392395,312
844.510376,309
844.628357,301
844.74646,322
844.864441,313
844.982422,309
845.100403,305
845.218384,322
845.336426,312
845.454468,326
845.572449,313
845.69043,316
845.808411,318
845.926453,306
846.044373,316
846.162354,311
846.280396,313
846.398315,322
846.516296,319
846.634216,314
846.752197,307
846.870178,321
846.988098,298
847.106079,331
847.22406,326
847.34198,318
847.4599,317
847.577881,312
847.695801,319
847.813782,312
847.931641,304
848.049561,316
848.167603,315
848.285461,310
848.403381,321
848.521362,306
848.639221,316
848.75708,312
848.875,305
848.99292,316
849.110901,306
849.22876,316
849.34668,315
849.464539,316
849.582458,304
849.700317,310
849.818176,323
849.936096,313
850.053955,307
850.171875,317
850.289673,302
850.407593,318
850.525452,309
850.643311,311
850.761169,319
850.878967,317
850.996887,306
851.114746,315
851.232544,329
851.350403,319
851.468262,312
851.58606,313
851.703979,313
851.821777,318
851.939636,338
852.057434,329
852.175232,318
852.293091,320
852.410889,317
852.528687,314
852.646545,309
852.764343,314
852.88208,316
852.999939,316
853.117676,316
853.235535,314
853.353271,313
853.471069,315
853.588928,307
853.706604,314
853.824402,329
853.9422,308
854.059998,314
854.177734,321
854.295532,329
854.413269,316
854.531006,310
854.648804,318
854.766541,312
854.884277,323
855.002014,316
855.119751,323
855.237549,314
855.355225,327
855.473022,316
855.590698,315
855.708435,308
855.826172,307
855.943848,312
856.061646,319
856.179321,319
856.296997,305
856.414795,321
856.53241,331
856.650085,300
856.767822,313
856.885559,314
857.003174,321
857.120911,307
857.238586,327
857.356201,315
857.473938,325
857.591614,316
857.709351,321
857.826965,322
857.944641,307
858.062317,306
858.179993,315
858.297668,320
858.415283,318
858.532959,314
858.650574,329
858.768188,318
858.885803,303
859.003479,327
859.121094,314
859.23877,315
859.356384,325
859.473999,312
859.591675,319
859.709229,311
859.826843,305
859.944458,310
860.062012,323
860.179626,323
860.297302,324
860.414856,309
860.532471,316
860.650024,321
860.767639,314
860.885193,310
861.002808,323
861.120361,311
861.237976,308
861.35553,320
861.473022,315
861.590698,324
861.708191,314
861.825745,305
861.943298,320
862.060852,315
862.178406,315
862.295959,320
862.413513,313
862.531006,307
862.64856,325
862.766113,310
862.883667,320
863.00116,319
863.118713,317
863.236206,305
863.353699,309
863.471252,307
863.588745,320
863.706177,309
863.82373,307
863.941162,313
864.058716,300
864.176208,312
864.29364,329
864.411194,306
864.528687,319
864.646118,315
864.763611,319
864.881042,317
864.998535,326
865.116028,318
865.233459,330
865.350891,329
865.468384,329
865.585754,320
865.703308,334
865.820679,301
865.938171,318
866.055542,314
866.173035,323
866.290466,311
866.407837,308
866.52533,316
866.6427,319
866.760071,306
866.877563,327
866.994934,305
867.112305,321
867.229736,332
867.347107,318
867.464539,328
867.58197,317
867.699341,319
867.81665,319
867.934082,320
868.051453,316
868.168823,320
868.286194,319
868.403564,323
868.520935,315
868.638306,310
868.755676,308
868.872986,304
868.990295,325
869.107727,319
869.225037,330
869.342346,320
869.459717,317
869.577026,312
869.694336,312
869.811707,318
869.929016,318
870.046326,329
870.163635,321
870.280945,310
870.398254,312
870.515564,318
870.632812,318
870.750183,302
870.867432,319
870.984741,317
871.102051,304
871.219299,312
871.336609,315
871.453918,302
871.571106,322
871.688416,315
871.805664,313
871.922852,309
872.040222,319
872.157471,320
872.274719,317
872.391968,332
872.509155,309
872.626465,305
872.743652,313
872.860962,309
872.978149,333
873.095337,305
873.212646,326
873.329834,312
873.44696,310
873.564209,309
873.681396,300
873.798645,312
873.915894,320
874.03302,329
874.150208,314
874.267456,321
874.384583,318
874.501831,309
874.618958,314
874.736145,331
874.853333,316
874.970459,312
875.087646,319
875.204834,315
875.32196,327
875.439148,309
875.556274,306
875.673401,311
875.790527,322
875.907715,321
876.024841,314
876.141968,310
876.259094,325
876.376282,327
876.493347,317
876.610474,312
876.7276,317
876.844727,321
876.961853,317
877.078918,324
877.195984,318
877.313171,314
877.430237,307
877.547302,318
877.664368,308
877.781433,309
877.898499,319
878.015625,308
878.13269,323
878.249695,310
878.366821,315
878.483887,317
878.600952,321
878.717957,323
878.834961,321
878.952087,309
879.069092,322
879.186157,310
879.303162,326
879.420227,324
879.537231,315
879.654236,317
879.77124,327
879.888306,309
880.005249,328
880.122314,311
880.239319,324
880.356323,316
880.473328,309
880.590271,322
880.707275,324
880.824341,316
880.941284,318
881.058228,311
881.175232,326
881.292236,322
881.40918,319
881.526123,306
881.643066,333
881.760071,321
881.877014,325
881.993958,312
882.11084,318
882.227783,315
882.344727,327
882.46167,326
882.578613,319
882.695618,327
882.812439,321
882.929382,315
883.046326,324
883.163208,313
883.280151,320
883.397034,309
883.513916,305
883.630798,312
883.747742,315
883.864563,299
883.981506,322
884.098389,309
884.21521,321
884.332153,308
884.448975,316
884.565796,310
884.682678,323
884.7995,318
884.916443,322
885.033264,307
885.150085,318
885.266968,305
885.383789,312
885.500671,319
885.617493,325
885.734314,314
885.851196,323
885.967896,317
886.084717,312
886.201599,332
886.318359,313
886.435181,308
886.552002,317
886.668762,312
886.785645,331
886.902344,309
887.019165,328
887.135925,313
887.252747,312
887.369446,317
887.486267,314
887.603027,319
887.719788,330
887.836548,310
887.953247,319
888.070068,325
888.186829,322
888.303528,312
888.420288,323
888.536987,319
888.653687,316
888.770447,308
888.887146,316
889.003967,315
889.120667,333
889.237305,306
889.354065,322
889.470703,312
889.587463,321
889.704163,312
889.820862,315
889.937561,315
890.054199,312
890.170837,322
890.287598,317
890.404236,311
890.520874,327
890.637634,308
890.754211,316
890.87085,305
890.987549,311
891.104187,322
891.220886,322
891.337463,310
891.454102,308
891.57074,306
891.687378,314
891.804077,319
891.920654,319
892.037231,341
892.15387,323
892.270447,311
892.387085,319
892.503723,306
892.6203,316
892.736877,306
892.853516,321
892.970032,325
893.08667,323
893.203186,312
893.319763,311
893.43634,315
893.552917,314
893.669556,303
893.786011,323
893.902588,310
894.019165,318
894.135681,317
894.252197,316
894.368835,317
894.485291,309
894.601868,321
894.718384,320
894.8349,317
894.951355,318
895.067932,304
895.184448,317
895.300964,322
895.417419,323
895.533936,311
895.650452,319
895.766907,331
895.883423,321
895.999878,321
896.116333,311
896.232849,314
896.349304,315
896.465759,312
896.582214,316
896.698669,333
896.815125,314
896.931641,322
897.048035,325
897.164551,327
897.280884,324
897.397339,316
897.513794,328
897.630249,313
897.746582,312
897.863098,332
897.979431,308
898.095886,315
898.212341,323
898.328674,304
898.445129,323
898.561462,320
898.677795,326
898.794312,316
898.910645,314
899.026978,321
899.143433,303
899.259766,329
899.37616,322
899.492493,320
899.608765,304
899.725159,318
899.841553,322
899.957947,320
900.07428,324
900.190552,321
900.306946,312
900.423157,318
900.53949,309
900.655884,307
900.772156,329
900.888489,319
901.004822,304
901.121033,330
901.237366,313
901.353699,320
901.46991,311
901.586304,312
901.702515,328
901.818787,306
901.93512,325
902.051331,312
902.167603,329
902.283875,318
902.400085,309
902.516418,322
902.632629,316
902.74884,323
902.865112,319
902.981384,318
903.097595,313
903.213867,305
903.330017,323
903.446289,304
903.5625,319
903.67865,320
903.794922,321
903.911072,316
904.027344,312
904.143494,318
904.259705,314
904.375916,315
904.492065,320
904.608215,308
904.724426,328
904.840576,303
904.956726,327
905.072876,317
905.189087,316
905.305176,322
905.421387,317
905.537537,321
905.653687,317
905.769775,312
905.885925,322
906.002014,315
906.118164,318
906.234314,307
906.350403,316
906.466492,324
906.582642,318
906.69873,316
906.814758,325
906.930908,320
907.046936,314
907.163086,309
907.279175,321
907.395264,310
907.511353,316
907.62738,312
907.743408,330
907.859497,317
907.975525,323
908.091553,307
908.207703,315
908.32373,330
908.439758,317
908.555786,316
908.671814,310
908.787842,327
908.90387,314
909.019775,312
909.135864,315
909.251892,310
909.367859,307
909.483826,300
909.599854,330
909.715881,319
909.831848,321
909.947815,321
910.063782,319
910.179749,326
910.295776,321
910.411743,306
910.527649,321
910.643616,316
910.759583,319
910.875488,317
910.991455,318
911.107361,318
911.223267,317
911.339294,324
911.4552,333
911.571106,314
911.687073,312
911.802979,334
911.918823,311
912.034729,325
912.150635,326
912.266602,321
912.382446,329
912.498352,296
912.614197,329
912.730103,304
912.846008,329
792.44574,312
792.56488,325
792.68396,402
792.80304,373
792.92218,332
793.041199,313
793.160339,331
793.279419,321
793.398499,318
793.517578,323
793.636658,303
793.755737,318
793.874817,335
793.993896,339
794.112976,343
794.232056,312
794.351074,326
794.470215,323
794.589233,332
794.708313,317
794.827393,328
794.946411,313
795.065552,330
795.18457,326
795.303589,332
795.422668,326
795.541687,333
795.660767,310
795.779846,337
795.898865,313
796.017883,335
796.136963,331
796.255981,323
796.375061,344
796.49408,328
796.613037,319
796.732117,327
796.851135,318
796.970154,311
797.089233,322
797.208191,317
797.327271,330
797.446228,325
797.565186,325
797.684265,326
797.803223,331
797.922241,323
798.04126,319
798.160278,325
798.279297,289
798.398315,340
798.517273,318
798.636292,316
798.75531,316
798.874268,321
798.993286,335
799.112244,320
799.231323,314
799.350281,324
799.469238,306
799.588257,321
799.707153,306
799.826111,316
799.945129,320
800.064087,326
800.183044,328
800.302063,324
800.421021,316
800.539978,316
800.658936,327
800.777893,324
800.896912,321
801.015747,328
801.134705,341
801.253723,325
801.37262,306
801.491638,314
801.610535,312
801.729492,330
801.84845,328
801.967407,332
802.086243,326
802.205261,332
802.324158,312
802.443115,319
802.562073,324
802.680969,311
802.799927,323
802.918762,312
803.037659,312
803.156677,322
803.275574,312
803.39447,317
803.513428,319
803.632263,323
803.751221,332
803.870117,325
803.989014,321
804.107971,318
804.226746,322
804.345642,312
804.4646,328
804.583496,331
804.702393,313
804.821228,333
804.940125,310
805.059021,311
805.177917,325
805.296814,317
805.415649,338
805.534546,315
805.653442,322
805.772278,326
805.891113,317
806.01001,316
806.128906,322
806.247742,312
806.366577,312
806.485413,316
806.604309,341
806.723145,319
806.84198,317
806.960876,320
807.079712,320
807.198486,312
807.317383,312
807.436218,309
807.554993,325
807.673889,342
807.792725,324
807.91156,323
808.030396,314
808.14917,318
808.268005,330
808.386841,324
808.505676,310
808.624451,325
808.743286,314
808.862122,317
808.980896,317
809.099731,318
809.218506,312
809.337341,334
809.456116,331
809.57489,320
809.693726,315
809.8125,311
809.931274,329
810.050049,317
810.168884,324
810.287659,312
810.406372,321
810.525269,317
810.643982,317
810.762756,317
810.881531,325
811.000305,322
811.11908,313
811.237854,316
811.356567,310
811.475403,310
811.594116,317
811.71283,320
811.831604,317
811.950378,324
812.069153,319
812.187927,319
812.30658,321
812.425415,321
812.544128,316
812.662781,327
812.781616,329
812.900269,319
813.019043,323
813.137756,340
813.256531,309
813.375244,336
813.493896,319
813.612671,328
813.731384,331
813.850037,317
813.96875,303
814.087524,340
814.206238,313
814.324951,327
814.443604,327
814.562256,323
814.68103,326
814.799683,317
814.918335,316
815.037109,301
815.155762,328
815.274475,323
815.393188,307
815.511841,325
815.630554,322
815.749146,330
815.867859,315
815.986572,310
816.105164,315
816.223877,314
816.342529,312
816.461182,325
816.579895,314
816.698486,310
816.817139,307
816.935791,314
817.054504,317
817.173096,321
817.291748,312
817.4104,318
817.529053,309
817.647644,318
817.766235,321
817.884949,326
818.00354,315
818.122192,312
818.240845,312
818.359436,310
818.478088,331
818.59668,322
818.715271,315
818.833923,327
818.952515,315
819.071106,322
819.189758,311
819.30835,326
819.426941,323
819.545532,328
819.664124,332
819.782715,313
819.901306,329
820.019897,326
820.138489,306
820.25708,321
820.375671,304
820.494202,318
820.612732,325
820.731384,321
820.849915,319
820.968506,310
821.087097,315
821.205627,323
821.324158,310
821.442749,325
821.561279,314
821.679871,312
821.798401,326
821.916931,323
822.035461,319
822.154053,326
822.272583,313
822.391174,326
822.509583,321
822.628174,329
822.746704,314
822.865234,327
822.983765,311
823.102295,318
823.220825,321
823.339294,322
823.457825,297
823.576355,338
823.694824,334
823.813354,324
823.931885,323
824.050354,309
824.168884,323
824.287354,318
824.405823,304
824.524353,312
824.642822,329
824.761353,328
824.879822,322
824.998291,335
825.116699,317
825.235291,314
825.353699,325
825.472168,317
825.590637,319
825.709106,319
825.827576,311
825.946045,307
826.064453,317
826.182983,305
826.301392,331
826.4198,319
826.53833,319
826.656738,308
826.775208,315
826.893677,323
827.012024,311
827.130493,340
827.248962,327
827.36731,325
827.485779,321
827.604248,307
827.722595,313
827.841064,317
827.959412,315
828.077942,318
828.196289,310
828.314636,327
828.433105,306
828.551514,314
828.669861,318
828.78833,313
828.906677,315
829.025085,318
829.143433,310
829.261841,314
829.38031,310
829.498657,318
829.617004,301
829.735413,320
829.85376,309
829.972107,299
830.090515,310
830.208862,324
830.327209,314
830.445557,315
830.563904,314
830.682312,309
830.800659,315
830.919006,308
831.037354,303
831.155701,336
831.274048,310
831.392395,323
831.51062,307
831.629028,324
831.747314,319
831.865662,319
831.984009,310
832.102356,312
832.220642,323
832.338928,323
832.457275,322
832.575623,335
832.693909,318
832.812134,333
832.930481,317
833.048828,316
833.167114,317
833.2854,304
833.403687,311
833.521973,311
833.640259,317
833.758545,329
833.876831,312
833.995056,310
834.113281,325
834.231628,312
834.349915,316
834.468201,328
834.586426,301
834.704651,316
834.822998,312
834.941162,326
835.059448,314
835.177673,316
835.295959,308
835.414246,315
835.53241,295
835.650635,311
835.768921,302
835.887146,329
836.005371,314
836.123596,331
836.241821,335
836.360046,327
836.478271,306
836.596497,298
836.714722,321
836.832886,328
836.95105,332
837.069336,316
837.1875,317
837.305725,323
837.423889,320
837.542053,330
837.660339,328
837.778503,325
837.896667,309
838.014832,321
838.132996,318
838.25116,305
838.369385,318
838.487488,326
838.605713,317
838.723877,322
838.84198,300
838.960205,328
839.078308,319
839.196472,313
839.314636,310
839.4328,321
839.550964,311
839.669067,324
839.787231,320
839.905396,328
840.023499,324
840.141602,306
840.259766,315
840.377869,318
840.495972,309
840.614136,324
840.732239,302
840.850342,309
840.968445,330
841.086548,324
841.204651,311
841.322754,312
841.440918,313
841.55896,313
841.677002,294
841.795166,332
841.913208,303
842.031311,311
842.149353,309
842.267456,328
842.385498,314
842.503601,335
842.621643,319
842.739746,317
842.857788,310
842.97583,327
843.093933,324
843.211975,330
843.330017,318
843.44812,324
843.566101,321
843.684204,330
843.802246,305
843.920227,321
844.038269,328
844.156311,304
844.274292,310
844.392395,308
844.510376,309
844.628357,314
844.74646,321
844.864441,323
844.982422,310
845.100403,326
845.218384,306
845.336426,325
845.454468,322
845.572449,320
845.69043,324
845.808411,312
845.926453,321
846.044373,326
846.162354,311
846.280396,318
846.398315,309
846.516296,316
846.634216,314
846.752197,324
846.870178,312
846.988098,310
847.106079,323
847.22406,312
847.34198,327
847.4599,313
847.577881,308
847.695801,316
847.813782,313
847.931641,318
848.049561,305
848.167603,328
848.285461,306
848.403381,308
848.521362,311
848.639221,317
848.75708,319
848.875,320
848.99292,316
849.110901,327
849.22876,314
849.34668,321
849.464539,323
849.582458,321
849.700317,319
849.818176,311
849.936096,317
850.053955,316
850.171875,315
850.289673,318
850.407593,318
850.525452,322
850.643311,305
850.761169,310
850.878967,324
850.996887,327
851.114746,302
851.232544,317
851.350403,319
851.468262,324
851.58606,315
851.703979,323
851.821777,324
851.939636,303
852.057434,310
852.175232,326
852.293091,323
852.410889,319
852.528687,324
852.646545,310
852.764343,313
852.88208,312
852.999939,306
853.117676,317
853.235535,316
853.353271,314
853.471069,305
853.588928,331
853.706604,327
853.824402,321
853.9422,315
854.059998,324
854.177734,315
854.295532,316
854.413269,308
854.531006,313
854.648804,302
854.766541,314
854.884277,314
855.002014,316
855.119751,318
855.237549,317
855.355225,333
855.473022,313
855.590698,314
855.708435,317
855.826172,320
855.943848,325
856.061646,314
856.179321,312
856.296997,312
856.414795,304
856.53241,316
856.650085,317
856.767822,319
856.885559,327
857.003174,305
857.120911,319
857.238586,312
857.356201,325
857.473938,327
857.591614,314
857.709351,315
857.826965,301
857.944641,319
858.062317,311
858.179993,317
858.297668,315
858.415283,311
858.532959,319
858.650574,312
858.768188,307
858.885803,317
859.003479,325
859.121094,319
859.23877,309
859.356384,314
859.473999,323
859.591675,309
859.709229,334
859.826843,301
859.944458,307
860.062012,312
860.179626,314
860.297302,319
860.414856,312
860.532471,312
860.650024,313
860.767639,320
860.885193,318
861.002808,319
861.120361,325
861.237976,296
861.35553,307
861.473022,314
861.590698,308
861.708191,319
861.825745,315
861.943298,315
862.060852,319
862.178406,316
862.295959,306
862.413513,317
862.531006,317
862.64856,303
862.766113,316
862.883667,305
863.00116,320
863.118713,321
863.236206,319
863.353699,312
863.471252,319
863.588745,318
863.706177,321
863.82373,319
863.941162,315
864.058716,310
864.176208,320
864.29364,304
864.411194,335
864.528687,320
864.646118,318
864.763611,322
864.881042,317
864.998535,306
865.116028,306
865.233459,304
865.350891,324
865.468384,320
865.585754,303
865.703308,317
865.820679,312
865.938171,317
866.055542,314
866.173035,325
866.290466,320
866.407837,306
866.52533,317
866.6427,308
866.760071,318
866.877563,304
866.994934,322
867.112305,301
867.229736,304
867.347107,305
867.464539,318
867.58197,315
867.699341,322
867.81665,318
867.934082,325
868.051453,310
868.168823,316
868.286194,310
868.403564,315
868.520935,323
868.638306,320
868.755676,309
868.872986,321
868.990295,297
869.107727,314
869.225037,314
869.342346,322
869.459717,310
869.577026,313
869.694336,315
869.811707,320
869.929016,312
870.046326,308
870.163635,312
870.280945,319
870.398254,318
870.515564,310
870.632812,315
870.750183,333
870.867432,300
870.984741,322
871.102051,315
871.219299,324
871.336609,320
871.453918,326
871.571106,315
871.688416,313
871.805664,307
871.922852,314
872.040222,307
872.157471,311
872.274719,318
872.391968,318
872.509155,320
872.626465,330
872.743652,307
872.860962,318
872.978149,310
873.095337,330
873.212646,321
873.329834,308
873.44696,311
873.564209,345
873.681396,314
873.798645,318
873.915894,310
874.03302,316
874.150208,317
874.267456,324
874.384583,317
874.501831,329
874.618958,313
874.736145,316
874.853333,310
874.970459,316
875.087646,312
875.204834,330
875.32196,311
875.439148,314
875.556274,308
875.673401,332
875.790527,320
875.907715,327
876.024841,314
876.141968,332
876.259094,314
876.376282,299
876.493347,304
876.610474,322
876.7276,315
876.844727,328
876.961853,304
877.078918,324
877.195984,307
877.313171,314
877.430237,310
877.547302,313
877.664368,313
877.781433,316
877.898499,314
878.015625,311
878.13269,305
878.249695,321
878.366821,299
878.483887,333
878.600952,305
878.717957,312
878.834961,298
878.952087,311
879.069092,306
879.186157,316
879.303162,308
879.420227,327
879.537231,312
879.654236,320
879.77124,313
879.888306,326
880.005249,310
880.122314,324
880.239319,310
880.356323,316
880.473328,315
880.590271,320
880.707275,321
880.824341,320
880.941284,319
881.058228,332
881.175232,324
881.292236,314
881.40918,323
881.526123,315
881.643066,310
881.760071,328
881.877014,315
881.993958,319
882.11084,312
882.227783,315
882.344727,320
882.46167,321
882.578613,304
882.695618,306
882.812439,318
882.929382,318
883.046326,312
883.163208,319
883.280151,318
883.397034,315
883.513916,315
883.630798,314
883.747742,313
883.864563,316
883.981506,318
884.098389,313
884.21521,301
884.332153,328
884.448975,317
884.565796,324
884.682678,323
884.7995,321
884.916443,308
885.033264,325
885.150085,313
885.266968,323
885.383789,321
885.500671,313
885.617493,308
885.734314,320
885.851196,300
885.967896,320
886.084717,311
886.201599,310
886.318359,325
886.435181,327
886.552002,309
886.668762,327
886.785645,316
886.902344,318
887.019165,320
887.135925,325
887.252747,310
887.369446,330
887.486267,324
887.603027,318
887.719788,318
887.836548,332
887.953247,320
888.070068,308
888.186829,330
888.303528,321
888.420288,317
888.536987,328
888.653687,315
888.770447,312
888.887146,321
889.003967,319
889.120667,313
889.237305,325
889.354065,322
889.470703,315
889.587463,305
889.704163,319
889.820862,317
889.937561,318
890.054199,315
890.170837,319
890.287598,314
890.404236,310
890.520874,317
890.637634,321
890.754211,304
890.87085,315
890.987549,312
891.104187,322
891.220886,319
891.337463,331
891.454102,321
891.57074,319
891.687378,307
891.804077,333
891.920654,322
892.037231,309
892.15387,320
892.270447,333
892.387085,316
892.503723,326
892.6203,306
892.736877,312
892.853516,315
892.970032,317
893.08667,312
893.203186,328
893.319763,309
893.43634,318
893.552917,312
893.669556,321
893.786011,303
893.902588,314
894.019165,312
894.135681,301
894.252197,327
894.368835,325
894.485291,323
894.601868,324
894.718384,319
894.8349,317
894.951355,312
895.067932,320
895.184448,307
895.300964,323
895.417419,317
895.533936,330
895.650452,305
895.766907,311
895.883423,325
895.999878,323
896.116333,308
896.232849,318
896.349304,310
896.465759,312
896.582214,314
896.698669,325
896.815125,303
896.931641,315
897.048035,324
897.164551,317
897.280884,325
897.397339,326
897.513794,321
897.630249,324
897.746582,308
897.863098,329
897.979431,317
898.095886,320
898.212341,315
898.328674,322
898.445129,312
898.561462,323
898.677795,322
898.794312,312
898.910645,299
899.026978,325
899.143433,307
899.259766,314
899.37616,295
899.492493,322
899.608765,308
899.725159,329
899.841553,312
899.957947,311
900.07428,325
900.190552,318
900.306946,311
900.423157,316
900.53949,310
900.655884,325
900.772156,302
900.888489,320
901.004822,314
901.121033,329
901.237366,299
901.353699,323
901.46991,305
901.586304,319
901.702515,319
901.818787,338
901.93512,320
902.051331,327
902.167603,309
902.283875,316
902.400085,320
902.516418,326
902.632629,304
902.74884,322
902.865112,316
902.981384,316
903.097595,320
903.213867,307
903.330017,311
903.446289,325
903.5625,324
903.67865,321
903.794922,314
903.911072,322
904.027344,314
904.143494,320
904.259705,305
904.375916,312
904.492065,321
904.608215,321
904.724426,316
904.840576,316
904.956726,308
905.072876,317
905.189087,329
905.305176,317
905.421387,323
905.537537,314
905.653687,311
905.769775,328
905.885925,316
906.002014,320
906.118164,307
906.234314,317
906.350403,330
906.466492,327
906.582642,318
906.69873,322
906.814758,304
906.930908,322
907.046936,318
907.163086,322
907.279175,303
907.395264,319
907.511353,307
907.62738,320
907.743408,319
907.859497,313
907.975525,333
908.091553,315
908.207703,313
908.32373,321
908.439758,319
908.555786,328
908.671814,307
908.787842,322
908.90387,321
909.019775,333
909.135864,303
909.251892,316
909.367859,308
909.483826,313
909.599854,309
909.715881,310
909.831848,306
909.947815,317
910.063782,325
910.179749,325
910.295776,327
910.411743,320
910.527649,299
910.643616,318
910.759583,300
910.875488,316
910.991455,323
911.107361,327
911.223267,299
911.339294,328
911.4552,305
911.571106,310
911.687073,331
911.802979,314
911.918823,305
912.034729,320
912.150635,307
912.266602,328
912.382446,316
912.498352,320
912.614197,308
912.730103,328
912.846008,326
