792.44574,289
792.56488,358
792.68396,385
792.80304,377
792.92218,328
793.041199,312
793.160339,319
793.279419,327
793.398499,313
793.517578,305
793.636658,324
793.755737,318
793.874817,341
793.993896,332
794.112976,330
794.232056,333
794.351074,310
794.470215,329
794.589233,320
794.708313,305
794.827393,308
794.946411,328
795.065552,336
795.18457,335
795.303589,329
795.422668,332
795.541687,324
795.660767,334
795.779846,323
795.898865,323
796.017883,337
796.136963,327
796.255981,324
796.375061,330
796.49408,334
796.613037,324
796.732117,320
796.851135,324
796.970154,323
797.089233,322
797.208191,320
797.327271,320
797.446228,324
797.565186,316
797.684265,316
797.803223,330
797.922241,328
798.04126,327
798.160278,331
798.279297,329
798.398315,329
798.517273,327
798.636292,329
798.75531,318
798.874268,316
798.993286,319
799.112244,339
799.231323,324
799.350281,316
799.469238,325
799.588257,316
799.707153,316
799.826111,316
799.945129,326
800.064087,325
800.183044,329
800.302063,323
800.421021,308
800.539978,320
800.658936,320
800.777893,319
800.896912,319
801.015747,331
801.134705,308
801.253723,316
801.37262,318
801.491638,316
801.610535,312
801.729492,321
801.84845,322
801.967407,328
802.086243,327
802.205261,336
802.324158,315
802.443115,313
802.562073,314
802.680969,320
802.799927,317
802.918762,322
803.037659,316
803.156677,320
803.275574,322
803.39447,329
803.513428,318
803.632263,331
803.751221,314
803.870117,325
803.989014,311
804.107971,318
804.226746,330
804.345642,326
804.4646,315
804.583496,309
804.702393,323
804.821228,328
804.940125,318
805.059021,313
805.177917,339
805.296814,307
805.415649,320
805.534546,330
805.653442,329
805.772278,316
805.891113,311
806.01001,302
806.128906,325
806.247742,316
806.366577,343
806.485413,312
806.604309,314
806.723145,310
806.84198,318
806.960876,322
807.079712,335
807.198486,319
807.317383,313
807.436218,309
807.554993,314
807.673889,311
807.792725,321
807.91156,323
808.030396,321
808.14917,328
808.268005,324
808.386841,313
808.505676,315
808.624451,328
808.743286,306
808.862122,319
808.980896,328
809.099731,316
809.218506,313
809.337341,336
809.456116,312
809.57489,314
809.693726,318
809.8125,316
809.931274,334
810.050049,328
810.168884,324
810.287659,320
810.406372,309
810.525269,317
810.643982,326
810.762756,334
810.881531,319
811.000305,334
811.11908,317
811.237854,321
811.356567,334
811.475403,332
811.594116,337
811.71283,322
811.831604,322
811.950378,304
812.069153,319
812.187927,321
812.30658,317
812.425415,312
812.544128,313
812.662781,315
812.781616,317
812.900269,313
813.019043,319
813.137756,327
813.256531,307
813.375244,316
813.493896,321
813.612671,315
813.731384,313
813.850037,315
813.96875,317
814.087524,313
814.206238,324
814.324951,323
814.443604,322
814.562256,319
814.68103,310
814.799683,322
814.918335,329
815.037109,315
815.155762,325
815.274475,316
815.393188,318
815.511841,325
815.630554,310
815.749146,331
815.867859,316
815.986572,324
816.105164,309
816.223877,317
816.342529,322
816.461182,338
816.579895,328
816.698486,313
816.817139,319
816.935791,330
817.054504,337
817.173096,323
817.291748,320
817.4104,325
817.529053,318
817.647644,314
817.766235,329
817.884949,318
818.00354,327
818.122192,318
818.240845,314
818.359436,308
818.478088,308
818.59668,306
818.715271,317
818.833923,331
818.952515,310
819.071106,311
819.189758,320
819.30835,328
819.426941,317
819.545532,308
819.664124,314
819.782715,309
819.901306,319
820.019897,325
820.138489,313
820.25708,323
820.375671,325
820.494202,310
820.612732,335
820.731384,321
820.849915,315
820.968506,312
821.087097,326
821.205627,312
821.324158,323
821.442749,322
821.561279,325
821.679871,320
821.798401,310
821.916931,324
822.035461,316
822.154053,311
822.272583,310
822.391174,315
822.509583,317
822.628174,310
822.746704,312
822.865234,304
822.983765,309
823.102295,321
823.220825,312
823.339294,309
823.457825,321
823.576355,308
823.694824,316
823.813354,313
823.931885,312
824.050354,322
824.168884,304
824.287354,316
824.405823,318
824.524353,303
824.642822,340
824.761353,317
824.879822,319
824.998291,320
825.116699,310
825.235291,323
825.353699,320
825.472168,307
825.590637,321
825.709106,327
825.827576,327
825.946045,309
826.064453,313
826.182983,337
826.301392,313
826.4198,320
826.53833,312
826.656738,319
826.775208,316
826.893677,327
827.012024,317
827.130493,307
827.248962,313
827.36731,320
827.485779,327
827.604248,310
827.722595,309
827.841064,304
827.959412,318
828.077942,312
828.196289,305
828.314636,315
828.433105,323
828.551514,315
828.669861,315
828.78833,308
828.906677,312
829.025085,311
829.143433,313
829.261841,315
829.38031,326
829.498657,319
829.617004,315
829.735413,316
829.85376,314
829.972107,311
830.090515,313
830.208862,306
830.327209,317
830.445557,324
830.563904,314
830.682312,330
830.800659,316
830.919006,318
831.037354,312
831.155701,328
831.274048,313
831.392395,319
831.51062,317
831.629028,319
831.747314,328
831.865662,309
831.984009,311
832.102356,315
832.220642,327
832.338928,319
832.457275,308
832.575623,331
832.693909,324
832.812134,311
832.930481,320
833.048828,307
833.167114,328
833.2854,318
833.403687,317
833.521973,321
833.640259,310
833.758545,313
833.876831,309
833.995056,322
834.113281,322
834.231628,320
834.349915,309
834.468201,313
834.586426,315
834.704651,308
834.822998,315
834.941162,323
835.059448,310
835.177673,309
835.295959,320
835.414246,321
835.53241,316
835.650635,323
835.768921,322
835.887146,319
836.005371,309
836.123596,323
836.241821,319
836.360046,314
836.478271,324
836.596497,317
836.714722,305
836.832886,322
836.95105,313
837.069336,313
837.1875,325
837.305725,314
837.423889,321
837.542053,315
837.660339,313
837.778503,312
837.896667,315
838.014832,311
838.132996,313
838.25116,308
838.369385,301
838.487488,317
838.605713,315
838.723877,311
838.84198,317
838.960205,315
839.078308,318
839.196472,318
839.314636,302
839.4328,309
839.550964,324
839.669067,313
839.787231,325
839.905396,322
840.023499,320
840.141602,319
840.259766,316
840.377869,322
840.495972,308
840.614136,331
840.732239,318
840.850342,311
840.968445,322
841.086548,314
841.204651,314
841.322754,312
841.440918,315
841.55896,310
841.677002,323
841.795166,319
841.913208,316
842.031311,324
842.149353,311
842.267456,303
842.385498,322
842.503601,319
842.621643,308
842.739746,311
842.857788,310
842.97583,305
843.093933,317
843.211975,321
843.330017,310
843.44812,311
843.566101,308
843.684204,312
843.802246,316
843.920227,312
844.038269,313
844.156311,303
844.274292,329
844.392395,308
844.510376,327
844.628357,310
844.74646,327
844.864441,303
844.982422,305
845.100403,318
845.218384,312
845.336426,316
845.454468,332
845.572449,318
845.69043,320
845.808411,309
845.926453,319
846.044373,314
846.162354,316
846.280396,317
846.398315,324
846.516296,320
846.634216,324
846.752197,312
846.870178,314
846.988098,318
847.106079,324
847.22406,314
847.34198,317
847.4599,318
847.577881,321
847.695801,307
847.813782,314
847.931641,324
848.049561,324
848.167603,303
848.285461,312
848.403381,318
848.521362,320
848.639221,332
848.75708,331
848.875,313
848.99292,316
849.110901,306
849.22876,328
849.34668,303
849.464539,324
849.582458,314
849.700317,321
849.818176,322
849.936096,316
850.053955,305
850.171875,329
850.289673,315
850.407593,311
850.525452,308
850.643311,325
850.761169,322
850.878967,304
850.996887,316
851.114746,311
851.232544,297
851.350403,311
851.468262,314
851.58606,316
851.703979,323
851.821777,325
851.939636,304
852.057434,311
852.175232,307
852.293091,305
852.410889,327
852.528687,308
852.646545,328
852.764343,321
852.88208,307
852.999939,325
853.117676,317
853.235535,317
853.353271,317
853.471069,313
853.588928,328
853.706604,327
853.824402,310
853.9422,320
854.059998,318
854.177734,312
854.295532,314
854.413269,311
854.531006,310
854.648804,302
854.766541,305
854.884277,323
855.002014,319
855.119751,315
855.237549,311
855.355225,321
855.473022,311
855.590698,310
855.708435,316
855.826172,315
855.943848,317
856.061646,328
856.179321,315
856.296997,319
856.414795,322
856.53241,310
856.650085,314
856.767822,316
856.885559,313
857.003174,319
857.120911,321
857.238586,314
857.356201,305
857.473938,305
857.591614,325
857.709351,322
857.826965,316
857.944641,330
858.062317,302
858.179993,314
858.297668,322
858.415283,325
858.532959,311
858.650574,315
858.768188,307
858.885803,322
859.003479,320
859.121094,311
859.23877,319
859.356384,319
859.473999,321
859.591675,318
859.709229,318
859.826843,317
859.944458,308
860.062012,320
860.179626,320
860.297302,324
860.414856,300
860.532471,314
860.650024,335
860.767639,322
860.885193,317
861.002808,322
861.120361,316
861.237976,322
861.35553,307
861.473022,321
861.590698,319
861.708191,317
861.825745,324
861.943298,330
862.060852,320
862.178406,332
862.295959,312
862.413513,331
862.531006,324
862.64856,311
862.766113,311
862.883667,316
863.00116,310
863.118713,318
863.236206,314
863.353699,330
863.471252,307
863.588745,327
863.706177,310
863.82373,323
863.941162,314
864.058716,309
864.176208,318
864.29364,329
864.411194,315
864.528687,329
864.646118,315
864.763611,321
864.881042,298
864.998535,322
865.116028,312
865.233459,319
865.350891,315
865.468384,328
865.585754,317
865.703308,317
865.820679,311
865.938171,323
866.055542,320
866.173035,333
866.290466,335
866.407837,313
866.52533,322
866.6427,317
866.760071,311
866.877563,323
866.994934,313
867.112305,314
867.229736,328
867.347107,319
867.464539,321
867.58197,328
867.699341,315
867.81665,322
867.934082,322
868.051453,315
868.168823,301
868.286194,318
868.403564,315
868.520935,314
868.638306,304
868.755676,313
868.872986,310
868.990295,321
869.107727,329
869.225037,318
869.342346,316
869.459717,324
869.577026,313
869.694336,307
869.811707,329
869.929016,337
870.046326,317
870.163635,316
870.280945,313
870.398254,323
870.515564,308
870.632812,314
870.750183,324
870.867432,314
870.984741,312
871.102051,313
871.219299,308
871.336609,328
871.453918,302
871.571106,316
871.688416,323
871.805664,319
871.922852,320
872.040222,316
872.157471,299
872.274719,319
872.391968,316
872.509155,314
872.626465,330
872.743652,319
872.860962,314
872.978149,321
873.095337,318
873.212646,327
873.329834,321
873.44696,305
873.564209,309
873.681396,329
873.798645,318
873.915894,320
874.03302,324
874.150208,315
874.267456,316
874.384583,314
874.501831,316
874.618958,310
874.736145,322
874.853333,305
874.970459,313
875.087646,322
875.204834,313
875.32196,313
875.439148,325
875.556274,321
875.673401,311
875.790527,313
875.907715,319
876.024841,320
876.141968,311
876.259094,309
876.376282,311
876.493347,329
876.610474,313
876.7276,307
876.844727,315
876.961853,321
877.078918,312
877.195984,330
877.313171,308
877.430237,316
877.547302,305
877.664368,321
877.781433,306
877.898499,314
878.015625,331
878.13269,327
878.249695,315
878.366821,311
878.483887,304
878.600952,328
878.717957,308
878.834961,322
878.952087,325
879.069092,323
879.186157,310
879.303162,317
879.420227,325
879.537231,322
879.654236,316
879.77124,316
879.888306,310
880.005249,315
880.122314,294
880.239319,329
880.356323,314
880.473328,302
880.590271,303
880.707275,325
880.824341,318
880.941284,316
881.058228,322
881.175232,336
881.292236,317
881.40918,302
881.526123,311
881.643066,324
881.760071,317
881.877014,319
881.993958,306
882.11084,317
882.227783,315
882.344727,317
882.46167,325
882.578613,325
882.695618,307
882.812439,306
882.929382,314
883.046326,315
883.163208,314
883.280151,312
883.397034,316
883.513916,310
883.630798,319
883.747742,328
883.864563,319
883.981506,317
884.098389,322
884.21521,333
884.332153,313
884.448975,331
884.565796,302
884.682678,315
884.7995,323
884.916443,318
885.033264,324
885.150085,302
885.266968,305
885.383789,320
885.500671,313
885.617493,323
885.734314,313
885.851196,313
885.967896,331
886.084717,313
886.201599,317
886.318359,309
886.435181,323
886.552002,313
886.668762,309
886.785645,321
886.902344,311
887.019165,324
887.135925,311
887.252747,317
887.369446,300
887.486267,317
887.603027,324
887.719788,311
887.836548,322
887.953247,324
888.070068,321
888.186829,321
888.303528,322
888.420288,327
888.536987,306
888.653687,321
888.770447,310
888.887146,319
889.003967,317
889.120667,322
889.237305,308
889.354065,319
889.470703,319
889.587463,315
889.704163,303
889.820862,322
889.937561,312
890.054199,314
890.170837,313
890.287598,319
890.404236,326
890.520874,317
890.637634,324
890.754211,324
890.87085,319
890.987549,316
891.104187,306
891.220886,309
891.337463,313
891.454102,321
891.57074,317
891.687378,328
891.804077,330
891.920654,325
892.037231,320
892.15387,301
892.270447,316
892.387085,318
892.503723,319
892.6203,326
892.736877,315
892.853516,309
892.970032,301
893.08667,314
893.203186,321
893.319763,311
893.43634,329
893.552917,316
893.669556,306
893.786011,319
893.902588,312
894.019165,322
894.135681,321
894.252197,309
894.368835,322
894.485291,314
894.601868,309
894.718384,332
894.8349,326
894.951355,327
895.067932,310
895.184448,314
895.300964,318
895.417419,318
895.533936,314
895.650452,316
895.766907,314
895.883423,308
895.999878,319
896.116333,316
896.232849,323
896.349304,323
896.465759,309
896.582214,310
896.698669,307
896.815125,317
896.931641,321
897.048035,318
897.164551,314
897.280884,333
897.397339,303
897.513794,311
897.630249,319
897.746582,314
897.863098,305
897.979431,306
898.095886,307
898.212341,323
898.328674,322
898.445129,312
898.561462,317
898.677795,320
898.794312,316
898.910645,297
899.026978,320
899.143433,314
899.259766,315
899.37616,328
899.492493,322
899.608765,312
899.725159,312
899.841553,311
899.957947,314
900.07428,325
900.190552,309
900.306946,317
900.423157,314
900.53949,320
900.655884,291
900.772156,317
900.888489,310
901.004822,323
901.121033,309
901.237366,312
901.353699,319
901.46991,312
901.586304,317
901.702515,328
901.818787,314
901.93512,313
902.051331,315
902.167603,320
902.283875,314
902.400085,308
902.516418,320
902.632629,319
902.74884,309
902.865112,319
902.981384,312
903.097595,328
903.213867,314
903.330017,332
903.446289,311
903.5625,312
903.67865,309
903.794922,305
903.911072,314
904.027344,318
904.143494,306
904.259705,321
904.375916,316
904.492065,308
904.608215,313
904.724426,322
904.840576,328
904.956726,315
905.072876,319
905.189087,332
905.305176,318
905.421387,321
905.537537,307
905.653687,316
905.769775,322
905.885925,316
906.002014,319
906.118164,326
906.234314,326
906.350403,326
906.466492,317
906.582642,312
906.69873,318
906.814758,309
906.930908,310
907.046936,338
907.163086,316
907.279175,326
907.395264,323
907.511353,306
907.62738,307
907.743408,309
907.859497,310
907.975525,315
908.091553,322
908.207703,316
908.32373,316
908.439758,324
908.555786,326
908.671814,302
908.787842,318
908.90387,305
909.019775,306
909.135864,320
909.251892,323
909.367859,314
909.483826,319
909.599854,320
909.715881,312
909.831848,320
909.947815,303
910.063782,324
910.179749,320
910.295776,328
910.411743,312
910.527649,323
910.643616,319
910.759583,316
910.875488,308
910.991455,331
911.107361,315
911.223267,323
911.339294,307
911.4552,344
911.571106,320
911.687073,312
911.802979,316
911.918823,312
912.034729,321
912.150635,324
912.266602,315
912.382446,326
912.498352,306
912.614197,307
912.730103,305
912.846008,310
792.44574,300
792.56488,337
792.68396,389
792.80304,359
792.92218,322
793.041199,314
793.160339,312
793.279419,321
793.398499,317
793.517578,300
793.636658,329
793.755737,320
793.874817,352
793.993896,327
794.112976,328
794.232056,328
794.351074,319
794.470215,330
794.589233,324
794.708313,317
794.827393,325
794.946411,328
795.065552,341
795.18457,338
795.303589,337
795.422668,317
795.541687,324
795.660767,321
795.779846,331
795.898865,327
796.017883,335
796.136963,318
796.255981,330
796.375061,315
796.49408,337
796.613037,326
796.732117,329
796.851135,310
796.970154,328
797.089233,306
797.208191,323
797.327271,333
797.446228,325
797.565186,327
797.684265,328
797.803223,323
797.922241,338
798.04126,315
798.160278,337
798.279297,317
798.398315,321
798.517273,320
798.636292,316
798.75531,325
798.874268,315
798.993286,316
799.112244,324
799.231323,318
799.350281,337
799.469238,320
799.588257,314
799.707153,322
799.826111,322
799.945129,321
800.064087,320
800.183044,303
800.302063,313
800.421021,329
800.539978,308
800.658936,325
800.777893,325
800.896912,311
801.015747,313
801.134705,331
801.253723,331
801.37262,327
801.491638,320
801.610535,315
801.729492,332
801.84845,311
801.967407,319
802.086243,320
802.205261,314
802.324158,334
802.443115,316
802.562073,320
802.680969,320
802.799927,318
802.918762,337
803.037659,316
803.156677,328
803.275574,324
803.39447,322
803.513428,325
803.632263,313
803.751221,308
803.870117,319
803.989014,315
804.107971,313
804.226746,315
804.345642,322
804.4646,317
804.583496,329
804.702393,317
804.821228,333
804.940125,323
805.059021,318
805.177917,327
805.296814,320
805.415649,309
805.534546,333
805.653442,328
805.772278,318
805.891113,320
806.01001,328
806.128906,316
806.247742,311
806.366577,309
806.485413,318
806.604309,323
806.723145,330
806.84198,313
806.960876,326
807.079712,314
807.198486,318
807.317383,317
807.436218,318
807.554993,329
807.673889,323
807.792725,308
807.91156,313
808.030396,326
808.14917,317
808.268005,310
808.386841,320
808.505676,322
808.624451,315
808.743286,322
808.862122,320
808.980896,317
809.099731,330
809.218506,328
809.337341,323
809.456116,328
809.57489,328
809.693726,324
809.8125,326
809.931274,329
810.050049,315
810.168884,324
810.287659,326
810.406372,321
810.525269,318
810.643982,328
810.762756,318
810.881531,317
811.000305,322
811.11908,311
811.237854,329
811.356567,301
811.475403,330
811.594116,324
811.71283,311
811.831604,327
811.950378,325
812.069153,305
812.187927,324
812.30658,319
812.425415,317
812.544128,328
812.662781,313
812.781616,329
812.900269,312
813.019043,321
813.137756,324
813.256531,321
813.375244,322
813.493896,336
813.612671,329
813.731384,314
813.850037,313
813.96875,318
814.087524,304
814.206238,303
814.324951,322
814.443604,310
814.562256,320
814.68103,307
814.799683,325
814.918335,315
815.037109,331
815.155762,304
815.274475,332
815.393188,315
815.511841,322
815.630554,316
815.749146,332
815.867859,335
815.986572,318
816.105164,323
816.223877,329
816.342529,323
816.461182,321
816.579895,319
816.698486,321
816.817139,319
816.935791,326
817.054504,317
817.173096,320
817.291748,300
817.4104,323
817.529053,316
817.647644,329
817.766235,315
817.884949,320
818.00354,305
818.122192,314
818.240845,315
818.359436,320
818.478088,312
818.59668,328
818.715271,319
818.833923,319
818.952515,310
819.071106,340
819.189758,322
819.30835,316
819.426941,300
819.545532,316
819.664124,304
819.782715,326
819.901306,317
820.019897,317
820.138489,322
820.25708,312
820.375671,318
820.494202,311
820.612732,309
820.731384,309
820.849915,314
820.968506,319
821.087097,320
821.205627,317
821.324158,323
821.442749,318
821.561279,315
821.679871,310
821.798401,311
821.916931,325
822.035461,309
822.154053,312
822.272583,329
822.391174,322
822.509583,310
822.628174,308
822.746704,327
822.865234,327
822.983765,316
823.102295,318
823.220825,310
823.339294,323
823.457825,326
823.576355,322
823.694824,335
823.813354,316
823.931885,310
824.050354,315
824.168884,317
824.287354,310
824.405823,311
824.524353,314
824.642822,301
824.761353,313
824.879822,319
824.998291,322
825.116699,317
825.235291,323
825.353699,306
825.472168,330
825.590637,317
825.709106,311
825.827576,310
825.946045,311
826.064453,314
826.182983,317
826.301392,321
826.4198,313
826.53833,307
826.656738,317
826.775208,319
826.893677,320
827.012024,313
827.130493,311
827.248962,323
827.36731,303
827.485779,310
827.604248,323
827.722595,307
827.841064,331
827.959412,327
828.077942,319
828.196289,316
828.314636,316
828.433105,318
828.551514,316
828.669861,314
828.78833,311
828.906677,312
829.025085,322
829.143433,314
829.261841,311
829.38031,319
829.498657,317
829.617004,321
829.735413,321
829.85376,314
829.972107,322
830.090515,311
830.208862,310
830.327209,323
830.445557,300
830.563904,320
830.682312,313
830.800659,321
830.919006,317
831.037354,308
831.155701,334
831.274048,309
831.392395,316
831.51062,312
831.629028,319
831.747314,312
831.865662,303
831.984009,316
832.102356,320
832.220642,315
832.338928,314
832.457275,299
832.575623,320
832.693909,305
832.812134,319
832.930481,319
833.048828,315
833.167114,314
833.2854,323
833.403687,311
833.521973,313
833.640259,313
833.758545,314
833.876831,310
833.995056,316
834.113281,322
834.231628,306
834.349915,309
834.468201,313
834.586426,314
834.704651,323
834.822998,316
834.941162,326
835.059448,315
835.177673,323
835.295959,315
835.414246,315
835.53241,315
835.650635,319
835.768921,315
835.887146,325
836.005371,323
836.123596,309
836.241821,313
836.360046,304
836.478271,322
836.596497,319
836.714722,331
836.832886,303
836.95105,322
837.069336,318
837.1875,310
837.305725,324
837.423889,320
837.542053,311
837.660339,314
837.778503,327
837.896667,308
838.014832,306
838.132996,308
838.25116,319
838.369385,290
838.487488,320
838.605713,310
838.723877,316
838.84198,305
838.960205,326
839.078308,318
839.196472,320
839.314636,307
839.4328,325
839.550964,320
839.669067,318
839.787231,321
839.905396,318
840.023499,313
840.141602,329
840.259766,315
840.377869,319
840.495972,308
840.614136,327
840.732239,300
840.850342,313
840.968445,311
841.086548,315
841.204651,324
841.322754,322
841.440918,323
841.55896,324
841.677002,309
841.795166,316
841.913208,304
842.031311,326
842.149353,317
842.267456,316
842.385498,299
842.503601,328
842.621643,307
842.739746,322
842.857788,314
842.97583,331
843.093933,316
843.211975,308
843.330017,310
843.44812,314
843.566101,308
843.684204,311
843.802246,325
843.920227,329
844.038269,313
844.156311,319
844.274292,306
844.392395,327
844.510376,319
844.628357,329
844.74646,308
844.864441,310
844.982422,317
845.100403,321
845.218384,313
845.336426,334
845.454468,309
845.572449,319
845.69043,314
845.808411,314
845.926453,313
846.044373,321
846.162354,300
846.280396,316
846.398315,308
846.516296,320
846.634216,304
846.752197,326
846.870178,314
846.988098,311
847.106079,318
847.22406,313
847.34198,315
847.4599,306
847.577881,307
847.695801,326
847.813782,325
847.931641,318
848.049561,319
848.167603,317
848.285461,307
848.403381,310
848.521362,306
848.639221,322
848.75708,316
848.875,337
848.99292,315
849.110901,313
849.22876,314
849.34668,319
849.464539,316
849.582458,309
849.700317,302
849.818176,327
849.936096,308
850.053955,315
850.171875,316
850.289673,323
850.407593,311
850.525452,312
850.643311,306
850.761169,312
850.878967,315
850.996887,335
851.114746,315
851.232544,328
851.350403,305
851.468262,321
851.58606,320
851.703979,320
851.821777,316
851.939636,323
852.057434,310
852.175232,322
852.293091,315
852.410889,313
852.528687,305
852.646545,313
852.764343,322
852.88208,327
852.999939,305
853.117676,325
853.235535,314
853.353271,311
853.471069,315
853.588928,294
853.706604,327
853.824402,328
853.9422,325
854.059998,319
854.177734,309
854.295532,302
854.413269,317
854.531006,316
854.648804,308
854.766541,317
854.884277,312
855.002014,312
855.119751,321
855.237549,314
855.355225,325
855.473022,322
855.590698,304
855.708435,320
855.826172,305
855.943848,307
856.061646,314
856.179321,327
856.296997,315
856.414795,312
856.53241,323
856.650085,325
856.767822,311
856.885559,319
857.003174,313
857.120911,317
857.238586,328
857.356201,326
857.473938,320
857.591614,319
857.709351,311
857.826965,321
857.944641,317
858.062317,327
858.179993,314
858.297668,324
858.415283,312
858.532959,316
858.650574,315
858.768188,325
858.885803,325
859.003479,305
859.121094,308
859.23877,321
859.356384,314
859.473999,321
859.591675,303
859.709229,318
859.826843,320
859.944458,323
860.062012,315
860.179626,307
860.297302,317
860.414856,319
860.532471,301
860.650024,331
860.767639,303
860.885193,324
861.002808,308
861.120361,325
861.237976,307
861.35553,317
861.473022,312
861.590698,317
861.708191,303
861.825745,319
861.943298,307
862.060852,314
862.178406,305
862.295959,317
862.413513,313
862.531006,315
862.64856,312
862.766113,323
862.883667,309
863.00116,315
863.118713,317
863.236206,315
863.353699,306
863.471252,316
863.588745,318
863.706177,322
863.82373,320
863.941162,315
864.058716,316
864.176208,323
864.29364,308
864.411194,328
864.528687,315
864.646118,329
864.763611,315
864.881042,314
864.998535,322
865.116028,315
865.233459,309
865.350891,321
865.468384,324
865.585754,318
865.703308,314
865.820679,324
865.938171,314
866.055542,316
866.173035,327
866.290466,316
866.407837,311
866.52533,335
866.6427,316
866.760071,326
866.877563,310
866.994934,307
867.112305,308
867.229736,325
867.347107,314
867.464539,324
867.58197,311
867.699341,310
867.81665,305
867.934082,307
868.051453,302
868.168823,315
868.286194,317
868.403564,321
868.520935,320
868.638306,324
868.755676,304
868.872986,331
868.990295,301
869.107727,325
869.225037,319
869.342346,322
869.459717,314
869.577026,308
869.694336,318
869.811707,318
869.929016,310
870.046326,311
870.163635,312
870.280945,324
870.398254,317
870.515564,312
870.632812,309
870.750183,317
870.867432,310
870.984741,322
871.102051,302
871.219299,319
871.336609,322
871.453918,309
871.571106,323
871.688416,311
871.805664,314
871.922852,324
872.040222,322
872.157471,308
872.274719,311
872.391968,325
872.509155,311
872.626465,323
872.743652,312
872.860962,311
872.978149,311
873.095337,325
873.212646,313
873.329834,321
873.44696,307
873.564209,325
873.681396,314
873.798645,325
873.915894,326
874.03302,318
874.150208,312
874.267456,322
874.384583,305
874.501831,311
874.618958,320
874.736145,331
874.853333,319
874.970459,316
875.087646,321
875.204834,325
875.32196,313
875.439148,314
875.556274,319
875.673401,320
875.790527,314
875.907715,317
876.024841,308
876.141968,328
876.259094,320
876.376282,324
876.493347,315
876.610474,307
876.7276,307
876.844727,313
876.961853,312
877.078918,322
877.195984,305
877.313171,327
877.430237,315
877.547302,316
877.664368,323
877.781433,320
877.898499,320
878.015625,309
878.13269,302
878.249695,323
878.366821,310
878.483887,321
878.600952,319
878.717957,323
878.834961,317
878.952087,307
879.069092,329
879.186157,315
879.303162,305
879.420227,320
879.537231,319
879.654236,322
879.77124,316
879.888306,316
880.005249,309
880.122314,321
880.239319,327
880.356323,320
880.473328,310
880.590271,337
880.707275,307
880.824341,319
880.941284,331
881.058228,322
881.175232,316
881.292236,321
881.40918,320
881.526123,316
881.643066,306
881.760071,310
881.877014,319
881.993958,321
882.11084,315
882.227783,307
882.344727,308
882.46167,332
882.578613,315
882.695618,330
882.812439,312
882.929382,319
883.046326,319
883.163208,322
883.280151,321
883.397034,333
883.513916,314
883.630798,323
883.747742,310
883.864563,319
883.981506,310
884.098389,324
884.21521,293
884.332153,323
884.448975,319
884.565796,314
884.682678,319
884.7995,316
884.916443,307
885.033264,323
885.150085,307
885.266968,322
885.383789,312
885.500671,315
885.617493,317
885.734314,316
885.851196,311
885.967896,317
886.084717,319
886.201599,325
886.318359,304
886.435181,317
886.552002,326
886.668762,318
886.785645,297
886.902344,309
887.019165,323
887.135925,308
887.252747,308
887.369446,304
887.486267,311
887.603027,315
887.719788,321
887.836548,310
887.953247,307
888.070068,297
888.186829,316
888.303528,318
888.420288,322
888.536987,320
888.653687,304
888.770447,306
888.887146,312
889.003967,329
889.120667,324
889.237305,323
889.354065,316
889.470703,320
889.587463,311
889.704163,326
889.820862,317
889.937561,312
890.054199,319
890.170837,335
890.287598,297
890.404236,320
890.520874,311
890.637634,326
890.754211,320
890.87085,320
890.987549,317
891.104187,320
891.220886,320
891.337463,322
891.454102,318
891.57074,326
891.687378,311
891.804077,317
891.920654,317
892.037231,304
892.15387,309
892.270447,310
892.387085,308
892.503723,316
892.6203,317
892.736877,314
892.853516,326
892.970032,308
893.08667,315
893.203186,313
893.319763,291
893.43634,324
893.552917,310
893.669556,318
893.786011,309
893.902588,311
894.019165,319
894.135681,319
894.252197,320
894.368835,329
894.485291,306
894.601868,315
894.718384,308
894.8349,309
894.951355,309
895.067932,323
895.184448,308
895.300964,325
895.417419,299
895.533936,315
895.650452,317
895.766907,324
895.883423,323
895.999878,323
896.116333,323
896.232849,327
896.349304,311
896.465759,304
896.582214,320
896.698669,325
896.815125,311
896.931641,307
897.048035,322
897.164551,328
897.280884,307
897.397339,324
897.513794,307
897.630249,320
897.746582,314
897.863098,316
897.979431,303
898.095886,319
898.212341,309
898.328674,326
898.445129,316
898.561462,322
898.677795,325
898.794312,315
898.910645,322
899.026978,321
899.143433,298
899.259766,322
899.37616,311
899.492493,309
899.608765,318
899.725159,320
899.841553,318
899.957947,316
900.07428,316
900.190552,316
900.306946,319
900.423157,296
900.53949,312
900.655884,314
900.772156,323
900.888489,315
901.004822,323
901.121033,307
901.237366,315
901.353699,324
901.46991,307
901.586304,330
901.702515,311
901.818787,325
901.93512,311
902.051331,325
902.167603,319
902.283875,313
902.400085,309
902.516418,328
902.632629,311
902.74884,309
902.865112,300
902.981384,323
903.097595,315
903.213867,320
903.330017,304
903.446289,310
903.5625,321
903.67865,325
903.794922,308
903.911072,323
904.027344,311
904.143494,325
904.259705,300
904.375916,324
904.492065,313
904.608215,323
904.724426,327
904.840576,322
904.956726,303
905.072876,320
905.189087,315
905.305176,321
905.421387,314
905.537537,329
905.653687,303
905.769775,306
905.885925,319
906.002014,314
906.118164,310
906.234314,319
906.350403,312
906.466492,321
906.582642,311
906.69873,322
906.814758,315
906.930908,322
907.046936,319
907.163086,319
907.279175,324
907.395264,322
907.511353,311
907.62738,318
907.743408,308
907.859497,317
907.975525,326
908.091553,322
908.207703,320
908.32373,309
908.439758,317
908.555786,327
908.671814,314
908.787842,312
908.90387,317
909.019775,316
909.135864,304
909.251892,314
909.367859,323
909.483826,324
909.599854,320
909.715881,305
909.831848,310
909.947815,313
910.063782,309
910.179749,321
910.295776,313
910.411743,324
910.527649,328
910.643616,332
910.759583,303
910.875488,318
910.991455,309
911.107361,322
911.223267,314
911.339294,320
911.4552,310
911.571106,321
911.687073,319
911.802979,323
911.918823,312
912.034729,317
912.150635,318
912.266602,338
912.382446,314
912.498352,319
912.614197,308
912.730103,312
912.846008,309
792.44574,307
792.56488,351
792.68396,384
792.80304,374
792.92218,330
793.041199,303
793.160339,317
793.279419,328
793.398499,323
793.517578,306
793.636658,317
793.755737,323
793.874817,340
793.993896,345
794.112976,338
794.232056,328
794.351074,322
794.470215,320
794.589233,326
794.708313,312
794.827393,306
794.946411,329
795.065552,328
795.18457,345
795.303589,327
795.422668,317
795.541687,313
795.660767,329
795.779846,330
795.898865,317
796.017883,315
796.136963,323
796.255981,327
796.375061,328
796.49408,317
796.613037,321
796.732117,315
796.851135,311
796.970154,328
797.089233,321
797.208191,315
797.327271,309
797.446228,323
797.565186,338
797.684265,318
797.803223,318
797.922241,315
798.04126,326
798.160278,322
798.279297,321
798.398315,319
798.517273,315
798.636292,321
798.75531,327
798.874268,324
798.993286,322
799.112244,310
799.231323,323
799.350281,324
799.469238,331
799.588257,329
799.707153,340
799.826111,322
799.945129,315
800.064087,314
800.183044,315
800.302063,309
800.421021,312
800.539978,327
800.658936,325
800.777893,308
800.896912,325
801.015747,329
801.134705,340
801.253723,325
801.37262,315
801.491638,304
801.610535,313
801.729492,325
801.84845,324
801.967407,329
802.086243,319
802.205261,317
802.324158,322
802.443115,305
802.562073,322
802.680969,315
802.799927,328
802.918762,322
803.037659,322
803.156677,332
803.275574,333
803.39447,320
803.513428,330
803.632263,327
803.751221,320
803.870117,334
803.989014,320
804.107971,319
804.226746,323
804.345642,324
804.4646,319
804.583496,314
804.702393,335
804.821228,309
804.940125,307
805.059021,313
805.177917,338
805.296814,316
805.415649,318
805.534546,317
805.653442,323
805.772278,325
805.891113,329
806.01001,329
806.128906,322
806.247742,312
806.366577,332
806.485413,336
806.604309,322
806.723145,328
806.84198,327
806.960876,319
807.079712,329
807.198486,321
807.317383,324
807.436218,310
807.554993,317
807.673889,320
807.792725,321
807.91156,336
808.030396,319
808.14917,320
808.268005,330
808.386841,318
808.505676,325
808.624451,320
808.743286,342
808.862122,325
808.980896,327
809.099731,307
809.218506,326
809.337341,329
809.456116,312
809.57489,323
809.693726,335
809.8125,318
809.931274,324
810.050049,332
810.168884,325
810.287659,318
810.406372,321
810.525269,319
810.643982,323
810.762756,333
810.881531,310
811.000305,330
811.11908,328
811.237854,304
811.356567,312
811.475403,327
811.594116,317
811.71283,314
811.831604,318
811.950378,327
812.069153,324
812.187927,316
812.30658,330
812.425415,323
812.544128,313
812.662781,327
812.781616,325
812.900269,315
813.019043,321
813.137756,326
813.256531,318
813.375244,324
813.493896,318
813.612671,315
813.731384,318
813.850037,321
813.96875,341
814.087524,309
814.206238,335
814.324951,320
814.443604,320
814.562256,319
814.68103,309
814.799683,330
814.918335,326
815.037109,319
815.155762,323
815.274475,322
815.393188,332
815.511841,323
815.630554,319
815.749146,312
815.867859,338
815.986572,319
816.105164,311
816.223877,323
816.342529,307
816.461182,305
816.579895,335
816.698486,320
816.817139,318
816.935791,316
817.054504,323
817.173096,319
817.291748,321
817.4104,318
817.529053,306
817.647644,320
817.766235,307
817.884949,319
818.00354,325
818.122192,321
818.240845,306
818.359436,324
818.478088,320
818.59668,322
818.715271,314
818.833923,313
818.952515,306
819.071106,322
819.189758,315
819.30835,306
819.426941,305
819.545532,325
819.664124,317
819.782715,308
819.901306,317
820.019897,318
820.138489,326
820.25708,310
820.375671,318
820.494202,311
820.612732,326
820.731384,318
820.849915,319
820.968506,317
821.087097,309
821.205627,318
821.324158,323
821.442749,332
821.561279,315
821.679871,319
821.798401,317
821.916931,313
822.035461,333
822.154053,312
822.272583,327
822.391174,309
822.509583,315
822.628174,324
822.746704,315
822.865234,315
822.983765,309
823.102295,316
823.220825,313
823.339294,308
823.457825,304
823.576355,317
823.694824,313
823.813354,311
823.931885,315
824.050354,311
824.168884,310
824.287354,315
824.405823,319
824.524353,309
824.642822,316
824.761353,315
824.879822,319
824.998291,316
825.116699,307
825.235291,316
825.353699,314
825.472168,308
825.590637,310
825.709106,329
825.827576,317
825.946045,321
826.064453,319
826.182983,329
826.301392,310
826.4198,314
826.53833,326
826.656738,328
826.775208,328
826.893677,306
827.012024,324
827.130493,318
827.248962,312
827.36731,323
827.485779,320
827.604248,308
827.722595,329
827.841064,312
827.959412,308
828.077942,309
828.196289,327
828.314636,308
828.433105,319
828.551514,312
828.669861,312
828.78833,307
828.906677,325
829.025085,320
829.143433,322
829.261841,319
829.38031,320
829.498657,321
829.617004,313
829.735413,317
829.85376,317
829.972107,306
830.090515,313
830.208862,311
830.327209,324
830.445557,304
830.563904,314
830.682312,310
830.800659,325
830.919006,326
831.037354,309
831.155701,319
831.274048,312
831.392395,315
831.51062,335
831.629028,316
831.747314,313
831.865662,310
831.984009,330
832.102356,319
832.220642,313
832.338928,315
832.457275,319
832.575623,325
832.693909,318
832.812134,302
832.930481,323
833.048828,316
833.167114,315
833.2854,318
833.403687,315
833.521973,314
833.640259,313
833.758545,317
833.876831,312
833.995056,316
834.113281,328
834.231628,317
834.349915,319
834.468201,312
834.586426,322
834.704651,316
834.822998,323
834.941162,303
835.059448,333
835.177673,313
835.295959,321
835.414246,313
835.53241,316
835.650635,323
835.768921,321
835.887146,302
836.005371,335
836.123596,313
836.241821,324
836.360046,311
836.478271,325
836.596497,314
836.714722,310
836.832886,304
836.95105,319
837.069336,323
837.1875,315
837.305725,317
837.423889,313
837.542053,317
837.660339,319
837.778503,321
837.896667,315
838.014832,318
838.132996,310
838.25116,315
838.369385,328
838.487488,324
838.605713,318
838.723877,313
838.84198,315
838.960205,309
839.078308,326
839.196472,316
839.314636,316
839.4328,313
839.550964,322
839.669067,313
839.787231,328
839.905396,320
840.023499,326
840.141602,305
840.259766,307
840.377869,312
840.495972,313
840.614136,321
840.732239,310
840.850342,323
840.968445,313
841.086548,308
841.204651,338
841.322754,311
841.440918,323
841.55896,312
841.677002,320
841.795166,315
841.913208,308
842.031311,312
842.149353,323
842.267456,308
842.385498,313
842.503601,314
842.621643,309
842.739746,316
842.857788,315
842.97583,324
843.093933,320
843.211975,316
843.330017,312
843.44812,321
843.566101,326
843.684204,310
843.802246,323
843.920227,301
844.038269,318
844.156311,328
844.274292,313
844.392395,312
844.510376,320
844.628357,312
844.74646,325
844.864441,315
844.982422,329
845.100403,309
845.218384,322
845.336426,326
845.454468,303
845.572449,309
845.69043,321
845.808411,326
845.926453,313
846.044373,320
846.162354,318
846.280396,314
846.398315,311
846.516296,315
846.634216,316
846.752197,328
846.870178,316
846.988098,312
847.106079,316
847.22406,321
847.34198,312
847.4599,316
847.577881,315
847.695801,317
847.813782,324
847.931641,315
848.049561,317
848.167603,304
848.285461,318
848.403381,323
848.521362,327
848.639221,312
848.75708,319
848.875,309
848.99292,318
849.110901,322
849.22876,308
849.34668,304
849.464539,321
849.582458,315
849.700317,321
849.818176,317
849.936096,342
850.053955,316
850.171875,324
850.289673,322
850.407593,313
850.525452,318
850.643311,305
850.761169,315
850.878967,313
850.996887,322
851.114746,307
851.232544,319
851.350403,308
851.468262,316
851.58606,310
851.703979,299
851.821777,318
851.939636,298
852.057434,317
852.175232,310
852.293091,317
852.410889,326
852.528687,321
852.646545,316
852.764343,321
852.88208,310
852.999939,321
853.117676,320
853.235535,308
853.353271,309
853.471069,313
853.588928,322
853.706604,313
853.824402,310
853.9422,313
854.059998,314
854.177734,314
854.295532,322
854.413269,316
854.531006,312
854.648804,307
854.766541,323
854.884277,309
855.002014,319
855.119751,306
855.237549,312
855.355225,318
855.473022,320
855.590698,315
855.708435,313
855.826172,319
855.943848,316
856.061646,312
856.179321,327
856.296997,323
856.414795,321
856.53241,329
856.650085,327
856.767822,323
856.885559,305
857.003174,317
857.120911,305
857.238586,326
857.356201,328
857.473938,311
857.591614,320
857.709351,316
857.826965,306
857.944641,314
858.062317,300
858.179993,311
858.297668,319
858.415283,315
858.532959,321
858.650574,324
858.768188,313
858.885803,307
859.003479,320
859.121094,321
859.23877,314
859.356384,316
859.473999,318
859.591675,310
859.709229,319
859.826843,326
859.944458,319
860.062012,322
860.179626,306
860.297302,320
860.414856,317
860.532471,314
860.650024,318
860.767639,315
860.885193,327
861.002808,319
861.120361,316
861.237976,312
861.35553,309
861.473022,317
861.590698,309
861.708191,311
861.825745,332
861.943298,314
862.060852,320
862.178406,325
862.295959,322
862.413513,314
862.531006,325
862.64856,322
862.766113,321
862.883667,305
863.00116,301
863.118713,324
863.236206,310
863.353699,331
863.471252,315
863.588745,319
863.706177,300
863.82373,317
863.941162,316
864.058716,324
864.176208,316
864.29364,327
864.411194,320
864.528687,324
864.646118,308
864.763611,306
864.881042,311
864.998535,315
865.116028,316
865.233459,312
865.350891,300
865.468384,312
865.585754,316
865.703308,320
865.820679,320
865.938171,307
866.055542,297
866.173035,328
866.290466,319
866.407837,312
866.52533,311
866.6427,319
866.760071,324
866.877563,319
866.994934,307
867.112305,313
867.229736,305
867.347107,309
867.464539,321
867.58197,311
867.699341,322
867.81665,324
867.934082,331
868.051453,328
868.168823,318
868.286194,313
868.403564,308
868.520935,313
868.638306,326
868.755676,313
868.872986,310
868.990295,318
869.107727,316
869.225037,323
869.342346,312
869.459717,320
869.577026,310
869.694336,321
869.811707,324
869.929016,308
870.046326,318
870.163635,307
870.280945,314
870.398254,314
870.515564,315
870.632812,319
870.750183,307
870.867432,327
870.984741,318
871.102051,315
871.219299,316
871.336609,310
871.453918,320
871.571106,320
871.688416,311
871.805664,318
871.922852,314
872.040222,312
872.157471,322
872.274719,313
872.391968,309
872.509155,330
872.626465,287
872.743652,308
872.860962,322
872.978149,319
873.095337,316
873.212646,326
873.329834,325
873.44696,320
873.564209,312
873.681396,315
873.798645,317
873.915894,308
874.03302,305
874.150208,323
874.267456,314
874.384583,319
874.501831,315
874.618958,325
874.736145,314
874.853333,317
874.970459,313
875.087646,322
875.204834,320
875.32196,316
875.439148,301
875.556274,317
875.673401,310
875.790527,322
875.907715,304
876.024841,310
876.141968,313
876.259094,323
876.376282,316
876.493347,327
876.610474,315
876.7276,318
876.844727,309
876.961853,317
877.078918,313
877.195984,320
877.313171,310
877.430237,312
877.547302,317
877.664368,327
877.781433,316
877.898499,330
878.015625,320
878.13269,318
878.249695,302
878.366821,325
878.483887,303
878.600952,331
878.717957,309
878.834961,329
878.952087,320
879.069092,315
879.186157,318
879.303162,321
879.420227,317
879.537231,313
879.654236,324
879.77124,323
879.888306,309
880.005249,314
880.122314,320
880.239319,315
880.356323,328
880.473328,308
880.590271,312
880.707275,318
880.824341,334
880.941284,326
881.058228,317
881.175232,326
881.292236,317
881.40918,319
881.526123,309
881.643066,320
881.760071,320
881.877014,319
881.993958,321
882.11084,326
882.227783,321
882.344727,322
882.46167,307
882.578613,310
882.695618,315
882.812439,315
882.929382,312
883.046326,305
883.163208,317
883.280151,324
883.397034,322
883.513916,321
883.630798,313
883.747742,319
883.864563,325
883.981506,316
884.098389,310
884.21521,316
884.332153,317
884.448975,313
884.565796,311
884.682678,319
884.7995,311
884.916443,326
885.033264,311
885.150085,311
885.266968,314
885.383789,322
885.500671,323
885.617493,322
885.734314,313
885.851196,322
885.967896,329
886.084717,315
886.201599,321
886.318359,310
886.435181,311
886.552002,321
886.668762,316
886.785645,308
886.902344,306
887.019165,327
887.135925,313
887.252747,325
887.369446,307
887.486267,320
887.603027,310
887.719788,324
887.836548,314
887.953247,309
888.070068,318
888.186829,324
888.303528,317
888.420288,326
888.536987,311
888.653687,326
888.770447,311
888.887146,321
889.003967,313
889.120667,307
889.237305,323
889.354065,308
889.470703,313
889.587463,318
889.704163,302
889.820862,316
889.937561,313
890.054199,321
890.170837,330
890.287598,322
890.404236,296
890.520874,317
890.637634,313
890.754211,330
890.87085,319
890.987549,324
891.104187,313
891.220886,308
891.337463,319
891.454102,319
891.57074,307
891.687378,323
891.804077,300
891.920654,325
892.037231,314
892.15387,324
892.270447,319
892.387085,316
892.503723,326
892.6203,307
892.736877,310
892.853516,316
892.970032,307
893.08667,318
893.203186,306
893.319763,303
893.43634,323
893.552917,324
893.669556,320
893.786011,311
893.902588,314
894.019165,331
894.135681,300
894.252197,315
894.368835,323
894.485291,320
894.601868,307
894.718384,329
894.8349,309
894.951355,329
895.067932,318
895.184448,333
895.300964,319
895.417419,323
895.533936,318
895.650452,319
895.766907,317
895.883423,320
895.999878,314
896.116333,317
896.232849,303
896.349304,334
896.465759,323
896.582214,310
896.698669,316
896.815125,306
896.931641,318
897.048035,314
897.164551,310
897.280884,322
897.397339,311
897.513794,318
897.630249,320
897.746582,311
897.863098,320
897.979431,314
898.095886,316
898.212341,318
898.328674,313
898.445129,311
898.561462,310
898.677795,301
898.794312,304
898.910645,322
899.026978,325
899.143433,312
899.259766,311
899.37616,318
899.492493,314
899.608765,321
899.725159,307
899.841553,313
899.957947,315
900.07428,311
900.190552,312
900.306946,319
900.423157,320
900.53949,303
900.655884,306
900.772156,318
900.888489,309
901.004822,323
901.121033,305
901.237366,316
901.353699,321
901.46991,320
901.586304,308
901.702515,322
901.818787,315
901.93512,322
902.051331,304
902.167603,313
902.283875,321
902.400085,318
902.516418,313
902.632629,312
902.74884,306
902.865112,320
902.981384,314
903.097595,333
903.213867,307
903.330017,316
903.446289,311
903.5625,321
903.67865,320
903.794922,312
903.911072,311
904.027344,312
904.143494,324
904.259705,314
904.375916,318
904.492065,330
904.608215,317
904.724426,317
904.840576,308
904.956726,323
905.072876,322
905.189087,308
905.305176,319
905.421387,313
905.537537,325
905.653687,326
905.769775,307
905.885925,310
906.002014,319
906.118164,315
906.234314,317
906.350403,310
906.466492,317
906.582642,317
906.69873,309
906.814758,323
906.930908,304
907.046936,322
907.163086,315
907.279175,317
907.395264,315
907.511353,312
907.62738,318
907.743408,311
907.859497,308
907.975525,308
908.091553,319
908.207703,317
908.32373,321
908.439758,310
908.555786,319
908.671814,326
908.787842,315
908.90387,322
909.019775,319
909.135864,307
909.251892,309
909.367859,316
909.483826,310
909.599854,322
909.715881,326
909.831848,305
909.947815,326
910.063782,316
910.179749,312
910.295776,323
910.411743,315
910.527649,314
910.643616,318
910.759583,314
910.875488,325
910.991455,316
911.107361,324
911.223267,311
911.339294,304
911.4552,317
911.571106,304
911.687073,322
911.802979,316
911.918823,312
912.034729,318
912.150635,311
912.266602,317
912.382446,324
912.498352,312
912.614197,314
912.730103,314
912.846008,320
