792.44574,314
792.56488,350
792.68396,413
792.80304,363
792.92218,335
793.041199,313
793.160339,320
793.279419,358
793.398499,324
793.517578,314
793.636658,306
793.755737,342
793.874817,349
793.993896,347
794.112976,329
794.232056,311
794.351074,337
794.470215,326
794.589233,332
794.708313,324
794.827393,334
794.946411,334
795.065552,349
795.18457,336
795.303589,320
795.422668,322
795.541687,335
795.660767,311
795.779846,338
795.898865,326
796.017883,329
796.136963,318
796.255981,326
796.375061,331
796.49408,329
796.613037,339
796.732117,338
796.851135,328
796.970154,334
797.089233,332
797.208191,338
797.327271,331
797.446228,320
797.565186,342
797.684265,336
797.803223,328
797.922241,330
798.04126,322
798.160278,333
798.279297,328
798.398315,336
798.517273,341
798.636292,330
798.75531,338
798.874268,329
798.993286,327
799.112244,325
799.231323,333
799.350281,320
799.469238,334
799.588257,331
799.707153,310
799.826111,321
799.945129,334
800.064087,332
800.183044,326
800.302063,332
800.421021,327
800.539978,329
800.658936,324
800.777893,334
800.896912,322
801.015747,334
801.134705,328
801.253723,326
801.37262,327
801.491638,327
801.610535,335
801.729492,337
801.84845,323
801.967407,322
802.086243,331
802.205261,325
802.324158,338
802.443115,332
802.562073,334
802.680969,327
802.799927,341
802.918762,339
803.037659,326
803.156677,328
803.275574,344
803.39447,317
803.513428,335
803.632263,329
803.751221,328
803.870117,340
803.989014,328
804.107971,330
804.226746,340
804.345642,326
804.4646,328
804.583496,323
804.702393,329
804.821228,328
804.940125,307
805.059021,320
805.177917,336
805.296814,339
805.415649,350
805.534546,332
805.653442,341
805.772278,323
805.891113,334
806.01001,335
806.128906,330
806.247742,333
806.366577,339
806.485413,322
806.604309,335
806.723145,331
806.84198,336
806.960876,337
807.079712,347
807.198486,336
807.317383,326
807.436218,339
807.554993,322
807.673889,332
807.792725,336
807.91156,334
808.030396,331
808.14917,327
808.268005,353
808.386841,336
808.505676,327
808.624451,341
808.743286,322
808.862122,329
808.980896,337
809.099731,328
809.218506,335
809.337341,339
809.456116,329
809.57489,338
809.693726,337
809.8125,323
809.931274,336
810.050049,336
810.168884,337
810.287659,328
810.406372,341
810.525269,338
810.643982,328
810.762756,325
810.881531,331
811.000305,342
811.11908,333
811.237854,338
811.356567,341
811.475403,348
811.594116,322
811.71283,329
811.831604,335
811.950378,330
812.069153,331
812.187927,342
812.30658,335
812.425415,331
812.544128,331
812.662781,339
812.781616,328
812.900269,345
813.019043,318
813.137756,339
813.256531,316
813.375244,343
813.493896,330
813.612671,348
813.731384,337
813.850037,335
813.96875,345
814.087524,334
814.206238,332
814.324951,343
814.443604,335
814.562256,326
814.68103,319
814.799683,344
814.918335,324
815.037109,318
815.155762,326
815.274475,328
815.393188,336
815.511841,346
815.630554,312
815.749146,323
815.867859,329
815.986572,335
816.105164,327
816.223877,340
816.342529,335
816.461182,332
816.579895,327
816.698486,336
816.817139,334
816.935791,334
817.054504,317
817.173096,341
817.291748,320
817.4104,313
817.529053,333
817.647644,339
817.766235,330
817.884949,332
818.00354,325
818.122192,329
818.240845,309
818.359436,326
818.478088,312
818.59668,328
818.715271,317
818.833923,332
818.952515,325
819.071106,320
819.189758,333
819.30835,328
819.426941,322
819.545532,317
819.664124,313
819.782715,326
819.901306,317
820.019897,331
820.138489,318
820.25708,329
820.375671,317
820.494202,329
820.612732,307
820.731384,325
820.849915,318
820.968506,315
821.087097,320
821.205627,316
821.324158,313
821.442749,328
821.561279,311
821.679871,313
821.798401,336
821.916931,327
822.035461,316
822.154053,317
822.272583,314
822.391174,324
822.509583,323
822.628174,327
822.746704,316
822.865234,324
822.983765,310
823.102295,320
823.220825,317
823.339294,329
823.457825,311
823.576355,304
823.694824,318
823.813354,304
823.931885,320
824.050354,319
824.168884,308
824.287354,327
824.405823,325
824.524353,317
824.642822,322
824.761353,327
824.879822,320
824.998291,319
825.116699,318
825.235291,326
825.353699,325
825.472168,324
825.590637,328
825.709106,315
825.827576,305
825.946045,314
826.064453,326
826.182983,312
826.301392,310
826.4198,316
826.53833,306
826.656738,319
826.775208,329
826.893677,326
827.012024,311
827.130493,327
827.248962,327
827.36731,317
827.485779,308
827.604248,308
827.722595,313
827.841064,321
827.959412,324
828.077942,309
828.196289,315
828.314636,326
828.433105,320
828.551514,325
828.669861,320
828.78833,309
828.906677,308
829.025085,318
829.143433,317
829.261841,314
829.38031,314
829.498657,332
829.617004,313
829.735413,320
829.85376,307
829.972107,320
830.090515,317
830.208862,326
830.327209,315
830.445557,303
830.563904,312
830.682312,311
830.800659,324
830.919006,325
831.037354,319
831.155701,321
831.274048,322
831.392395,323
831.51062,310
831.629028,303
831.747314,312
831.865662,315
831.984009,307
832.102356,303
832.220642,324
832.338928,319
832.457275,320
832.575623,324
832.693909,321
832.812134,314
832.930481,319
833.048828,330
833.167114,326
833.2854,312
833.403687,325
833.521973,318
833.640259,299
833.758545,317
833.876831,307
833.995056,315
834.113281,308
834.231628,319
834.349915,311
834.468201,320
834.586426,316
834.704651,332
834.822998,302
834.941162,331
835.059448,320
835.177673,325
835.295959,325
835.414246,329
835.53241,315
835.650635,315
835.768921,321
835.887146,323
836.005371,322
836.123596,315
836.241821,316
836.360046,317
836.478271,322
836.596497,317
836.714722,316
836.832886,317
836.95105,313
837.069336,314
837.1875,315
837.305725,316
837.423889,326
837.542053,313
837.660339,312
837.778503,313
837.896667,315
838.014832,318
838.132996,313
838.25116,324
838.369385,310
838.487488,327
838.605713,310
838.723877,316
838.84198,317
838.960205,316
839.078308,315
839.196472,319
839.314636,320
839.4328,328
839.550964,313
839.669067,319
839.787231,312
839.905396,313
840.023499,308
840.141602,328
840.259766,321
840.377869,325
840.495972,319
840.614136,318
840.732239,326
840.850342,322
840.968445,312
841.086548,323
841.204651,314
841.322754,317
841.440918,323
841.55896,332
841.677002,323
841.795166,318
841.913208,308
842.031311,320
842.149353,317
842.267456,321
842.385498,320
842.503601,336
842.621643,317
842.739746,318
842.857788,302
842.97583,322
843.093933,316
843.211975,333
843.330017,317
843.44812,306
843.566101,322
843.684204,316
843.802246,309
843.920227,322
844.038269,325
844.156311,320
844.274292,306
844.392395,322
844.510376,312
844.628357,319
844.74646,319
844.864441,306
844.982422,314
845.100403,320
845.218384,320
845.336426,315
845.454468,313
845.572449,316
845.69043,323
845.808411,314
845.926453,313
846.044373,313
846.162354,314
846.280396,318
846.398315,310
846.516296,329
846.634216,308
846.752197,329
846.870178,319
846.988098,304
847.106079,312
847.22406,314
847.34198,311
847.4599,316
847.577881,304
847.695801,320
847.813782,311
847.931641,313
848.049561,327
848.167603,307
848.285461,319
848.403381,317
848.521362,326
848.639221,322
848.75708,300
848.875,331
848.99292,312
849.110901,323
849.22876,297
849.34668,313
849.464539,306
849.582458,314
849.700317,326
849.818176,315
849.936096,317
850.053955,314
850.171875,321
850.289673,317
850.407593,308
850.525452,325
850.643311,315
850.761169,315
850.878967,313
850.996887,323
851.114746,314
851.232544,312
851.350403,311
851.468262,316
851.58606,300
851.703979,320
851.821777,316
851.939636,314
852.057434,312
852.175232,319
852.293091,311
852.410889,318
852.528687,318
852.646545,317
852.764343,320
852.88208,311
852.999939,308
853.117676,329
853.235535,307
853.353271,319
853.471069,333
853.588928,317
853.706604,317
853.824402,318
853.9422,311
854.059998,322
854.177734,311
854.295532,313
854.413269,327
854.531006,323
854.648804,310
854.766541,321
854.884277,307
855.002014,311
855.119751,330
855.237549,324
855.355225,314
855.473022,306
855.590698,319
855.708435,329
855.826172,332
855.943848,310
856.061646,304
856.179321,329
856.296997,320
856.414795,319
856.53241,310
856.650085,314
856.767822,324
856.885559,321
857.003174,320
857.120911,329
857.238586,313
857.356201,312
857.473938,310
857.591614,323
857.709351,332
857.826965,322
857.944641,313
858.062317,323
858.179993,314
858.297668,337
858.415283,320
858.532959,311
858.650574,309
858.768188,323
858.885803,314
859.003479,316
859.121094,317
859.23877,324
859.356384,311
859.473999,320
859.591675,307
859.709229,314
859.826843,325
859.944458,320
860.062012,331
860.179626,327
860.297302,322
860.414856,306
860.532471,309
860.650024,311
860.767639,305
860.885193,325
861.002808,325
861.120361,318
861.237976,308
861.35553,311
861.473022,332
861.590698,319
861.708191,314
861.825745,317
861.943298,321
862.060852,326
862.178406,321
862.295959,317
862.413513,321
862.531006,318
862.64856,305
862.766113,311
862.883667,314
863.00116,328
863.118713,314
863.236206,317
863.353699,315
863.471252,313
863.588745,314
863.706177,317
863.82373,320
863.941162,315
864.058716,305
864.176208,321
864.29364,322
864.411194,313
864.528687,303
864.646118,313
864.763611,299
864.881042,315
864.998535,322
865.116028,321
865.233459,304
865.350891,316
865.468384,313
865.585754,313
865.703308,330
865.820679,323
865.938171,312
866.055542,321
866.173035,311
866.290466,335
866.407837,314
866.52533,316
866.6427,316
866.760071,328
866.877563,330
866.994934,306
867.112305,315
867.229736,330
867.347107,311
867.464539,320
867.58197,306
867.699341,316
867.81665,303
867.934082,310
868.051453,331
868.168823,312
868.286194,322
868.403564,320
868.520935,329
868.638306,320
868.755676,310
868.872986,320
868.990295,301
869.107727,332
869.225037,322
869.342346,310
869.459717,316
869.577026,314
869.694336,327
869.811707,320
869.929016,306
870.046326,323
870.163635,309
870.280945,314
870.398254,301
870.515564,307
870.632812,311
870.750183,330
870.867432,317
870.984741,325
871.102051,331
871.219299,322
871.336609,319
871.453918,322
871.571106,313
871.688416,324
871.805664,312
871.922852,311
872.040222,317
872.157471,338
872.274719,317
872.391968,324
872.509155,319
872.626465,322
872.743652,305
872.860962,321
872.978149,323
873.095337,318
873.212646,315
873.329834,318
873.44696,316
873.564209,330
873.681396,305
873.798645,321
873.915894,314
874.03302,316
874.150208,316
874.267456,324
874.384583,316
874.501831,323
874.618958,319
874.736145,309
874.853333,303
874.970459,315
875.087646,315
875.204834,329
875.32196,315
875.439148,314
875.556274,328
875.673401,307
875.790527,330
875.907715,315
876.024841,308
876.141968,326
876.259094,314
876.376282,318
876.493347,316
876.610474,304
876.7276,315
876.844727,331
876.961853,321
877.078918,327
877.195984,318
877.313171,329
877.430237,314
877.547302,336
877.664368,306
877.781433,320
877.898499,303
878.015625,313
878.13269,300
878.249695,321
878.366821,309
878.483887,319
878.600952,318
878.717957,321
878.834961,314
878.952087,316
879.069092,307
879.186157,315
879.303162,324
879.420227,331
879.537231,308
879.654236,319
879.77124,326
879.888306,312
880.005249,312
880.122314,330
880.239319,327
880.356323,310
880.473328,301
880.590271,317
880.707275,312
880.824341,330
880.941284,326
881.058228,313
881.175232,302
881.292236,317
881.40918,311
881.526123,317
881.643066,301
881.760071,321
881.877014,323
881.993958,314
882.11084,322
882.227783,320
882.344727,314
882.46167,318
882.578613,323
882.695618,327
882.812439,321
882.929382,322
883.046326,307
883.163208,332
883.280151,301
883.397034,310
883.513916,312
883.630798,321
883.747742,312
883.864563,327
883.981506,316
884.098389,337
884.21521,308
884.332153,321
884.448975,309
884.565796,314
884.682678,317
884.7995,319
884.916443,311
885.033264,303
885.150085,302
885.266968,318
885.383789,309
885.500671,324
885.617493,311
885.734314,332
885.851196,318
885.967896,317
886.084717,319
886.201599,319
886.318359,317
886.435181,320
886.552002,308
886.668762,323
886.785645,318
886.902344,304
887.019165,313
887.135925,327
887.252747,326
887.369446,320
887.486267,314
887.603027,319
887.719788,305
887.836548,321
887.953247,319
888.070068,323
888.186829,316
888.303528,322
888.420288,329
888.536987,317
888.653687,313
888.770447,326
888.887146,303
889.003967,329
889.120667,321
889.237305,319
889.354065,309
889.470703,321
889.587463,301
889.704163,336
889.820862,312
889.937561,306
890.054199,303
890.170837,314
890.287598,303
890.404236,330
890.520874,325
890.637634,321
890.754211,321
890.87085,327
890.987549,318
891.104187,318
891.220886,313
891.337463,322
891.454102,320
891.57074,322
891.687378,324
891.804077,313
891.920654,316
892.037231,321
892.15387,305
892.270447,321
892.387085,299
892.503723,324
892.6203,316
892.736877,317
892.853516,323
892.970032,307
893.08667,317
893.203186,314
893.319763,323
893.43634,317
893.552917,326
893.669556,323
893.786011,318
893.902588,315
894.019165,304
894.135681,331
894.252197,323
894.368835,326
894.485291,302
894.601868,315
894.718384,304
894.8349,340
894.951355,323
895.067932,321
895.184448,331
895.300964,321
895.417419,323
895.533936,319
895.650452,319
895.766907,311
895.883423,317
895.999878,336
896.116333,315
896.232849,322
896.349304,322
896.465759,329
896.582214,321
896.698669,328
896.815125,324
896.931641,342
897.048035,304
897.164551,323
897.280884,301
897.397339,323
897.513794,313
897.630249,320
897.746582,312
897.863098,326
897.979431,319
898.095886,319
898.212341,314
898.328674,324
898.445129,304
898.561462,320
898.677795,311
898.794312,319
898.910645,316
899.026978,316
899.143433,317
899.259766,322
899.37616,306
899.492493,323
899.608765,302
899.725159,330
899.841553,328
899.957947,331
900.07428,340
900.190552,318
900.306946,307
900.423157,330
900.53949,317
900.655884,314
900.772156,319
900.888489,313
901.004822,317
901.121033,317
901.237366,319
901.353699,322
901.46991,309
901.586304,317
901.702515,317
901.818787,332
901.93512,324
902.051331,316
902.167603,323
902.283875,323
902.400085,322
902.516418,324
902.632629,323
902.74884,324
902.865112,311
902.981384,314
903.097595,326
903.213867,325
903.330017,320
903.446289,328
903.5625,300
903.67865,319
903.794922,303
903.911072,317
904.027344,311
904.143494,321
904.259705,323
904.375916,320
904.492065,313
904.608215,334
904.724426,313
904.840576,318
904.956726,314
905.072876,322
905.189087,321
905.305176,317
905.421387,304
905.537537,314
905.653687,327
905.769775,322
905.885925,322
906.002014,316
906.118164,312
906.234314,326
906.350403,316
906.466492,323
906.582642,323
906.69873,311
906.814758,317
906.930908,321
907.046936,313
907.163086,320
907.279175,307
907.395264,312
907.511353,324
907.62738,335
907.743408,317
907.859497,305
907.975525,313
908.091553,335
908.207703,314
908.32373,309
908.439758,312
908.555786,331
908.671814,316
908.787842,319
908.90387,327
909.019775,328
909.135864,313
909.251892,328
909.367859,307
909.483826,311
909.599854,317
909.715881,322
909.831848,311
909.947815,321
910.063782,317
910.179749,327
910.295776,313
910.411743,326
910.527649,311
910.643616,323
910.759583,322
910.875488,321
910.991455,314
911.107361,329
911.223267,323
911.339294,326
911.4552,307
911.571106,324
911.687073,316
911.802979,336
911.918823,327
912.034729,321
912.150635,323
912.266602,328
912.382446,314
912.498352,319
912.614197,335
912.730103,313
912.846008,315
792.44574,303
792.56488,337
792.68396,400
792.80304,395
792.92218,347
793.041199,312
793.160339,325
793.279419,345
793.398499,334
793.517578,312
793.636658,321
793.755737,327
793.874817,353
793.993896,347
794.112976,330
794.232056,334
794.351074,318
794.470215,319
794.589233,316
794.708313,331
794.827393,313
794.946411,332
795.065552,330
795.18457,332
795.303589,332
795.422668,336
795.541687,338
795.660767,328
795.779846,341
795.898865,319
796.017883,333
796.136963,325
796.255981,338
796.375061,326
796.49408,333
796.613037,314
796.732117,336
796.851135,323
796.970154,317
797.089233,334
797.208191,324
797.327271,330
797.446228,339
797.565186,325
797.684265,348
797.803223,333
797.922241,328
798.04126,323
798.160278,332
798.279297,333
798.398315,338
798.517273,335
798.636292,314
798.75531,323
798.874268,342
798.993286,329
799.112244,328
799.231323,338
799.350281,329
799.469238,324
799.588257,329
799.707153,333
799.826111,328
799.945129,340
800.064087,314
800.183044,328
800.302063,336
800.421021,324
800.539978,339
800.658936,322
800.777893,327
800.896912,321
801.015747,328
801.134705,332
801.253723,338
801.37262,331
801.491638,332
801.610535,334
801.729492,324
801.84845,324
801.967407,324
802.086243,327
802.205261,325
802.324158,326
802.443115,319
802.562073,330
802.680969,329
802.799927,331
802.918762,332
803.037659,322
803.156677,323
803.275574,321
803.39447,318
803.513428,335
803.632263,339
803.751221,328
803.870117,338
803.989014,322
804.107971,325
804.226746,331
804.345642,324
804.4646,319
804.583496,321
804.702393,335
804.821228,325
804.940125,322
805.059021,343
805.177917,316
805.296814,319
805.415649,322
805.534546,334
805.653442,325
805.772278,324
805.891113,332
806.01001,324
806.128906,326
806.247742,330
806.366577,323
806.485413,337
806.604309,337
806.723145,333
806.84198,329
806.960876,334
807.079712,334
807.198486,320
807.317383,331
807.436218,316
807.554993,328
807.673889,330
807.792725,345
807.91156,331
808.030396,343
808.14917,314
808.268005,339
808.386841,336
808.505676,325
808.624451,334
808.743286,345
808.862122,334
808.980896,334
809.099731,320
809.218506,327
809.337341,321
809.456116,331
809.57489,326
809.693726,325
809.8125,326
809.931274,337
810.050049,317
810.168884,339
810.287659,317
810.406372,317
810.525269,330
810.643982,330
810.762756,344
810.881531,334
811.000305,342
811.11908,321
811.237854,344
811.356567,324
811.475403,331
811.594116,330
811.71283,329
811.831604,324
811.950378,336
812.069153,336
812.187927,321
812.30658,333
812.425415,333
812.544128,334
812.662781,334
812.781616,341
812.900269,341
813.019043,331
813.137756,336
813.256531,323
813.375244,331
813.493896,332
813.612671,338
813.731384,324
813.850037,319
813.96875,330
814.087524,333
814.206238,324
814.324951,317
814.443604,337
814.562256,333
814.68103,338
814.799683,334
814.918335,332
815.037109,315
815.155762,326
815.274475,328
815.393188,339
815.511841,328
815.630554,318
815.749146,326
815.867859,326
815.986572,323
816.105164,345
816.223877,338
816.342529,323
816.461182,344
816.579895,329
816.698486,339
816.817139,326
816.935791,336
817.054504,339
817.173096,329
817.291748,313
817.4104,334
817.529053,333
817.647644,333
817.766235,318
817.884949,326
818.00354,329
818.122192,328
818.240845,327
818.359436,325
818.478088,330
818.59668,316
818.715271,314
818.833923,329
818.952515,317
819.071106,329
819.189758,326
819.30835,313
819.426941,328
819.545532,328
819.664124,324
819.782715,315
819.901306,325
820.019897,329
820.138489,308
820.25708,329
820.375671,317
820.494202,321
820.612732,321
820.731384,326
820.849915,317
820.968506,326
821.087097,308
821.205627,328
821.324158,321
821.442749,315
821.561279,315
821.679871,314
821.798401,325
821.916931,319
822.035461,313
822.154053,313
822.272583,327
822.391174,311
822.509583,317
822.628174,315
822.746704,332
822.865234,312
822.983765,311
823.102295,326
823.220825,324
823.339294,311
823.457825,311
823.576355,318
823.694824,309
823.813354,327
823.931885,308
824.050354,308
824.168884,313
824.287354,311
824.405823,331
824.524353,311
824.642822,304
824.761353,329
824.879822,326
824.998291,316
825.116699,328
825.235291,310
825.353699,317
825.472168,323
825.590637,315
825.709106,329
825.827576,307
825.946045,315
826.064453,307
826.182983,303
826.301392,309
826.4198,324
826.53833,312
826.656738,326
826.775208,310
826.893677,327
827.012024,309
827.130493,318
827.248962,314
827.36731,326
827.485779,294
827.604248,313
827.722595,331
827.841064,332
827.959412,316
828.077942,319
828.196289,322
828.314636,313
828.433105,317
828.551514,314
828.669861,313
828.78833,292
828.906677,308
829.025085,296
829.143433,312
829.261841,325
829.38031,325
829.498657,318
829.617004,306
829.735413,325
829.85376,306
829.972107,319
830.090515,309
830.208862,303
830.327209,315
830.445557,321
830.563904,314
830.682312,322
830.800659,311
830.919006,318
831.037354,317
831.155701,316
831.274048,307
831.392395,324
831.51062,327
831.629028,312
831.747314,316
831.865662,329
831.984009,315
832.102356,302
832.220642,302
832.338928,321
832.457275,310
832.575623,317
832.693909,317
832.812134,327
832.930481,319
833.048828,302
833.167114,321
833.2854,314
833.403687,317
833.521973,323
833.640259,317
833.758545,314
833.876831,317
833.995056,315
834.113281,302
834.231628,306
834.349915,317
834.468201,320
834.586426,301
834.704651,313
834.822998,313
834.941162,317
835.059448,312
835.177673,314
835.295959,326
835.414246,304
835.53241,311
835.650635,321
835.768921,313
835.887146,320
836.005371,294
836.123596,310
836.241821,319
836.360046,319
836.478271,319
836.596497,310
836.714722,320
836.832886,320
836.95105,303
837.069336,328
837.1875,301
837.305725,327
837.423889,315
837.542053,325
837.660339,319
837.778503,316
837.896667,306
838.014832,332
838.132996,320
838.25116,311
838.369385,312
838.487488,319
838.605713,319
838.723877,322
838.84198,320
838.960205,322
839.078308,305
839.196472,326
839.314636,316
839.4328,315
839.550964,311
839.669067,318
839.787231,318
839.905396,302
840.023499,321
840.141602,311
840.259766,321
840.377869,311
840.495972,312
840.614136,313
840.732239,316
840.850342,320
840.968445,326
841.086548,309
841.204651,317
841.322754,322
841.440918,319
841.55896,325
841.677002,303
841.795166,320
841.913208,310
842.031311,316
842.149353,313
842.267456,325
842.385498,301
842.503601,321
842.621643,306
842.739746,315
842.857788,309
842.97583,333
843.093933,320
843.211975,313
843.330017,311
843.44812,314
843.566101,317
843.684204,317
843.802246,324
843.920227,313
844.038269,319
844.156311,316
844.274292,312
844.392395,320
844.510376,311
844.628357,315
844.74646,314
844.864441,312
844.982422,319
845.100403,330
845.218384,310
845.336426,321
845.454468,313
845.572449,326
845.69043,310
845.808411,316
845.926453,307
846.044373,319
846.162354,318
846.280396,315
846.398315,308
846.516296,301
846.634216,315
846.752197,323
846.870178,325
846.988098,307
847.106079,318
847.22406,319
847.34198,315
847.4599,312
847.577881,314
847.695801,332
847.813782,316
847.931641,324
848.049561,312
848.167603,321
848.285461,303
848.403381,323
848.521362,307
848.639221,318
848.75708,313
848.875,319
848.99292,317
849.110901,317
849.22876,301
849.34668,324
849.464539,309
849.582458,319
849.700317,310
849.818176,320
849.936096,320
850.053955,323
850.171875,313
850.289673,311
850.407593,304
850.525452,321
850.643311,311
850.761169,324
850.878967,315
850.996887,315
851.114746,297
851.232544,313
851.350403,309
851.468262,330
851.58606,312
851.703979,319
851.821777,302
851.939636,315
852.057434,304
852.175232,324
852.293091,297
852.410889,321
852.528687,306
852.646545,321
852.764343,308
852.88208,300
852.999939,322
853.117676,304
853.235535,314
853.353271,314
853.471069,304
853.588928,318
853.706604,306
853.824402,319
853.9422,315
854.059998,320
854.177734,326
854.295532,323
854.413269,314
854.531006,319
854.648804,318
854.766541,305
854.884277,314
855.002014,318
855.119751,310
855.237549,317
855.355225,309
855.473022,317
855.590698,307
855.708435,320
855.826172,297
855.943848,320
856.061646,315
856.179321,320
856.296997,314
856.414795,325
856.53241,314
856.650085,326
856.767822,314
856.885559,329
857.003174,306
857.120911,313
857.238586,307
857.356201,321
857.473938,323
857.591614,309
857.709351,320
857.826965,327
857.944641,311
858.062317,307
858.179993,308
858.297668,327
858.415283,303
858.532959,314
858.650574,313
858.768188,318
858.885803,303
859.003479,312
859.121094,306
859.23877,312
859.356384,307
859.473999,314
859.591675,312
859.709229,330
859.826843,310
859.944458,320
860.062012,307
860.179626,314
860.297302,322
860.414856,328
860.532471,305
860.650024,320
860.767639,315
860.885193,329
861.002808,311
861.120361,316
861.237976,305
861.35553,306
861.473022,313
861.590698,318
861.708191,314
861.825745,331
861.943298,319
862.060852,314
862.178406,317
862.295959,321
862.413513,315
862.531006,312
862.64856,311
862.766113,307
862.883667,316
863.00116,312
863.118713,319
863.236206,310
863.353699,310
863.471252,317
863.588745,316
863.706177,316
863.82373,326
863.941162,307
864.058716,308
864.176208,316
864.29364,314
864.411194,322
864.528687,329
864.646118,308
864.763611,311
864.881042,316
864.998535,324
865.116028,325
865.233459,314
865.350891,327
865.468384,305
865.585754,318
865.703308,317
865.820679,304
865.938171,307
866.055542,321
866.173035,311
866.290466,306
866.407837,303
866.52533,322
866.6427,319
866.760071,326
866.877563,295
866.994934,314
867.112305,315
867.229736,324
867.347107,306
867.464539,309
867.58197,312
867.699341,324
867.81665,323
867.934082,318
868.051453,325
868.168823,326
868.286194,304
868.403564,304
868.520935,319
868.638306,316
868.755676,301
868.872986,320
868.990295,325
869.107727,310
869.225037,314
869.342346,314
869.459717,319
869.577026,320
869.694336,321
869.811707,318
869.929016,298
870.046326,334
870.163635,295
870.280945,335
870.398254,320
870.515564,324
870.632812,329
870.750183,327
870.867432,326
870.984741,321
871.102051,312
871.219299,327
871.336609,318
871.453918,315
871.571106,309
871.688416,328
871.805664,308
871.922852,315
872.040222,317
872.157471,310
872.274719,318
872.391968,321
872.509155,319
872.626465,315
872.743652,318
872.860962,314
872.978149,316
873.095337,306
873.212646,314
873.329834,308
873.44696,307
873.564209,314
873.681396,319
873.798645,308
873.915894,308
874.03302,313
874.150208,320
874.267456,298
874.384583,310
874.501831,313
874.618958,320
874.736145,317
874.853333,316
874.970459,322
875.087646,327
875.204834,313
875.32196,311
875.439148,319
875.556274,306
875.673401,320
875.790527,301
875.907715,320
876.024841,295
876.141968,322
876.259094,300
876.376282,320
876.493347,316
876.610474,313
876.7276,314
876.844727,323
876.961853,317
877.078918,335
877.195984,302
877.313171,313
877.430237,318
877.547302,307
877.664368,299
877.781433,316
877.898499,320
878.015625,311
878.13269,308
878.249695,327
878.366821,306
878.483887,322
878.600952,302
878.717957,314
878.834961,312
878.952087,317
879.069092,304
879.186157,326
879.303162,303
879.420227,325
879.537231,307
879.654236,319
879.77124,314
879.888306,320
880.005249,317
880.122314,303
880.239319,319
880.356323,322
880.473328,309
880.590271,324
880.707275,312
880.824341,306
880.941284,311
881.058228,325
881.175232,310
881.292236,313
881.40918,309
881.526123,308
881.643066,298
881.760071,328
881.877014,291
881.993958,322
882.11084,310
882.227783,328
882.344727,305
882.46167,323
882.578613,309
882.695618,319
882.812439,302
882.929382,321
883.046326,306
883.163208,321
883.280151,305
883.397034,326
883.513916,311
883.630798,322
883.747742,320
883.864563,315
883.981506,311
884.098389,319
884.21521,301
884.332153,325
884.448975,311
884.565796,333
884.682678,301
884.7995,335
884.916443,324
885.033264,319
885.150085,313
885.266968,328
885.383789,316
885.500671,313
885.617493,318
885.734314,310
885.851196,325
885.967896,313
886.084717,315
886.201599,314
886.318359,323
886.435181,310
886.552002,325
886.668762,321
886.785645,311
886.902344,309
887.019165,316
887.135925,320
887.252747,315
887.369446,313
887.486267,303
887.603027,338
887.719788,305
887.836548,319
887.953247,309
888.070068,309
888.186829,321
888.303528,321
888.420288,324
888.536987,320
888.653687,305
888.770447,304
888.887146,307
889.003967,327
889.120667,309
889.237305,322
889.354065,315
889.470703,315
889.587463,319
889.704163,315
889.820862,305
889.937561,328
890.054199,307
890.170837,318
890.287598,305
890.404236,320
890.520874,312
890.637634,326
890.754211,305
890.87085,318
890.987549,305
891.104187,315
891.220886,304
891.337463,312
891.454102,311
891.57074,326
891.687378,318
891.804077,322
891.920654,310
892.037231,314
892.15387,315
892.270447,324
892.387085,313
892.503723,321
892.6203,310
892.736877,320
892.853516,325
892.970032,308
893.08667,319
893.203186,319
893.319763,291
893.43634,318
893.552917,310
893.669556,326
893.786011,308
893.902588,318
894.019165,311
894.135681,332
894.252197,308
894.368835,328
894.485291,328
894.601868,322
894.718384,315
894.8349,329
894.951355,318
895.067932,313
895.184448,308
895.300964,311
895.417419,319
895.533936,331
895.650452,316
895.766907,324
895.883423,319
895.999878,314
896.116333,315
896.232849,319
896.349304,304
896.465759,329
896.582214,320
896.698669,308
896.815125,309
896.931641,320
897.048035,315
897.164551,327
897.280884,306
897.397339,321
897.513794,320
897.630249,315
897.746582,317
897.863098,306
897.979431,303
898.095886,327
898.212341,302
898.328674,326
898.445129,310
898.561462,305
898.677795,321
898.794312,319
898.910645,310
899.026978,309
899.143433,324
899.259766,318
899.37616,300
899.492493,318
899.608765,318
899.725159,316
899.841553,319
899.957947,320
900.07428,331
900.190552,322
900.306946,301
900.423157,318
900.53949,312
900.655884,323
900.772156,313
900.888489,323
901.004822,314
901.121033,306
901.237366,338
901.353699,313
901.46991,321
901.586304,316
901.702515,310
901.818787,318
901.93512,304
902.051331,310
902.167603,304
902.283875,330
902.400085,309
902.516418,328
902.632629,306
902.74884,322
902.865112,323
902.981384,331
903.097595,297
903.213867,323
903.330017,306
903.446289,331
903.5625,331
903.67865,326
903.794922,324
903.911072,319
904.027344,318
904.143494,319
904.259705,328
904.375916,312
904.492065,313
904.608215,306
904.724426,309
904.840576,327
904.956726,300
905.072876,325
905.189087,300
905.305176,329
905.421387,311
905.537537,331
905.653687,323
905.769775,311
905.885925,323
906.002014,331
906.118164,306
906.234314,325
906.350403,310
906.466492,312
906.582642,327
906.69873,321
906.814758,315
906.930908,310
907.046936,318
907.163086,318
907.279175,303
907.395264,318
907.511353,322
907.62738,318
907.743408,317
907.859497,320
907.975525,317
908.091553,321
908.207703,313
908.32373,324
908.439758,306
908.555786,317
908.671814,300
908.787842,320
908.90387,320
909.019775,326
909.135864,327
909.251892,317
909.367859,317
909.483826,316
909.599854,289
909.715881,309
909.831848,311
909.947815,325
910.063782,318
910.179749,318
910.295776,313
910.411743,329
910.527649,326
910.643616,333
910.759583,311
910.875488,319
910.991455,324
911.107361,318
911.223267,322
911.339294,318
911.4552,322
911.571106,328
911.687073,326
911.802979,320
911.918823,309
912.034729,317
912.150635,309
912.266602,326
912.382446,309
912.498352,306
912.614197,302
912.730103,320
912.846008,322
792.44574,318
792.56488,346
792.68396,387
792.80304,380
792.92218,330
793.041199,327
793.160339,305
793.279419,325
793.398499,323
793.517578,328
793.636658,307
793.755737,334
793.874817,339
793.993896,339
794.112976,342
794.232056,331
794.351074,320
794.470215,330
794.589233,336
794.708313,330
794.827393,325
794.946411,338
795.065552,348
795.18457,320
795.303589,333
795.422668,323
795.541687,318
795.660767,337
795.779846,349
795.898865,328
796.017883,325
796.136963,325
796.255981,330
796.375061,339
796.49408,331
796.613037,335
796.732117,325
796.851135,328
796.970154,329
797.089233,338
797.208191,339
797.327271,323
797.446228,331
797.565186,339
797.684265,331
797.803223,328
797.922241,338
798.04126,335
798.160278,339
798.279297,324
798.398315,333
798.517273,342
798.636292,327
798.75531,332
798.874268,334
798.993286,331
799.112244,326
799.231323,324
799.350281,328
799.469238,332
799.588257,333
799.707153,333
799.826111,333
799.945129,327
800.064087,329
800.183044,341
800.302063,334
800.421021,328
800.539978,318
800.658936,325
800.777893,333
800.896912,328
801.015747,333
801.134705,331
801.253723,328
801.37262,325
801.491638,326
801.610535,338
801.729492,339
801.84845,342
801.967407,324
802.086243,328
802.205261,336
802.324158,317
802.443115,329
802.562073,335
802.680969,336
802.799927,316
802.918762,335
803.037659,329
803.156677,328
803.275574,343
803.39447,330
803.513428,321
803.632263,322
803.751221,337
803.870117,328
803.989014,325
804.107971,326
804.226746,326
804.345642,327
804.4646,328
804.583496,315
804.702393,324
804.821228,335
804.940125,341
805.059021,319
805.177917,336
805.296814,321
805.415649,343
805.534546,328
805.653442,328
805.772278,320
805.891113,332
806.01001,321
806.128906,341
806.247742,343
806.366577,328
806.485413,345
806.604309,326
806.723145,338
806.84198,330
806.960876,330
807.079712,336
807.198486,322
807.317383,336
807.436218,339
807.554993,342
807.673889,330
807.792725,338
807.91156,341
808.030396,316
808.14917,327
808.268005,320
808.386841,339
808.505676,353
808.624451,325
808.743286,325
808.862122,340
808.980896,340
809.099731,334
809.218506,330
809.337341,339
809.456116,331
809.57489,331
809.693726,332
809.8125,344
809.931274,350
810.050049,322
810.168884,326
810.287659,334
810.406372,330
810.525269,334
810.643982,326
810.762756,338
810.881531,326
811.000305,328
811.11908,332
811.237854,322
811.356567,339
811.475403,333
811.594116,333
811.71283,327
811.831604,327
811.950378,323
812.069153,334
812.187927,330
812.30658,337
812.425415,328
812.544128,330
812.662781,335
812.781616,331
812.900269,336
813.019043,338
813.137756,341
813.256531,337
813.375244,334
813.493896,320
813.612671,333
813.731384,330
813.850037,323
813.96875,338
814.087524,319
814.206238,338
814.324951,335
814.443604,335
814.562256,324
814.68103,329
814.799683,335
814.918335,344
815.037109,344
815.155762,332
815.274475,338
815.393188,329
815.511841,330
815.630554,341
815.749146,307
815.867859,339
815.986572,333
816.105164,334
816.223877,334
816.342529,333
816.461182,321
816.579895,327
816.698486,322
816.817139,342
816.935791,321
817.054504,342
817.173096,340
817.291748,327
817.4104,324
817.529053,323
817.647644,337
817.766235,328
817.884949,328
818.00354,338
818.122192,315
818.240845,339
818.359436,326
818.478088,331
818.59668,327
818.715271,318
818.833923,325
818.952515,320
819.071106,329
819.189758,323
819.30835,318
819.426941,312
819.545532,342
819.664124,341
819.782715,325
819.901306,320
820.019897,319
820.138489,317
820.25708,312
820.375671,330
820.494202,316
820.612732,308
820.731384,327
820.849915,316
820.968506,320
821.087097,312
821.205627,310
821.324158,321
821.442749,326
821.561279,319
821.679871,321
821.798401,323
821.916931,321
822.035461,325
822.154053,328
822.272583,325
822.391174,319
822.509583,320
822.628174,317
822.746704,331
822.865234,309
822.983765,323
823.102295,319
823.220825,325
823.339294,325
823.457825,328
823.576355,312
823.694824,312
823.813354,316
823.931885,330
824.050354,317
824.168884,315
824.287354,320
824.405823,313
824.524353,332
824.642822,322
824.761353,327
824.879822,320
824.998291,298
825.116699,332
825.235291,320
825.353699,317
825.472168,314
825.590637,335
825.709106,333
825.827576,319
825.946045,307
826.064453,319
826.182983,302
826.301392,309
826.4198,317
826.53833,317
826.656738,323
826.775208,324
826.893677,329
827.012024,311
827.130493,315
827.248962,329
827.36731,313
827.485779,327
827.604248,325
827.722595,317
827.841064,312
827.959412,320
828.077942,308
828.196289,295
828.314636,316
828.433105,322
828.551514,320
828.669861,314
828.78833,319
828.906677,313
829.025085,311
829.143433,316
829.261841,312
829.38031,309
829.498657,306
829.617004,313
829.735413,322
829.85376,319
829.972107,313
830.090515,325
830.208862,312
830.327209,314
830.445557,314
830.563904,313
830.682312,297
830.800659,322
830.919006,314
831.037354,325
831.155701,325
831.274048,315
831.392395,312
831.51062,314
831.629028,307
831.747314,319
831.865662,311
831.984009,325
832.102356,323
832.220642,317
832.338928,312
832.457275,318
832.575623,323
832.693909,306
832.812134,306
832.930481,304
833.048828,324
833.167114,317
833.2854,310
833.403687,315
833.521973,323
833.640259,313
833.758545,323
833.876831,325
833.995056,319
834.113281,319
834.231628,320
834.349915,317
834.468201,305
834.586426,322
834.704651,314
834.822998,317
834.941162,322
835.059448,303
835.177673,314
835.295959,315
835.414246,315
835.53241,327
835.650635,310
835.768921,310
835.887146,337
836.005371,313
836.123596,316
836.241821,318
836.360046,317
836.478271,318
836.596497,307
836.714722,322
836.832886,316
836.95105,312
837.069336,330
837.1875,330
837.305725,323
837.423889,314
837.542053,329
837.660339,329
837.778503,320
837.896667,320
838.014832,326
838.132996,301
838.25116,320
838.369385,321
838.487488,323
838.605713,314
838.723877,310
838.84198,318
838.960205,312
839.078308,313
839.196472,315
839.314636,321
839.4328,308
839.550964,316
839.669067,321
839.787231,319
839.905396,323
840.023499,319
840.141602,310
840.259766,320
840.377869,316
840.495972,326
840.614136,312
840.732239,311
840.850342,312
840.968445,316
841.086548,322
841.204651,330
841.322754,309
841.440918,321
841.55896,316
841.677002,315
841.795166,318
841.913208,316
842.031311,341
842.149353,333
842.267456,318
842.385498,323
842.503601,312
842.621643,309
842.739746,330
842.857788,327
842.97583,323
843.093933,316
843.211975,312
843.330017,325
843.44812,326
843.566101,320
843.684204,311
843.802246,324
843.920227,313
844.038269,314
844.156311,316
844.274292,328
844.392395,309
844.510376,305
844.628357,321
844.74646,332
844.864441,323
844.982422,311
845.100403,325
845.218384,327
845.336426,312
845.454468,321
845.572449,315
845.69043,325
845.808411,318
845.926453,320
846.044373,313
846.162354,330
846.280396,316
846.398315,322
846.516296,319
846.634216,308
846.752197,320
846.870178,323
846.988098,321
847.106079,316
847.22406,312
847.34198,312
847.4599,316
847.577881,327
847.695801,321
847.813782,324
847.931641,301
848.049561,320
848.167603,317
848.285461,313
848.403381,307
848.521362,323
848.639221,328
848.75708,320
848.875,312
848.99292,309
849.110901,324
849.22876,311
849.34668,321
849.464539,311
849.582458,304
849.700317,296
849.818176,330
849.936096,318
850.053955,326
850.171875,327
850.289673,328
850.407593,313
850.525452,326
850.643311,321
850.761169,313
850.878967,335
850.996887,308
851.114746,317
851.232544,315
851.350403,312
851.468262,314
851.58606,333
851.703979,311
851.821777,326
851.939636,312
852.057434,314
852.175232,325
852.293091,325
852.410889,315
852.528687,312
852.646545,315
852.764343,322
852.88208,307
852.999939,307
853.117676,311
853.235535,324
853.353271,324
853.471069,324
853.588928,316
853.706604,316
853.824402,322
853.9422,318
854.059998,330
854.177734,305
854.295532,320
854.413269,323
854.531006,316
854.648804,329
854.766541,323
854.884277,315
855.002014,321
855.119751,320
855.237549,319
855.355225,315
855.473022,314
855.590698,311
855.708435,326
855.826172,316
855.943848,321
856.061646,316
856.179321,323
856.296997,325
856.414795,312
856.53241,326
856.650085,321
856.767822,306
856.885559,314
857.003174,324
857.120911,324
857.238586,314
857.356201,308
857.473938,327
857.591614,316
857.709351,313
857.826965,308
857.944641,317
858.062317,308
858.179993,309
858.297668,317
858.415283,316
858.532959,314
858.650574,334
858.768188,317
858.885803,323
859.003479,312
859.121094,313
859.23877,319
859.356384,322
859.473999,314
859.591675,318
859.709229,316
859.826843,308
859.944458,303
860.062012,317
860.179626,312
860.297302,309
860.414856,310
860.532471,323
860.650024,314
860.767639,320
860.885193,314
861.002808,319
861.120361,314
861.237976,310
861.35553,334
861.473022,317
861.590698,314
861.708191,324
861.825745,298
861.943298,317
862.060852,325
862.178406,317
862.295959,312
862.413513,321
862.531006,316
862.64856,315
862.766113,324
862.883667,329
863.00116,316
863.118713,330
863.236206,326
863.353699,322
863.471252,317
863.588745,319
863.706177,324
863.82373,311
863.941162,305
864.058716,310
864.176208,312
864.29364,315
864.411194,313
864.528687,327
864.646118,313
864.763611,319
864.881042,311
864.998535,321
865.116028,314
865.233459,321
865.350891,323
865.468384,321
865.585754,319
865.703308,328
865.820679,322
865.938171,322
866.055542,311
866.173035,320
866.290466,329
866.407837,335
866.52533,303
866.6427,322
866.760071,315
866.877563,316
866.994934,309
867.112305,315
867.229736,315
867.347107,309
867.464539,312
867.58197,313
867.699341,320
867.81665,328
867.934082,319
868.051453,311
868.168823,313
868.286194,331
868.403564,327
868.520935,336
868.638306,307
868.755676,322
868.872986,316
868.990295,321
869.107727,314
869.225037,318
869.342346,319
869.459717,319
869.577026,307
869.694336,331
869.811707,321
869.929016,322
870.046326,314
870.163635,315
870.280945,325
870.398254,323
870.515564,319
870.632812,331
870.750183,325
870.867432,324
870.984741,316
871.102051,321
871.219299,311
871.336609,335
871.453918,313
871.571106,319
871.688416,305
871.805664,309
871.922852,315
872.040222,313
872.157471,302
872.274719,318
872.391968,300
872.509155,328
872.626465,318
872.743652,317
872.860962,321
872.978149,318
873.095337,326
873.212646,330
873.329834,312
873.44696,317
873.564209,321
873.681396,308
873.798645,316
873.915894,317
874.03302,318
874.150208,325
874.267456,326
874.384583,323
874.501831,308
874.618958,330
874.736145,320
874.853333,315
874.970459,311
875.087646,314
875.204834,312
875.32196,324
875.439148,318
875.556274,319
875.673401,313
875.790527,320
875.907715,317
876.024841,325
876.141968,308
876.259094,324
876.376282,319
876.493347,317
876.610474,321
876.7276,324
876.844727,319
876.961853,317
877.078918,318
877.195984,311
877.313171,325
877.430237,315
877.547302,319
877.664368,319
877.781433,308
877.898499,314
878.015625,306
878.13269,323
878.249695,316
878.366821,318
878.483887,324
878.600952,307
878.717957,326
878.834961,320
878.952087,319
879.069092,318
879.186157,318
879.303162,313
879.420227,321
879.537231,328
879.654236,324
879.77124,311
879.888306,320
880.005249,319
880.122314,335
880.239319,329
880.356323,309
880.473328,323
880.590271,319
880.707275,322
880.824341,316
880.941284,329
881.058228,305
881.175232,324
881.292236,314
881.40918,315
881.526123,319
881.643066,322
881.760071,317
881.877014,317
881.993958,308
882.11084,333
882.227783,323
882.344727,330
882.46167,322
882.578613,318
882.695618,310
882.812439,321
882.929382,313
883.046326,324
883.163208,315
883.280151,331
883.397034,319
883.513916,322
883.630798,308
883.747742,322
883.864563,308
883.981506,319
884.098389,311
884.21521,318
884.332153,320
884.448975,325
884.565796,325
884.682678,318
884.7995,325
884.916443,338
885.033264,317
885.150085,317
885.266968,321
885.383789,322
885.500671,317
885.617493,318
885.734314,323
885.851196,321
885.967896,315
886.084717,325
886.201599,322
886.318359,331
886.435181,310
886.552002,329
886.668762,315
886.785645,329
886.902344,332
887.019165,303
887.135925,309
887.252747,327
887.369446,313
887.486267,337
887.603027,321
887.719788,316
887.836548,320
887.953247,326
888.070068,313
888.186829,332
888.303528,313
888.420288,320
888.536987,315
888.653687,315
888.770447,317
888.887146,311
889.003967,303
889.120667,318
889.237305,316
889.354065,321
889.470703,318
889.587463,323
889.704163,308
889.820862,311
889.937561,322
890.054199,325
890.170837,307
890.287598,321
890.404236,317
890.520874,333
890.637634,316
890.754211,322
890.87085,316
890.987549,320
891.104187,318
891.220886,313
891.337463,309
891.454102,319
891.57074,301
891.687378,341
891.804077,321
891.920654,312
892.037231,320
892.15387,330
892.270447,314
892.387085,318
892.503723,307
892.6203,319
892.736877,315
892.853516,320
892.970032,309
893.08667,330
893.203186,317
893.319763,317
893.43634,319
893.552917,332
893.669556,325
893.786011,317
893.902588,318
894.019165,327
894.135681,313
894.252197,305
894.368835,305
894.485291,321
894.601868,318
894.718384,333
894.8349,310
894.951355,323
895.067932,315
895.184448,322
895.300964,317
895.417419,329
895.533936,316
895.650452,325
895.766907,318
895.883423,325
895.999878,315
896.116333,318
896.232849,302
896.349304,316
896.465759,317
896.582214,306
896.698669,321
896.815125,324
896.931641,315
897.048035,316
897.164551,323
897.280884,316
897.397339,331
897.513794,316
897.630249,307
897.746582,317
897.863098,324
897.979431,330
898.095886,329
898.212341,316
898.328674,310
898.445129,315
898.561462,310
898.677795,336
898.794312,322
898.910645,310
899.026978,318
899.143433,322
899.259766,330
899.37616,308
899.492493,311
899.608765,316
899.725159,310
899.841553,326
899.957947,309
900.07428,313
900.190552,322
900.306946,321
900.423157,315
900.53949,307
900.655884,319
900.772156,319
900.888489,322
901.004822,324
901.121033,308
901.237366,326
901.353699,314
901.46991,328
901.586304,317
901.702515,310
901.818787,303
901.93512,323
902.051331,316
902.167603,323
902.283875,318
902.400085,324
902.516418,312
902.632629,318
902.74884,321
902.865112,324
902.981384,317
903.097595,325
903.213867,310
903.330017,317
903.446289,310
903.5625,322
903.67865,318
903.794922,329
903.911072,327
904.027344,317
904.143494,325
904.259705,326
904.375916,314
904.492065,323
904.608215,325
904.724426,307
904.840576,322
904.956726,323
905.072876,310
905.189087,325
905.305176,322
905.421387,302
905.537537,324
905.653687,327
905.769775,317
905.885925,311
906.002014,321
906.118164,334
906.234314,322
906.350403,327
906.466492,317
906.582642,319
906.69873,316
906.814758,324
906.930908,303
907.046936,326
907.163086,331
907.279175,329
907.395264,308
907.511353,314
907.62738,324
907.743408,320
907.859497,322
907.975525,318
908.091553,320
908.207703,307
908.32373,312
908.439758,325
908.555786,313
908.671814,320
908.787842,324
908.90387,325
909.019775,320
909.135864,312
909.251892,305
909.367859,302
909.483826,321
909.599854,337
909.715881,320
909.831848,320
909.947815,321
910.063782,336
910.179749,326
910.295776,314
910.411743,317
910.527649,331
910.643616,327
910.759583,317
910.875488,312
910.991455,319
911.107361,325
911.223267,331
911.339294,321
911.4552,335
911.571106,315
911.687073,321
911.802979,306
911.918823,321
912.034729,308
912.150635,310
912.266602,320
912.382446,316
912.498352,325
912.614197,323
912.730103,314
912.846008,327
