792.44574,304
792.56488,333
792.68396,398
792.80304,375
792.92218,335
793.041199,300
793.160339,319
793.279419,318
793.398499,336
793.517578,296
793.636658,306
793.755737,318
793.874817,340
793.993896,325
794.112976,327
794.232056,326
794.351074,319
794.470215,331
794.589233,318
794.708313,318
794.827393,323
794.946411,322
795.065552,321
795.18457,327
795.303589,318
795.422668,331
795.541687,332
795.660767,323
795.779846,326
795.898865,317
796.017883,327
796.136963,316
796.255981,340
796.375061,325
796.49408,340
796.613037,323
796.732117,327
796.851135,341
796.970154,318
797.089233,327
797.208191,325
797.327271,331
797.446228,330
797.565186,340
797.684265,308
797.803223,336
797.922241,337
798.04126,331
798.160278,311
798.279297,309
798.398315,315
798.517273,329
798.636292,322
798.75531,314
798.874268,317
798.993286,327
799.112244,322
799.231323,340
799.350281,330
799.469238,319
799.588257,333
799.707153,331
799.826111,317
799.945129,325
800.064087,330
800.183044,321
800.302063,320
800.421021,314
800.539978,318
800.658936,328
800.777893,317
800.896912,320
801.015747,318
801.134705,325
801.253723,317
801.37262,316
801.491638,309
801.610535,315
801.729492,327
801.84845,321
801.967407,342
802.086243,321
802.205261,316
802.324158,324
802.443115,322
802.562073,311
802.680969,336
802.799927,327
802.918762,324
803.037659,303
803.156677,343
803.275574,319
803.39447,325
803.513428,321
803.632263,332
803.751221,313
803.870117,320
803.989014,321
804.107971,315
804.226746,319
804.345642,326
804.4646,338
804.583496,331
804.702393,322
804.821228,327
804.940125,314
805.059021,320
805.177917,324
805.296814,331
805.415649,315
805.534546,318
805.653442,319
805.772278,333
805.891113,319
806.01001,320
806.128906,328
806.247742,303
806.366577,319
806.485413,318
806.604309,326
806.723145,336
806.84198,315
806.960876,329
807.079712,333
807.198486,325
807.317383,327
807.436218,334
807.554993,318
807.673889,318
807.792725,322
807.91156,318
808.030396,327
808.14917,327
808.268005,330
808.386841,311
808.505676,315
808.624451,328
808.743286,322
808.862122,313
808.980896,315
809.099731,328
809.218506,313
809.337341,327
809.456116,329
809.57489,319
809.693726,317
809.8125,331
809.931274,312
810.050049,329
810.168884,329
810.287659,313
810.406372,316
810.525269,314
810.643982,324
810.762756,318
810.881531,312
811.000305,318
811.11908,327
811.237854,325
811.356567,309
811.475403,323
811.594116,305
811.71283,311
811.831604,318
811.950378,328
812.069153,323
812.187927,320
812.30658,324
812.425415,320
812.544128,330
812.662781,332
812.781616,317
812.900269,327
813.019043,325
813.137756,316
813.256531,312
813.375244,323
813.493896,323
813.612671,323
813.731384,313
813.850037,324
813.96875,331
814.087524,328
814.206238,339
814.324951,316
814.443604,325
814.562256,313
814.68103,311
814.799683,323
814.918335,317
815.037109,325
815.155762,312
815.274475,325
815.393188,299
815.511841,322
815.630554,315
815.749146,321
815.867859,319
815.986572,338
816.105164,324
816.223877,312
816.342529,315
816.461182,331
816.579895,327
816.698486,316
816.817139,319
816.935791,321
817.054504,307
817.173096,328
817.291748,311
817.4104,326
817.529053,325
817.647644,328
817.766235,313
817.884949,318
818.00354,317
818.122192,322
818.240845,330
818.359436,316
818.478088,327
818.59668,319
818.715271,317
818.833923,320
818.952515,313
819.071106,320
819.189758,312
819.30835,322
819.426941,313
819.545532,323
819.664124,314
819.782715,315
819.901306,321
820.019897,321
820.138489,307
820.25708,312
820.375671,314
820.494202,317
820.612732,321
820.731384,325
820.849915,329
820.968506,323
821.087097,322
821.205627,322
821.324158,310
821.442749,315
821.561279,317
821.679871,312
821.798401,324
821.916931,326
822.035461,312
822.154053,326
822.272583,310
822.391174,337
822.509583,313
822.628174,314
822.746704,327
822.865234,318
822.983765,331
823.102295,315
823.220825,320
823.339294,317
823.457825,298
823.576355,307
823.694824,318
823.813354,315
823.931885,316
824.050354,314
824.168884,314
824.287354,306
824.405823,311
824.524353,318
824.642822,316
824.761353,330
824.879822,309
824.998291,320
825.116699,321
825.235291,314
825.353699,323
825.472168,312
825.590637,306
825.709106,315
825.827576,305
825.946045,323
826.064453,304
826.182983,319
826.301392,312
826.4198,316
826.53833,310
826.656738,312
826.775208,315
826.893677,318
827.012024,311
827.130493,332
827.248962,314
827.36731,321
827.485779,303
827.604248,327
827.722595,309
827.841064,330
827.959412,324
828.077942,298
828.196289,315
828.314636,318
828.433105,309
828.551514,308
828.669861,302
828.78833,327
828.906677,308
829.025085,316
829.143433,329
829.261841,327
829.38031,317
829.498657,316
829.617004,307
829.735413,310
829.85376,312
829.972107,314
830.090515,307
830.208862,322
830.327209,322
830.445557,325
830.563904,321
830.682312,321
830.800659,330
830.919006,316
831.037354,318
831.155701,328
831.274048,321
831.392395,319
831.51062,309
831.629028,319
831.747314,300
831.865662,313
831.984009,321
832.102356,318
832.220642,310
832.338928,311
832.457275,323
832.575623,305
832.693909,299
832.812134,315
832.930481,323
833.048828,317
833.167114,314
833.2854,319
833.403687,328
833.521973,313
833.640259,320
833.758545,315
833.876831,317
833.995056,314
834.113281,304
834.231628,317
834.349915,323
834.468201,320
834.586426,320
834.704651,319
834.822998,303
834.941162,317
835.059448,310
835.177673,312
835.295959,313
835.414246,318
835.53241,307
835.650635,308
835.768921,310
835.887146,305
836.005371,312
836.123596,307
836.241821,324
836.360046,321
836.478271,307
836.596497,322
836.714722,330
836.832886,313
836.95105,308
837.069336,306
837.1875,312
837.305725,307
837.423889,317
837.542053,322
837.660339,319
837.778503,321
837.896667,299
838.014832,313
838.132996,309
838.25116,315
838.369385,316
838.487488,314
838.605713,310
838.723877,323
838.84198,311
838.960205,318
839.078308,311
839.196472,316
839.314636,314
839.4328,314
839.550964,322
839.669067,323
839.787231,293
839.905396,335
840.023499,320
840.141602,312
840.259766,318
840.377869,311
840.495972,307
840.614136,313
840.732239,321
840.850342,316
840.968445,311
841.086548,324
841.204651,311
841.322754,310
841.440918,317
841.55896,318
841.677002,325
841.795166,321
841.913208,312
842.031311,324
842.149353,325
842.267456,309
842.385498,317
842.503601,319
842.621643,322
842.739746,318
842.857788,318
842.97583,311
843.093933,313
843.211975,307
843.330017,317
843.44812,321
843.566101,303
843.684204,339
843.802246,314
843.920227,314
844.038269,306
844.156311,311
844.274292,322
844.392395,311
844.510376,318
844.628357,314
844.74646,319
844.864441,332
844.982422,324
845.100403,318
845.218384,322
845.336426,313
845.454468,317
845.572449,320
845.69043,309
845.808411,316
845.926453,309
846.044373,322
846.162354,313
846.280396,312
846.398315,316
846.516296,312
846.634216,302
846.752197,321
846.870178,312
846.988098,326
847.106079,301
847.22406,321
847.34198,312
847.4599,316
847.577881,314
847.695801,315
847.813782,298
847.931641,293
848.049561,300
848.167603,323
848.285461,297
848.403381,322
848.521362,307
848.639221,313
848.75708,316
848.875,310
848.99292,311
849.110901,327
849.22876,309
849.34668,329
849.464539,311
849.582458,324
849.700317,307
849.818176,320
849.936096,311
850.053955,316
850.171875,308
850.289673,327
850.407593,312
850.525452,308
850.643311,309
850.761169,309
850.878967,320
850.996887,318
851.114746,325
851.232544,320
851.350403,314
851.468262,313
851.58606,315
851.703979,324
851.821777,304
851.939636,315
852.057434,311
852.175232,325
852.293091,310
852.410889,318
852.528687,303
852.646545,313
852.764343,310
852.88208,325
852.999939,299
853.117676,322
853.235535,320
853.353271,318
853.471069,308
853.588928,316
853.706604,312
853.824402,315
853.9422,309
854.059998,316
854.177734,313
854.295532,322
854.413269,315
854.531006,326
854.648804,310
854.766541,318
854.884277,309
855.002014,335
855.119751,302
855.237549,316
855.355225,314
855.473022,312
855.590698,308
855.708435,314
855.826172,309
855.943848,328
856.061646,318
856.179321,313
856.296997,307
856.414795,308
856.53241,316
856.650085,320
856.767822,318
856.885559,333
857.003174,322
857.120911,307
857.238586,317
857.356201,305
857.473938,307
857.591614,312
857.709351,322
857.826965,322
857.944641,310
858.062317,322
858.179993,307
858.297668,316
858.415283,329
858.532959,316
858.650574,327
858.768188,317
858.885803,325
859.003479,325
859.121094,324
859.23877,320
859.356384,303
859.473999,308
859.591675,309
859.709229,321
859.826843,304
859.944458,322
860.062012,319
860.179626,330
860.297302,310
860.414856,317
860.532471,328
860.650024,322
860.767639,310
860.885193,327
861.002808,311
861.120361,329
861.237976,318
861.35553,326
861.473022,314
861.590698,315
861.708191,306
861.825745,318
861.943298,317
862.060852,315
862.178406,314
862.295959,317
862.413513,295
862.531006,321
862.64856,325
862.766113,311
862.883667,323
863.00116,317
863.118713,324
863.236206,331
863.353699,307
863.471252,327
863.588745,311
863.706177,318
863.82373,309
863.941162,318
864.058716,311
864.176208,328
864.29364,316
864.411194,313
864.528687,315
864.646118,309
864.763611,303
864.881042,312
864.998535,308
865.116028,309
865.233459,316
865.350891,324
865.468384,310
865.585754,322
865.703308,313
865.820679,315
865.938171,322
866.055542,306
866.173035,319
866.290466,330
866.407837,316
866.52533,324
866.6427,319
866.760071,319
866.877563,315
866.994934,316
867.112305,303
867.229736,323
867.347107,309
867.464539,318
867.58197,308
867.699341,317
867.81665,315
867.934082,321
868.051453,319
868.168823,330
868.286194,311
868.403564,329
868.520935,307
868.638306,320
868.755676,309
868.872986,320
868.990295,312
869.107727,321
869.225037,306
869.342346,324
869.459717,305
869.577026,323
869.694336,307
869.811707,309
869.929016,314
870.046326,313
870.163635,318
870.280945,324
870.398254,309
870.515564,327
870.632812,307
870.750183,312
870.867432,321
870.984741,308
871.102051,310
871.219299,323
871.336609,325
871.453918,323
871.571106,300
871.688416,322
871.805664,309
871.922852,319
872.040222,305
872.157471,309
872.274719,321
872.391968,312
872.509155,325
872.626465,321
872.743652,319
872.860962,311
872.978149,306
873.095337,321
873.212646,304
873.329834,315
873.44696,320
873.564209,329
873.681396,326
873.798645,321
873.915894,304
874.03302,302
874.150208,316
874.267456,322
874.384583,312
874.501831,321
874.618958,302
874.736145,321
874.853333,321
874.970459,317
875.087646,313
875.204834,337
875.32196,313
875.439148,311
875.556274,309
875.673401,316
875.790527,305
875.907715,325
876.024841,299
876.141968,318
876.259094,310
876.376282,321
876.493347,310
876.610474,338
876.7276,322
876.844727,315
876.961853,303
877.078918,323
877.195984,322
877.313171,308
877.430237,334
877.547302,311
877.664368,318
877.781433,315
877.898499,312
878.015625,326
878.13269,312
878.249695,309
878.366821,321
878.483887,310
878.600952,315
878.717957,331
878.834961,314
878.952087,321
879.069092,316
879.186157,317
879.303162,323
879.420227,324
879.537231,313
879.654236,316
879.77124,317
879.888306,326
880.005249,324
880.122314,334
880.239319,310
880.356323,322
880.473328,312
880.590271,323
880.707275,310
880.824341,320
880.941284,305
881.058228,319
881.175232,319
881.292236,324
881.40918,309
881.526123,327
881.643066,314
881.760071,313
881.877014,325
881.993958,320
882.11084,319
882.227783,305
882.344727,318
882.46167,327
882.578613,311
882.695618,318
882.812439,313
882.929382,317
883.046326,317
883.163208,300
883.280151,310
883.397034,310
883.513916,324
883.630798,341
883.747742,310
883.864563,320
883.981506,311
884.098389,325
884.21521,300
884.332153,302
884.448975,320
884.565796,317
884.682678,323
884.7995,310
884.916443,310
885.033264,322
885.150085,336
885.266968,327
885.383789,296
885.500671,319
885.617493,313
885.734314,320
885.851196,317
885.967896,333
886.084717,309
886.201599,317
886.318359,313
886.435181,322
886.552002,302
886.668762,313
886.785645,304
886.902344,338
887.019165,306
887.135925,313
887.252747,311
887.369446,319
887.486267,320
887.603027,326
887.719788,309
887.836548,325
887.953247,311
888.070068,324
888.186829,322
888.303528,322
888.420288,301
888.536987,319
888.653687,311
888.770447,326
888.887146,323
889.003967,332
889.120667,320
889.237305,324
889.354065,319
889.470703,323
889.587463,316
889.704163,328
889.820862,312
889.937561,303
890.054199,316
890.170837,318
890.287598,315
890.404236,312
890.520874,303
890.637634,314
890.754211,311
890.87085,316
890.987549,326
891.104187,330
891.220886,318
891.337463,322
891.454102,310
891.57074,335
891.687378,313
891.804077,316
891.920654,308
892.037231,315
892.15387,325
892.270447,326
892.387085,319
892.503723,315
892.6203,309
892.736877,334
892.853516,311
892.970032,319
893.08667,311
893.203186,321
893.319763,318
893.43634,311
893.552917,314
893.669556,318
893.786011,304
893.902588,322
894.019165,307
894.135681,324
894.252197,310
894.368835,316
894.485291,312
894.601868,326
894.718384,311
894.8349,311
894.951355,307
895.067932,317
895.184448,309
895.300964,332
895.417419,317
895.533936,321
895.650452,310
895.766907,322
895.883423,314
895.999878,319
896.116333,310
896.232849,328
896.349304,307
896.465759,327
896.582214,323
896.698669,314
896.815125,321
896.931641,325
897.048035,318
897.164551,320
897.280884,314
897.397339,313
897.513794,327
897.630249,326
897.746582,322
897.863098,309
897.979431,317
898.095886,324
898.212341,321
898.328674,317
898.445129,331
898.561462,320
898.677795,315
898.794312,315
898.910645,310
899.026978,329
899.143433,321
899.259766,312
899.37616,327
899.492493,320
899.608765,320
899.725159,321
899.841553,313
899.957947,325
900.07428,326
900.190552,321
900.306946,312
900.423157,324
900.53949,324
900.655884,330
900.772156,311
900.888489,331
901.004822,305
901.121033,323
901.237366,316
901.353699,322
901.46991,308
901.586304,323
901.702515,308
901.818787,329
901.93512,326
902.051331,321
902.167603,306
902.283875,319
902.400085,312
902.516418,326
902.632629,319
902.74884,318
902.865112,309
902.981384,329
903.097595,312
903.213867,306
903.330017,318
903.446289,327
903.5625,319
903.67865,321
903.794922,309
903.911072,311
904.027344,325
904.143494,326
904.259705,310
904.375916,317
904.492065,314
904.608215,316
904.724426,307
904.840576,310
904.956726,315
905.072876,322
905.189087,314
905.305176,328
905.421387,315
905.537537,322
905.653687,301
905.769775,313
905.885925,310
906.002014,318
906.118164,308
906.234314,308
906.350403,321
906.466492,320
906.582642,320
906.69873,312
906.814758,321
906.930908,325
907.046936,323
907.163086,325
907.279175,310
907.395264,326
907.511353,319
907.62738,306
907.743408,319
907.859497,318
907.975525,317
908.091553,325
908.207703,323
908.32373,334
908.439758,332
908.555786,318
908.671814,315
908.787842,319
908.90387,318
909.019775,338
909.135864,308
909.251892,321
909.367859,306
909.483826,310
909.599854,319
909.715881,316
909.831848,318
909.947815,314
910.063782,315
910.179749,319
910.295776,317
910.411743,331
910.527649,308
910.643616,310
910.759583,315
910.875488,322
910.991455,326
911.107361,309
911.223267,321
911.339294,316
911.4552,330
911.571106,321
911.687073,328
911.802979,314
911.918823,317
912.034729,315
912.150635,304
912.266602,320
912.382446,306
912.498352,325
912.614197,326
912.730103,317
912.846008,315
792.44574,318
792.56488,349
792.68396,408
792.80304,369
792.92218,338
793.041199,325
793.160339,323
793.279419,335
793.398499,326
793.517578,317
793.636658,308
793.755737,329
793.874817,337
793.993896,326
794.112976,321
794.232056,315
794.351074,334
794.470215,338
794.589233,324
794.708313,309
794.827393,319
794.946411,338
795.065552,335
795.18457,332
795.303589,325
795.422668,325
795.541687,318
795.660767,326
795.779846,343
795.898865,316
796.017883,323
796.136963,325
796.255981,329
796.375061,317
796.49408,326
796.613037,331
796.732117,323
796.851135,322
796.970154,332
797.089233,328
797.208191,334
797.327271,327
797.446228,322
797.565186,333
797.684265,336
797.803223,334
797.922241,317
798.04126,327
798.160278,320
798.279297,325
798.398315,327
798.517273,318
798.636292,326
798.75531,330
798.874268,310
798.993286,316
799.112244,310
799.231323,323
799.350281,311
799.469238,321
799.588257,314
799.707153,328
799.826111,334
799.945129,335
800.064087,314
800.183044,324
800.302063,326
800.421021,331
800.539978,331
800.658936,310
800.777893,326
800.896912,314
801.015747,337
801.134705,325
801.253723,331
801.37262,324
801.491638,322
801.610535,319
801.729492,325
801.84845,314
801.967407,333
802.086243,321
802.205261,327
802.324158,322
802.443115,324
802.562073,325
802.680969,325
802.799927,316
802.918762,317
803.037659,319
803.156677,321
803.275574,313
803.39447,325
803.513428,321
803.632263,324
803.751221,318
803.870117,312
803.989014,334
804.107971,329
804.226746,324
804.345642,314
804.4646,323
804.583496,320
804.702393,331
804.821228,338
804.940125,320
805.059021,332
805.177917,317
805.296814,332
805.415649,312
805.534546,328
805.653442,324
805.772278,339
805.891113,322
806.01001,325
806.128906,318
806.247742,313
806.366577,317
806.485413,336
806.604309,319
806.723145,326
806.84198,306
806.960876,316
807.079712,325
807.198486,318
807.317383,331
807.436218,337
807.554993,315
807.673889,325
807.792725,315
807.91156,340
808.030396,321
808.14917,342
808.268005,309
808.386841,319
808.505676,323
808.624451,323
808.743286,322
808.862122,325
808.980896,327
809.099731,327
809.218506,323
809.337341,326
809.456116,330
809.57489,324
809.693726,322
809.8125,333
809.931274,323
810.050049,321
810.168884,328
810.287659,323
810.406372,322
810.525269,310
810.643982,320
810.762756,321
810.881531,314
811.000305,329
811.11908,316
811.237854,322
811.356567,326
811.475403,313
811.594116,319
811.71283,332
811.831604,325
811.950378,321
812.069153,331
812.187927,326
812.30658,323
812.425415,334
812.544128,323
812.662781,332
812.781616,325
812.900269,323
813.019043,320
813.137756,334
813.256531,317
813.375244,305
813.493896,320
813.612671,322
813.731384,311
813.850037,329
813.96875,325
814.087524,345
814.206238,329
814.324951,319
814.443604,311
814.562256,327
814.68103,318
814.799683,320
814.918335,322
815.037109,328
815.155762,304
815.274475,322
815.393188,318
815.511841,314
815.630554,323
815.749146,317
815.867859,312
815.986572,328
816.105164,311
816.223877,310
816.342529,321
816.461182,317
816.579895,311
816.698486,323
816.817139,326
816.935791,320
817.054504,331
817.173096,327
817.291748,319
817.4104,326
817.529053,306
817.647644,324
817.766235,321
817.884949,309
818.00354,313
818.122192,317
818.240845,323
818.359436,343
818.478088,316
818.59668,318
818.715271,314
818.833923,325
818.952515,329
819.071106,327
819.189758,317
819.30835,313
819.426941,317
819.545532,307
819.664124,309
819.782715,306
819.901306,331
820.019897,326
820.138489,327
820.25708,318
820.375671,330
820.494202,323
820.612732,315
820.731384,322
820.849915,304
820.968506,311
821.087097,320
821.205627,314
821.324158,308
821.442749,328
821.561279,308
821.679871,313
821.798401,326
821.916931,323
822.035461,318
822.154053,330
822.272583,310
822.391174,317
822.509583,315
822.628174,323
822.746704,330
822.865234,315
822.983765,322
823.102295,313
823.220825,340
823.339294,319
823.457825,311
823.576355,308
823.694824,324
823.813354,303
823.931885,301
824.050354,324
824.168884,326
824.287354,318
824.405823,305
824.524353,318
824.642822,307
824.761353,328
824.879822,306
824.998291,326
825.116699,311
825.235291,326
825.353699,322
825.472168,326
825.590637,309
825.709106,307
825.827576,322
825.946045,320
826.064453,307
826.182983,317
826.301392,330
826.4198,320
826.53833,319
826.656738,324
826.775208,314
826.893677,305
827.012024,305
827.130493,327
827.248962,311
827.36731,315
827.485779,300
827.604248,316
827.722595,308
827.841064,326
827.959412,303
828.077942,314
828.196289,309
828.314636,328
828.433105,299
828.551514,313
828.669861,316
828.78833,325
828.906677,321
829.025085,330
829.143433,305
829.261841,317
829.38031,315
829.498657,311
829.617004,303
829.735413,302
829.85376,325
829.972107,314
830.090515,316
830.208862,314
830.327209,307
830.445557,322
830.563904,321
830.682312,325
830.800659,320
830.919006,312
831.037354,318
831.155701,325
831.274048,304
831.392395,314
831.51062,312
831.629028,322
831.747314,317
831.865662,323
831.984009,324
832.102356,324
832.220642,304
832.338928,320
832.457275,322
832.575623,310
832.693909,302
832.812134,322
832.930481,325
833.048828,330
833.167114,323
833.2854,317
833.403687,315
833.521973,325
833.640259,318
833.758545,317
833.876831,307
833.995056,304
834.113281,314
834.231628,327
834.349915,301
834.468201,325
834.586426,317
834.704651,317
834.822998,314
834.941162,318
835.059448,305
835.177673,310
835.295959,316
835.414246,315
835.53241,321
835.650635,313
835.768921,312
835.887146,325
836.005371,331
836.123596,319
836.241821,303
836.360046,325
836.478271,300
836.596497,306
836.714722,317
836.832886,329
836.95105,318
837.069336,315
837.1875,302
837.305725,316
837.423889,311
837.542053,321
837.660339,308
837.778503,321
837.896667,314
838.014832,316
838.132996,315
838.25116,314
838.369385,313
838.487488,326
838.605713,322
838.723877,309
838.84198,306
838.960205,324
839.078308,311
839.196472,303
839.314636,309
839.4328,320
839.550964,299
839.669067,316
839.787231,319
839.905396,313
840.023499,317
840.141602,322
840.259766,319
840.377869,323
840.495972,316
840.614136,312
840.732239,318
840.850342,317
840.968445,315
841.086548,313
841.204651,316
841.322754,308
841.440918,327
841.55896,300
841.677002,314
841.795166,322
841.913208,322
842.031311,320
842.149353,316
842.267456,320
842.385498,320
842.503601,320
842.621643,316
842.739746,318
842.857788,316
842.97583,318
843.093933,299
843.211975,323
843.330017,306
843.44812,316
843.566101,330
843.684204,327
843.802246,310
843.920227,308
844.038269,321
844.156311,311
844.274292,317
844.392395,310
844.510376,323
844.628357,323
844.74646,316
844.864441,317
844.982422,315
845.100403,314
845.218384,328
845.336426,320
845.454468,323
845.572449,316
845.69043,319
845.808411,308
845.926453,314
846.044373,317
846.162354,315
846.280396,313
846.398315,302
846.516296,326
846.634216,310
846.752197,317
846.870178,305
846.988098,318
847.106079,324
847.22406,310
847.34198,311
847.4599,309
847.577881,313
847.695801,319
847.813782,312
847.931641,313
848.049561,313
848.167603,319
848.285461,317
848.403381,326
848.521362,320
848.639221,320
848.75708,303
848.875,318
848.99292,324
849.110901,320
849.22876,317
849.34668,308
849.464539,305
849.582458,321
849.700317,312
849.818176,323
849.936096,323
850.053955,322
850.171875,310
850.289673,312
850.407593,311
850.525452,321
850.643311,314
850.761169,324
850.878967,308
850.996887,319
851.114746,316
851.232544,311
851.350403,316
851.468262,314
851.58606,311
851.703979,320
851.821777,317
851.939636,319
852.057434,318
852.175232,317
852.293091,316
852.410889,311
852.528687,318
852.646545,308
852.764343,316
852.88208,337
852.999939,319
853.117676,331
853.235535,315
853.353271,315
853.471069,313
853.588928,310
853.706604,316
853.824402,314
853.9422,320
854.059998,323
854.177734,308
854.295532,310
854.413269,326
854.531006,325
854.648804,309
854.766541,330
854.884277,309
855.002014,314
855.119751,318
855.237549,317
855.355225,312
855.473022,331
855.590698,314
855.708435,316
855.826172,316
855.943848,321
856.061646,321
856.179321,318
856.296997,326
856.414795,320
856.53241,318
856.650085,323
856.767822,321
856.885559,313
857.003174,321
857.120911,324
857.238586,313
857.356201,311
857.473938,312
857.591614,327
857.709351,322
857.826965,305
857.944641,315
858.062317,309
858.179993,315
858.297668,320
858.415283,312
858.532959,303
858.650574,313
858.768188,325
858.885803,317
859.003479,319
859.121094,305
859.23877,318
859.356384,311
859.473999,315
859.591675,317
859.709229,316
859.826843,313
859.944458,319
860.062012,318
860.179626,313
860.297302,314
860.414856,320
860.532471,310
860.650024,315
860.767639,319
860.885193,319
861.002808,319
861.120361,308
861.237976,306
861.35553,324
861.473022,306
861.590698,322
861.708191,333
861.825745,322
861.943298,308
862.060852,314
862.178406,309
862.295959,316
862.413513,310
862.531006,318
862.64856,312
862.766113,312
862.883667,320
863.00116,315
863.118713,308
863.236206,315
863.353699,317
863.471252,319
863.588745,314
863.706177,327
863.82373,323
863.941162,319
864.058716,316
864.176208,307
864.29364,315
864.411194,327
864.528687,307
864.646118,319
864.763611,305
864.881042,315
864.998535,318
865.116028,320
865.233459,315
865.350891,325
865.468384,317
865.585754,313
865.703308,314
865.820679,298
865.938171,309
866.055542,308
866.173035,317
866.290466,318
866.407837,311
866.52533,306
866.6427,306
866.760071,324
866.877563,314
866.994934,317
867.112305,313
867.229736,329
867.347107,329
867.464539,310
867.58197,315
867.699341,311
867.81665,305
867.934082,324
868.051453,303
868.168823,330
868.286194,313
868.403564,318
868.520935,314
868.638306,319
868.755676,320
868.872986,303
868.990295,309
869.107727,313
869.225037,313
869.342346,306
869.459717,320
869.577026,319
869.694336,310
869.811707,311
869.929016,308
870.046326,316
870.163635,324
870.280945,311
870.398254,324
870.515564,327
870.632812,320
870.750183,332
870.867432,315
870.984741,305
871.102051,306
871.219299,319
871.336609,325
871.453918,320
871.571106,314
871.688416,317
871.805664,321
871.922852,319
872.040222,294
872.157471,318
872.274719,324
872.391968,318
872.509155,333
872.626465,316
872.743652,301
872.860962,331
872.978149,303
873.095337,313
873.212646,318
873.329834,312
873.44696,330
873.564209,317
873.681396,327
873.798645,307
873.915894,308
874.03302,326
874.150208,319
874.267456,328
874.384583,303
874.501831,316
874.618958,308
874.736145,310
874.853333,305
874.970459,307
875.087646,323
875.204834,314
875.32196,327
875.439148,318
875.556274,317
875.673401,329
875.790527,315
875.907715,306
876.024841,326
876.141968,304
876.259094,311
876.376282,322
876.493347,313
876.610474,324
876.7276,312
876.844727,319
876.961853,318
877.078918,303
877.195984,321
877.313171,322
877.430237,312
877.547302,297
877.664368,308
877.781433,323
877.898499,300
878.015625,314
878.13269,324
878.249695,316
878.366821,318
878.483887,320
878.600952,308
878.717957,302
878.834961,315
878.952087,325
879.069092,313
879.186157,317
879.303162,309
879.420227,327
879.537231,310
879.654236,320
879.77124,312
879.888306,325
880.005249,312
880.122314,327
880.239319,319
880.356323,324
880.473328,320
880.590271,313
880.707275,308
880.824341,315
880.941284,323
881.058228,325
881.175232,311
881.292236,333
881.40918,331
881.526123,311
881.643066,307
881.760071,307
881.877014,310
881.993958,325
882.11084,315
882.227783,333
882.344727,317
882.46167,328
882.578613,315
882.695618,320
882.812439,322
882.929382,312
883.046326,322
883.163208,311
883.280151,326
883.397034,318
883.513916,315
883.630798,318
883.747742,318
883.864563,305
883.981506,310
884.098389,303
884.21521,308
884.332153,311
884.448975,329
884.565796,317
884.682678,320
884.7995,329
884.916443,320
885.033264,308
885.150085,300
885.266968,315
885.383789,321
885.500671,317
885.617493,310
885.734314,316
885.851196,296
885.967896,318
886.084717,309
886.201599,314
886.318359,309
886.435181,326
886.552002,336
886.668762,323
886.785645,311
886.902344,318
887.019165,314
887.135925,324
887.252747,326
887.369446,320
887.486267,317
887.603027,326
887.719788,317
887.836548,309
887.953247,314
888.070068,308
888.186829,303
888.303528,331
888.420288,311
888.536987,320
888.653687,313
888.770447,307
888.887146,313
889.003967,326
889.120667,308
889.237305,317
889.354065,322
889.470703,331
889.587463,319
889.704163,312
889.820862,328
889.937561,317
890.054199,318
890.170837,325
890.287598,323
890.404236,314
890.520874,318
890.637634,316
890.754211,302
890.87085,320
890.987549,302
891.104187,306
891.220886,316
891.337463,320
891.454102,319
891.57074,312
891.687378,306
891.804077,311
891.920654,308
892.037231,314
892.15387,306
892.270447,311
892.387085,315
892.503723,327
892.6203,314
892.736877,321
892.853516,308
892.970032,322
893.08667,323
893.203186,320
893.319763,311
893.43634,336
893.552917,308
893.669556,312
893.786011,294
893.902588,311
894.019165,300
894.135681,318
894.252197,320
894.368835,318
894.485291,305
894.601868,321
894.718384,306
894.8349,314
894.951355,311
895.067932,317
895.184448,315
895.300964,316
895.417419,320
895.533936,308
895.650452,318
895.766907,322
895.883423,317
895.999878,321
896.116333,307
896.232849,322
896.349304,319
896.465759,325
896.582214,322
896.698669,314
896.815125,324
896.931641,311
897.048035,325
897.164551,324
897.280884,313
897.397339,324
897.513794,315
897.630249,321
897.746582,313
897.863098,308
897.979431,317
898.095886,320
898.212341,317
898.328674,313
898.445129,323
898.561462,320
898.677795,308
898.794312,325
898.910645,305
899.026978,323
899.143433,321
899.259766,312
899.37616,313
899.492493,308
899.608765,310
899.725159,323
899.841553,298
899.957947,316
900.07428,325
900.190552,320
900.306946,317
900.423157,323
900.53949,315
900.655884,323
900.772156,297
900.888489,313
901.004822,317
901.121033,326
901.237366,325
901.353699,320
901.46991,304
901.586304,323
901.702515,310
901.818787,335
901.93512,316
902.051331,313
902.167603,314
902.283875,314
902.400085,323
902.516418,322
902.632629,317
902.74884,325
902.865112,307
902.981384,325
903.097595,311
903.213867,316
903.330017,310
903.446289,327
903.5625,319
903.67865,316
903.794922,316
903.911072,318
904.027344,314
904.143494,319
904.259705,325
904.375916,320
904.492065,317
904.608215,309
904.724426,311
904.840576,314
904.956726,320
905.072876,323
905.189087,324
905.305176,314
905.421387,301
905.537537,320
905.653687,310
905.769775,333
905.885925,317
906.002014,328
906.118164,322
906.234314,329
906.350403,321
906.466492,330
906.582642,322
906.69873,304
906.814758,311
906.930908,329
907.046936,322
907.163086,313
907.279175,320
907.395264,317
907.511353,318
907.62738,315
907.743408,314
907.859497,321
907.975525,322
908.091553,335
908.207703,298
908.32373,322
908.439758,310
908.555786,319
908.671814,298
908.787842,325
908.90387,314
909.019775,320
909.135864,308
909.251892,326
909.367859,314
909.483826,313
909.599854,321
909.715881,317
909.831848,331
909.947815,316
910.063782,322
910.179749,318
910.295776,299
910.411743,319
910.527649,321
910.643616,333
910.759583,307
910.875488,312
910.991455,318
911.107361,324
911.223267,314
911.339294,311
911.4552,305
911.571106,318
911.687073,310
911.802979,328
911.918823,323
912.034729,317
912.150635,314
912.266602,327
912.382446,302
912.498352,327
912.614197,317
912.730103,321
912.846008,313
792.44574,305
792.56488,351
792.68396,409
792.80304,383
792.92218,328
793.041199,308
793.160339,314
793.279419,325
793.398499,331
793.517578,326
793.636658,311
793.755737,329
793.874817,341
793.993896,344
794.112976,336
794.232056,324
794.351074,314
794.470215,330
794.589233,325
794.708313,318
794.827393,317
794.946411,321
795.065552,331
795.18457,333
795.303589,318
795.422668,329
795.541687,322
795.660767,323
795.779846,329
795.898865,308
796.017883,332
796.136963,339
796.255981,319
796.375061,322
796.49408,313
796.613037,327
796.732117,319
796.851135,318
796.970154,315
797.089233,315
797.208191,316
797.327271,330
797.446228,332
797.565186,329
797.684265,312
797.803223,324
797.922241,327
798.04126,320
798.160278,326
798.279297,315
798.398315,333
798.517273,319
798.636292,311
798.75531,319
798.874268,326
798.993286,313
799.112244,322
799.231323,331
799.350281,317
799.469238,328
799.588257,334
799.707153,314
799.826111,311
799.945129,326
800.064087,309
800.183044,322
800.302063,333
800.421021,324
800.539978,315
800.658936,327
800.777893,312
800.896912,331
801.015747,332
801.134705,318
801.253723,329
801.37262,322
801.491638,327
801.610535,330
801.729492,309
801.84845,330
801.967407,330
802.086243,329
802.205261,311
802.324158,327
802.443115,320
802.562073,313
802.680969,326
802.799927,313
802.918762,319
803.037659,327
803.156677,324
803.275574,330
803.39447,320
803.513428,326
803.632263,329
803.751221,328
803.870117,331
803.989014,338
804.107971,315
804.226746,309
804.345642,327
804.4646,321
804.583496,326
804.702393,313
804.821228,317
804.940125,321
805.059021,331
805.177917,321
805.296814,327
805.415649,319
805.534546,325
805.653442,328
805.772278,321
805.891113,317
806.01001,316
806.128906,334
806.247742,315
806.366577,317
806.485413,328
806.604309,312
806.723145,317
806.84198,329
806.960876,326
807.079712,327
807.198486,332
807.317383,321
807.436218,303
807.554993,324
807.673889,320
807.792725,330
807.91156,326
808.030396,329
808.14917,330
808.268005,330
808.386841,312
808.505676,323
808.624451,330
808.743286,322
808.862122,308
808.980896,329
809.099731,318
809.218506,318
809.337341,346
809.456116,332
809.57489,312
809.693726,328
809.8125,324
809.931274,321
810.050049,315
810.168884,332
810.287659,317
810.406372,332
810.525269,329
810.643982,319
810.762756,330
810.881531,334
811.000305,326
811.11908,320
811.237854,329
811.356567,325
811.475403,318
811.594116,321
811.71283,319
811.831604,316
811.950378,323
812.069153,324
812.187927,321
812.30658,318
812.425415,325
812.544128,335
812.662781,316
812.781616,320
812.900269,327
813.019043,316
813.137756,315
813.256531,326
813.375244,322
813.493896,311
813.612671,326
813.731384,330
813.850037,316
813.96875,314
814.087524,326
814.206238,331
814.324951,307
814.443604,319
814.562256,327
814.68103,327
814.799683,309
814.918335,318
815.037109,311
815.155762,317
815.274475,330
815.393188,319
815.511841,327
815.630554,315
815.749146,322
815.867859,315
815.986572,338
816.105164,313
816.223877,319
816.342529,327
816.461182,333
816.579895,322
816.698486,322
816.817139,326
816.935791,313
817.054504,324
817.173096,325
817.291748,320
817.4104,322
817.529053,329
817.647644,322
817.766235,315
817.884949,316
818.00354,319
818.122192,332
818.240845,326
818.359436,320
818.478088,316
818.59668,321
818.715271,321
818.833923,327
818.952515,319
819.071106,322
819.189758,321
819.30835,321
819.426941,318
819.545532,313
819.664124,314
819.782715,313
819.901306,336
820.019897,308
820.138489,335
820.25708,322
820.375671,321
820.494202,312
820.612732,333
820.731384,307
820.849915,307
820.968506,317
821.087097,324
821.205627,319
821.324158,322
821.442749,340
821.561279,325
821.679871,322
821.798401,316
821.916931,326
822.035461,311
822.154053,321
822.272583,319
822.391174,306
822.509583,320
822.628174,312
822.746704,317
822.865234,321
822.983765,317
823.102295,318
823.220825,310
823.339294,316
823.457825,305
823.576355,313
823.694824,321
823.813354,310
823.931885,331
824.050354,317
824.168884,312
824.287354,316
824.405823,322
824.524353,316
824.642822,316
824.761353,311
824.879822,313
824.998291,331
825.116699,319
825.235291,324
825.353699,316
825.472168,322
825.590637,325
825.709106,311
825.827576,330
825.946045,320
826.064453,305
826.182983,323
826.301392,319
826.4198,328
826.53833,322
826.656738,316
826.775208,318
826.893677,321
827.012024,319
827.130493,327
827.248962,306
827.36731,325
827.485779,310
827.604248,302
827.722595,316
827.841064,309
827.959412,325
828.077942,308
828.196289,319
828.314636,317
828.433105,322
828.551514,304
828.669861,320
828.78833,325
828.906677,324
829.025085,315
829.143433,320
829.261841,314
829.38031,312
829.498657,335
829.617004,308
829.735413,316
829.85376,322
829.972107,295
830.090515,321
830.208862,306
830.327209,319
830.445557,317
830.563904,318
830.682312,314
830.800659,311
830.919006,319
831.037354,311
831.155701,319
831.274048,329
831.392395,315
831.51062,317
831.629028,314
831.747314,322
831.865662,320
831.984009,322
832.102356,308
832.220642,318
832.338928,322
832.457275,317
832.575623,314
832.693909,312
832.812134,312
832.930481,320
833.048828,323
833.167114,326
833.2854,320
833.403687,313
833.521973,314
833.640259,325
833.758545,320
833.876831,316
833.995056,325
834.113281,322
834.231628,318
834.349915,315
834.468201,316
834.586426,306
834.704651,311
834.822998,318
834.941162,303
835.059448,334
835.177673,313
835.295959,325
835.414246,313
835.53241,310
835.650635,314
835.768921,309
835.887146,327
836.005371,316
836.123596,311
836.241821,319
836.360046,290
836.478271,325
836.596497,314
836.714722,313
836.832886,311
836.95105,333
837.069336,309
837.1875,318
837.305725,308
837.423889,298
837.542053,315
837.660339,322
837.778503,313
837.896667,325
838.014832,312
838.132996,316
838.25116,312
838.369385,326
838.487488,313
838.605713,312
838.723877,309
838.84198,321
838.960205,311
839.078308,322
839.196472,311
839.314636,319
839.4328,312
839.550964,324
839.669067,320
839.787231,322
839.905396,314
840.023499,315
840.141602,313
840.259766,324
840.377869,309
840.495972,309
840.614136,315
840.732239,332
840.850342,312
840.968445,304
841.086548,322
841.204651,327
841.322754,322
841.440918,297
841.55896,310
841.677002,308
841.795166,322
841.913208,325
842.031311,309
842.149353,316
842.267456,315
842.385498,309
842.503601,320
842.621643,325
842.739746,326
842.857788,327
842.97583,323
843.093933,320
843.211975,307
843.330017,315
843.44812,326
843.566101,327
843.684204,316
843.802246,311
843.920227,317
844.038269,330
844.156311,317
844.274292,321
844.392395,305
844.510376,323
844.628357,319
844.74646,323
844.864441,310
844.982422,319
845.100403,331
845.218384,310
845.336426,317
845.454468,317
845.572449,316
845.69043,316
845.808411,311
845.926453,313
846.044373,311
846.162354,312
846.280396,335
846.398315,306
846.516296,308
846.634216,333
846.752197,307
846.870178,317
846.988098,304
847.106079,316
847.22406,315
847.34198,305
847.4599,319
847.577881,310
847.695801,323
847.813782,336
847.931641,296
848.049561,322
848.167603,309
848.285461,315
848.403381,313
848.521362,294
848.639221,329
848.75708,310
848.875,311
848.99292,308
849.110901,324
849.22876,308
849.34668,320
849.464539,316
849.582458,319
849.700317,322
849.818176,321
849.936096,330
850.053955,305
850.171875,319
850.289673,327
850.407593,315
850.525452,326
850.643311,323
850.761169,330
850.878967,320
850.996887,322
851.114746,323
851.232544,327
851.350403,317
851.468262,311
851.58606,308
851.703979,309
851.821777,307
851.939636,319
852.057434,321
852.175232,309
852.293091,316
852.410889,319
852.528687,316
852.646545,309
852.764343,316
852.88208,313
852.999939,325
853.117676,309
853.235535,320
853.353271,322
853.471069,316
853.588928,310
853.706604,317
853.824402,304
853.9422,314
854.059998,312
854.177734,323
854.295532,313
854.413269,313
854.531006,322
854.648804,327
854.766541,314
854.884277,317
855.002014,325
855.119751,319
855.237549,316
855.355225,319
855.473022,314
855.590698,306
855.708435,319
855.826172,313
855.943848,314
856.061646,323
856.179321,316
856.296997,314
856.414795,302
856.53241,309
856.650085,305
856.767822,324
856.885559,318
857.003174,311
857.120911,330
857.238586,324
857.356201,307
857.473938,313
857.591614,312
857.709351,309
857.826965,323
857.944641,314
858.062317,306
858.179993,316
858.297668,319
858.415283,308
858.532959,324
858.650574,317
858.768188,305
858.885803,317
859.003479,325
859.121094,321
859.23877,331
859.356384,313
859.473999,308
859.591675,317
859.709229,309
859.826843,309
859.944458,321
860.062012,322
860.179626,326
860.297302,316
860.414856,313
860.532471,323
860.650024,310
860.767639,322
860.885193,310
861.002808,314
861.120361,305
861.237976,307
861.35553,330
861.473022,332
861.590698,322
861.708191,327
861.825745,336
861.943298,319
862.060852,316
862.178406,310
862.295959,331
862.413513,326
862.531006,318
862.64856,323
862.766113,321
862.883667,314
863.00116,315
863.118713,326
863.236206,309
863.353699,326
863.471252,314
863.588745,327
863.706177,322
863.82373,314
863.941162,330
864.058716,320
864.176208,327
864.29364,322
864.411194,312
864.528687,314
864.646118,305
864.763611,319
864.881042,310
864.998535,311
865.116028,318
865.233459,322
865.350891,316
865.468384,310
865.585754,320
865.703308,318
865.820679,319
865.938171,313
866.055542,300
866.173035,331
866.290466,319
866.407837,314
866.52533,325
866.6427,313
866.760071,318
866.877563,323
866.994934,315
867.112305,312
867.229736,306
867.347107,314
867.464539,322
867.58197,320
867.699341,316
867.81665,317
867.934082,313
868.051453,322
868.168823,302
868.286194,311
868.403564,319
868.520935,316
868.638306,315
868.755676,313
868.872986,324
868.990295,309
869.107727,319
869.225037,312
869.342346,303
869.459717,315
869.577026,306
869.694336,319
869.811707,312
869.929016,322
870.046326,315
870.163635,320
870.280945,310
870.398254,310
870.515564,322
870.632812,316
870.750183,319
870.867432,304
870.984741,328
871.102051,308
871.219299,307
871.336609,322
871.453918,315
871.571106,320
871.688416,312
871.805664,312
871.922852,315
872.040222,311
872.157471,325
872.274719,331
872.391968,315
872.509155,325
872.626465,317
872.743652,315
872.860962,328
872.978149,329
873.095337,337
873.212646,314
873.329834,321
873.44696,325
873.564209,317
873.681396,318
873.798645,316
873.915894,307
874.03302,307
874.150208,317
874.267456,317
874.384583,318
874.501831,319
874.618958,310
874.736145,319
874.853333,319
874.970459,315
875.087646,313
875.204834,307
875.32196,324
875.439148,314
875.556274,312
875.673401,319
875.790527,318
875.907715,316
876.024841,315
876.141968,314
876.259094,315
876.376282,315
876.493347,312
876.610474,318
876.7276,314
876.844727,314
876.961853,316
877.078918,325
877.195984,315
877.313171,314
877.430237,315
877.547302,310
877.664368,316
877.781433,310
877.898499,324
878.015625,323
878.13269,318
878.249695,318
878.366821,323
878.483887,307
878.600952,308
878.717957,311
878.834961,319
878.952087,316
879.069092,317
879.186157,313
879.303162,309
879.420227,303
879.537231,315
879.654236,324
879.77124,320
879.888306,325
880.005249,306
880.122314,323
880.239319,312
880.356323,318
880.473328,324
880.590271,322
880.707275,323
880.824341,310
880.941284,315
881.058228,307
881.175232,320
881.292236,313
881.40918,307
881.526123,309
881.643066,318
881.760071,321
881.877014,310
881.993958,328
882.11084,317
882.227783,305
882.344727,317
882.46167,321
882.578613,314
882.695618,319
882.812439,314
882.929382,326
883.046326,334
883.163208,318
883.280151,319
883.397034,316
883.513916,321
883.630798,311
883.747742,325
883.864563,308
883.981506,312
884.098389,317
884.21521,317
884.332153,308
884.448975,321
884.565796,327
884.682678,325
884.7995,312
884.916443,315
885.033264,330
885.150085,317
885.266968,318
885.383789,322
885.500671,320
885.617493,326
885.734314,310
885.851196,303
885.967896,317
886.084717,322
886.201599,323
886.318359,314
886.435181,313
886.552002,316
886.668762,316
886.785645,321
886.902344,317
887.019165,314
887.135925,325
887.252747,327
887.369446,316
887.486267,318
887.603027,320
887.719788,322
887.836548,312
887.953247,315
888.070068,308
888.186829,335
888.303528,313
888.420288,300
888.536987,325
888.653687,320
888.770447,315
888.887146,316
889.003967,317
889.120667,323
889.237305,311
889.354065,321
889.470703,330
889.587463,327
889.704163,318
889.820862,328
889.937561,316
890.054199,322
890.170837,320
890.287598,310
890.404236,318
890.520874,319
890.637634,313
890.754211,325
890.87085,315
890.987549,327
891.104187,315
891.220886,333
891.337463,321
891.454102,319
891.57074,318
891.687378,321
891.804077,312
891.920654,321
892.037231,313
892.15387,315
892.270447,319
892.387085,331
892.503723,325
892.6203,319
892.736877,311
892.853516,324
892.970032,310
893.08667,317
893.203186,300
893.319763,304
893.43634,320
893.552917,324
893.669556,341
893.786011,316
893.902588,308
894.019165,309
894.135681,321
894.252197,308
894.368835,313
894.485291,323
894.601868,300
894.718384,317
894.8349,315
894.951355,320
895.067932,310
895.184448,330
895.300964,319
895.417419,327
895.533936,315
895.650452,329
895.766907,323
895.883423,314
895.999878,309
896.116333,314
896.232849,325
896.349304,324
896.465759,318
896.582214,317
896.698669,313
896.815125,325
896.931641,326
897.048035,319
897.164551,311
897.280884,326
897.397339,317
897.513794,330
897.630249,311
897.746582,313
897.863098,322
897.979431,305
898.095886,297
898.212341,305
898.328674,328
898.445129,312
898.561462,305
898.677795,312
898.794312,324
898.910645,320
899.026978,314
899.143433,329
899.259766,328
899.37616,327
899.492493,325
899.608765,327
899.725159,317
899.841553,328
899.957947,321
900.07428,315
900.190552,321
900.306946,313
900.423157,331
900.53949,320
900.655884,305
900.772156,318
900.888489,324
901.004822,313
901.121033,323
901.237366,327
901.353699,323
901.46991,313
901.586304,313
901.702515,324
901.818787,323
901.93512,320
902.051331,311
902.167603,324
902.283875,322
902.400085,302
902.516418,320
902.632629,315
902.74884,303
902.865112,320
902.981384,318
903.097595,318
903.213867,314
903.330017,331
903.446289,327
903.5625,324
903.67865,308
903.794922,312
903.911072,311
904.027344,321
904.143494,319
904.259705,310
904.375916,324
904.492065,318
904.608215,305
904.724426,306
904.840576,309
904.956726,323
905.072876,323
905.189087,308
905.305176,306
905.421387,315
905.537537,306
905.653687,316
905.769775,321
905.885925,320
906.002014,312
906.118164,308
906.234314,321
906.350403,326
906.466492,314
906.582642,318
906.69873,306
906.814758,314
906.930908,329
907.046936,325
907.163086,316
907.279175,317
907.395264,329
907.511353,315
907.62738,319
907.743408,323
907.859497,314
907.975525,328
908.091553,314
908.207703,318
908.32373,318
908.439758,319
908.555786,320
908.671814,330
908.787842,316
908.90387,319
909.019775,314
909.135864,312
909.251892,310
909.367859,318
909.483826,313
909.599854,315
909.715881,313
909.831848,324
909.947815,330
910.063782,325
910.179749,316
910.295776,320
910.411743,324
910.527649,318
910.643616,331
910.759583,313
910.875488,315
910.991455,305
911.107361,326
911.223267,315
911.339294,323
911.4552,336
911.571106,317
911.687073,311
911.802979,320
911.918823,317
912.034729,318
912.150635,326
912.266602,314
912.382446,320
912.498352,305
912.614197,327
912.730103,323
912.846008,312
