792.44574,325
792.56488,369
792.68396,413
792.80304,395
792.92218,346
793.041199,328
793.160339,350
793.279419,346
793.398499,347
793.517578,335
793.636658,339
793.755737,349
793.874817,348
793.993896,354
794.112976,338
794.232056,346
794.351074,339
794.470215,328
794.589233,336
794.708313,342
794.827393,316
794.946411,327
795.065552,346
795.18457,336
795.303589,339
795.422668,330
795.541687,326
795.660767,332
795.779846,340
795.898865,335
796.017883,345
796.136963,323
796.255981,328
796.375061,328
796.49408,348
796.613037,331
796.732117,320
796.851135,325
796.970154,343
797.089233,338
797.208191,343
797.327271,346
797.446228,324
797.565186,335
797.684265,320
797.803223,330
797.922241,324
798.04126,329
798.160278,343
798.279297,328
798.398315,317
798.517273,318
798.636292,326
798.75531,335
798.874268,320
798.993286,328
799.112244,336
799.231323,329
799.350281,332
799.469238,344
799.588257,336
799.707153,324
799.826111,331
799.945129,329
800.064087,336
800.183044,331
800.302063,319
800.421021,341
800.539978,329
800.658936,338
800.777893,320
800.896912,321
801.015747,328
801.134705,343
801.253723,335
801.37262,330
801.491638,333
801.610535,337
801.729492,332
801.84845,318
801.967407,321
802.086243,328
802.205261,339
802.324158,326
802.443115,310
802.562073,321
802.680969,324
802.799927,330
802.918762,337
803.037659,329
803.156677,345
803.275574,329
803.39447,313
803.513428,331
803.632263,330
803.751221,320
803.870117,327
803.989014,337
804.107971,324
804.226746,310
804.345642,334
804.4646,324
804.583496,327
804.702393,326
804.821228,334
804.940125,336
805.059021,318
805.177917,330
805.296814,338
805.415649,320
805.534546,327
805.653442,330
805.772278,323
805.891113,316
806.01001,321
806.128906,321
806.247742,313
806.366577,341
806.485413,332
806.604309,313
806.723145,329
806.84198,312
806.960876,336
807.079712,328
807.198486,325
807.317383,324
807.436218,309
807.554993,331
807.673889,330
807.792725,324
807.91156,316
808.030396,334
808.14917,330
808.268005,327
808.386841,314
808.505676,329
808.624451,316
808.743286,330
808.862122,339
808.980896,335
809.099731,315
809.218506,329
809.337341,319
809.456116,315
809.57489,320
809.693726,344
809.8125,333
809.931274,331
810.050049,326
810.168884,312
810.287659,332
810.406372,324
810.525269,330
810.643982,322
810.762756,325
810.881531,313
811.000305,321
811.11908,331
811.237854,323
811.356567,321
811.475403,326
811.594116,323
811.71283,321
811.831604,319
811.950378,328
812.069153,323
812.187927,331
812.30658,321
812.425415,333
812.544128,321
812.662781,313
812.781616,328
812.900269,315
813.019043,325
813.137756,314
813.256531,320
813.375244,327
813.493896,338
813.612671,319
813.731384,329
813.850037,318
813.96875,316
814.087524,323
814.206238,328
814.324951,317
814.443604,310
814.562256,325
814.68103,333
814.799683,324
814.918335,313
815.037109,319
815.155762,321
815.274475,317
815.393188,323
815.511841,318
815.630554,332
815.749146,318
815.867859,320
815.986572,320
816.105164,325
816.223877,328
816.342529,316
816.461182,324
816.579895,333
816.698486,325
816.817139,314
816.935791,318
817.054504,317
817.173096,325
817.291748,312
817.4104,338
817.529053,321
817.647644,327
817.766235,324
817.884949,324
818.00354,329
818.122192,326
818.240845,324
818.359436,324
818.478088,327
818.59668,331
818.715271,326
818.833923,315
818.952515,326
819.071106,323
819.189758,314
819.30835,320
819.426941,320
819.545532,322
819.664124,328
819.782715,324
819.901306,332
820.019897,324
820.138489,330
820.25708,316
820.375671,318
820.494202,317
820.612732,316
820.731384,323
820.849915,313
820.968506,328
821.087097,325
821.205627,317
821.324158,316
821.442749,325
821.561279,324
821.679871,316
821.798401,332
821.916931,318
822.035461,315
822.154053,315
822.272583,312
822.391174,320
822.509583,321
822.628174,330
822.746704,310
822.865234,328
822.983765,332
823.102295,312
823.220825,313
823.339294,311
823.457825,311
823.576355,332
823.694824,313
823.813354,322
823.931885,309
824.050354,304
824.168884,317
824.287354,314
824.405823,333
824.524353,324
824.642822,308
824.761353,316
824.879822,307
824.998291,320
825.116699,322
825.235291,322
825.353699,323
825.472168,321
825.590637,323
825.709106,312
825.827576,322
825.946045,312
826.064453,309
826.182983,320
826.301392,322
826.4198,318
826.53833,320
826.656738,312
826.775208,302
826.893677,309
827.012024,311
827.130493,319
827.248962,318
827.36731,320
827.485779,324
827.604248,319
827.722595,310
827.841064,320
827.959412,319
828.077942,314
828.196289,314
828.314636,299
828.433105,328
828.551514,306
828.669861,315
828.78833,306
828.906677,326
829.025085,308
829.143433,317
829.261841,312
829.38031,324
829.498657,307
829.617004,323
829.735413,322
829.85376,317
829.972107,324
830.090515,332
830.208862,320
830.327209,309
830.445557,329
830.563904,325
830.682312,328
830.800659,311
830.919006,319
831.037354,320
831.155701,318
831.274048,314
831.392395,330
831.51062,312
831.629028,317
831.747314,312
831.865662,320
831.984009,315
832.102356,311
832.220642,330
832.338928,334
832.457275,312
832.575623,329
832.693909,323
832.812134,323
832.930481,318
833.048828,314
833.167114,318
833.2854,312
833.403687,316
833.521973,321
833.640259,325
833.758545,317
833.876831,326
833.995056,321
834.113281,313
834.231628,316
834.349915,327
834.468201,302
834.586426,320
834.704651,317
834.822998,322
834.941162,320
835.059448,316
835.177673,321
835.295959,309
835.414246,315
835.53241,320
835.650635,321
835.768921,322
835.887146,320
836.005371,307
836.123596,320
836.241821,327
836.360046,324
836.478271,318
836.596497,323
836.714722,327
836.832886,307
836.95105,312
837.069336,323
837.1875,310
837.305725,322
837.423889,320
837.542053,318
837.660339,326
837.778503,320
837.896667,319
838.014832,311
838.132996,304
838.25116,324
838.369385,326
838.487488,328
838.605713,314
838.723877,334
838.84198,320
838.960205,318
839.078308,321
839.196472,320
839.314636,310
839.4328,313
839.550964,339
839.669067,313
839.787231,314
839.905396,327
840.023499,319
840.141602,320
840.259766,329
840.377869,311
840.495972,315
840.614136,329
840.732239,330
840.850342,304
840.968445,321
841.086548,327
841.204651,317
841.322754,342
841.440918,323
841.55896,306
841.677002,311
841.795166,321
841.913208,327
842.031311,324
842.149353,319
842.267456,321
842.385498,321
842.503601,330
842.621643,302
842.739746,314
842.857788,319
842.97583,312
843.093933,331
843.211975,317
843.330017,309
843.44812,320
843.566101,318
843.684204,327
843.802246,325
843.920227,309
844.038269,318
844.156311,303
844.274292,321
844.392395,308
844.510376,315
844.628357,323
844.74646,315
844.864441,329
844.982422,339
845.100403,318
845.218384,315
845.336426,327
845.454468,312
845.572449,319
845.69043,316
845.808411,316
845.926453,320
846.044373,318
846.162354,319
846.280396,308
846.398315,326
846.516296,318
846.634216,318
846.752197,316
846.870178,314
846.988098,311
847.106079,323
847.22406,316
847.34198,332
847.4599,318
847.577881,311
847.695801,319
847.813782,322
847.931641,314
848.049561,321
848.167603,314
848.285461,311
848.403381,321
848.521362,325
848.639221,318
848.75708,321
848.875,325
848.99292,338
849.110901,312
849.22876,314
849.34668,323
849.464539,327
849.582458,327
849.700317,329
849.818176,325
849.936096,317
850.053955,311
850.171875,313
850.289673,327
850.407593,318
850.525452,306
850.643311,316
850.761169,321
850.878967,317
850.996887,330
851.114746,314
851.232544,308
851.350403,332
851.468262,311
851.58606,317
851.703979,319
851.821777,324
851.939636,335
852.057434,319
852.175232,318
852.293091,314
852.410889,318
852.528687,312
852.646545,316
852.764343,311
852.88208,323
852.999939,311
853.117676,330
853.235535,310
853.353271,318
853.471069,313
853.588928,317
853.706604,324
853.824402,330
853.9422,321
854.059998,319
854.177734,319
854.295532,301
854.413269,339
854.531006,316
854.648804,321
854.766541,306
854.884277,323
855.002014,295
855.119751,328
855.237549,315
855.355225,323
855.473022,336
855.590698,327
855.708435,310
855.826172,308
855.943848,326
856.061646,307
856.179321,328
856.296997,315
856.414795,317
856.53241,318
856.650085,320
856.767822,318
856.885559,324
857.003174,321
857.120911,330
857.238586,323
857.356201,327
857.473938,330
857.591614,315
857.709351,306
857.826965,328
857.944641,322
858.062317,317
858.179993,323
858.297668,323
858.415283,327
858.532959,316
858.650574,316
858.768188,323
858.885803,325
859.003479,320
859.121094,326
859.23877,313
859.356384,320
859.473999,311
859.591675,319
859.709229,323
859.826843,316
859.944458,326
860.062012,320
860.179626,317
860.297302,320
860.414856,311
860.532471,331
860.650024,321
860.767639,316
860.885193,300
861.002808,316
861.120361,314
861.237976,318
861.35553,317
861.473022,324
861.590698,310
861.708191,319
861.825745,308
861.943298,317
862.060852,313
862.178406,315
862.295959,320
862.413513,314
862.531006,318
862.64856,305
862.766113,308
862.883667,334
863.00116,319
863.118713,323
863.236206,313
863.353699,318
863.471252,303
863.588745,328
863.706177,314
863.82373,318
863.941162,312
864.058716,320
864.176208,329
864.29364,326
864.411194,313
864.528687,328
864.646118,328
864.763611,311
864.881042,314
864.998535,328
865.116028,318
865.233459,307
865.350891,311
865.468384,319
865.585754,313
865.703308,311
865.820679,337
865.938171,317
866.055542,323
866.173035,312
866.290466,316
866.407837,319
866.52533,321
866.6427,320
866.760071,316
866.877563,313
866.994934,323
867.112305,316
867.229736,312
867.347107,330
867.464539,308
867.58197,315
867.699341,314
867.81665,318
867.934082,314
868.051453,329
868.168823,327
868.286194,328
868.403564,321
868.520935,327
868.638306,314
868.755676,328
868.872986,321
868.990295,327
869.107727,310
869.225037,314
869.342346,321
869.459717,322
869.577026,325
869.694336,319
869.811707,310
869.929016,315
870.046326,321
870.163635,327
870.280945,316
870.398254,311
870.515564,311
870.632812,318
870.750183,314
870.867432,315
870.984741,313
871.102051,330
871.219299,316
871.336609,318
871.453918,326
871.571106,319
871.688416,316
871.805664,318
871.922852,331
872.040222,309
872.157471,314
872.274719,316
872.391968,324
872.509155,330
872.626465,315
872.743652,319
872.860962,326
872.978149,317
873.095337,329
873.212646,319
873.329834,316
873.44696,329
873.564209,322
873.681396,320
873.798645,328
873.915894,322
874.03302,311
874.150208,330
874.267456,331
874.384583,329
874.501831,316
874.618958,309
874.736145,324
874.853333,320
874.970459,318
875.087646,320
875.204834,325
875.32196,334
875.439148,316
875.556274,317
875.673401,305
875.790527,310
875.907715,330
876.024841,329
876.141968,323
876.259094,318
876.376282,326
876.493347,308
876.610474,321
876.7276,321
876.844727,315
876.961853,324
877.078918,315
877.195984,333
877.313171,319
877.430237,317
877.547302,315
877.664368,318
877.781433,313
877.898499,336
878.015625,315
878.13269,319
878.249695,313
878.366821,322
878.483887,308
878.600952,332
878.717957,313
878.834961,305
878.952087,325
879.069092,317
879.186157,324
879.303162,308
879.420227,321
879.537231,334
879.654236,316
879.77124,307
879.888306,303
880.005249,311
880.122314,323
880.239319,326
880.356323,331
880.473328,324
880.590271,313
880.707275,325
880.824341,306
880.941284,312
881.058228,300
881.175232,316
881.292236,314
881.40918,312
881.526123,309
881.643066,323
881.760071,310
881.877014,310
881.993958,315
882.11084,309
882.227783,316
882.344727,326
882.46167,313
882.578613,312
882.695618,326
882.812439,333
882.929382,317
883.046326,328
883.163208,316
883.280151,323
883.397034,332
883.513916,316
883.630798,308
883.747742,328
883.864563,322
883.981506,317
884.098389,312
884.21521,317
884.332153,313
884.448975,319
884.565796,311
884.682678,330
884.7995,327
884.916443,324
885.033264,326
885.150085,316
885.266968,314
885.383789,324
885.500671,324
885.617493,324
885.734314,326
885.851196,322
885.967896,315
886.084717,315
886.201599,331
886.318359,327
886.435181,314
886.552002,328
886.668762,317
886.785645,314
886.902344,325
887.019165,324
887.135925,313
887.252747,313
887.369446,313
887.486267,321
887.603027,316
887.719788,326
887.836548,304
887.953247,313
888.070068,320
888.186829,318
888.303528,314
888.420288,321
888.536987,306
888.653687,324
888.770447,325
888.887146,338
889.003967,315
889.120667,310
889.237305,318
889.354065,315
889.470703,321
889.587463,296
889.704163,323
889.820862,334
889.937561,319
890.054199,325
890.170837,313
890.287598,326
890.404236,323
890.520874,319
890.637634,315
890.754211,321
890.87085,305
890.987549,319
891.104187,302
891.220886,327
891.337463,319
891.454102,316
891.57074,324
891.687378,315
891.804077,306
891.920654,308
892.037231,301
892.15387,317
892.270447,291
892.387085,307
892.503723,310
892.6203,315
892.736877,321
892.853516,317
892.970032,322
893.08667,331
893.203186,311
893.319763,325
893.43634,321
893.552917,332
893.669556,306
893.786011,329
893.902588,320
894.019165,325
894.135681,326
894.252197,326
894.368835,319
894.485291,312
894.601868,323
894.718384,322
894.8349,328
894.951355,304
895.067932,313
895.184448,319
895.300964,318
895.417419,315
895.533936,309
895.650452,325
895.766907,307
895.883423,321
895.999878,322
896.116333,307
896.232849,321
896.349304,318
896.465759,326
896.582214,314
896.698669,320
896.815125,323
896.931641,319
897.048035,315
897.164551,326
897.280884,326
897.397339,312
897.513794,324
897.630249,321
897.746582,325
897.863098,311
897.979431,321
898.095886,324
898.212341,317
898.328674,325
898.445129,305
898.561462,321
898.677795,311
898.794312,318
898.910645,310
899.026978,335
899.143433,318
899.259766,307
899.37616,330
899.492493,311
899.608765,325
899.725159,320
899.841553,321
899.957947,317
900.07428,332
900.190552,309
900.306946,312
900.423157,317
900.53949,315
900.655884,311
900.772156,316
900.888489,324
901.004822,319
901.121033,330
901.237366,299
901.353699,308
901.46991,320
901.586304,326
901.702515,312
901.818787,318
901.93512,316
902.051331,321
902.167603,309
902.283875,335
902.400085,316
902.516418,320
902.632629,320
902.74884,322
902.865112,324
902.981384,310
903.097595,319
903.213867,321
903.330017,322
903.446289,322
903.5625,312
903.67865,321
903.794922,317
903.911072,313
904.027344,324
904.143494,317
904.259705,320
904.375916,316
904.492065,317
904.608215,320
904.724426,330
904.840576,321
904.956726,315
905.072876,320
905.189087,316
905.305176,310
905.421387,324
905.537537,324
905.653687,311
905.769775,321
905.885925,321
906.002014,324
906.118164,318
906.234314,310
906.350403,316
906.466492,323
906.582642,339
906.69873,302
906.814758,334
906.930908,315
907.046936,321
907.163086,315
907.279175,322
907.395264,324
907.511353,316
907.62738,311
907.743408,305
907.859497,319
907.975525,311
908.091553,314
908.207703,309
908.32373,322
908.439758,304
908.555786,307
908.671814,324
908.787842,318
908.90387,311
909.019775,311
909.135864,313
909.251892,326
909.367859,330
909.483826,315
909.599854,323
909.715881,320
909.831848,325
909.947815,314
910.063782,322
910.179749,315
910.295776,315
910.411743,321
910.527649,315
910.643616,313
910.759583,307
910.875488,318
910.991455,326
911.107361,314
911.223267,314
911.339294,313
911.4552,308
911.571106,310
911.687073,304
911.802979,312
911.918823,332
912.034729,316
912.150635,326
912.266602,312
912.382446,310
912.498352,307
912.614197,321
912.730103,320
912.846008,318
792.44574,345
792.56488,343
792.68396,410
792.80304,397
792.92218,357
793.041199,326
793.160339,335
793.279419,355
793.398499,360
793.517578,340
793.636658,325
793.755737,332
793.874817,364
793.993896,367
794.112976,354
794.232056,357
794.351074,346
794.470215,343
794.589233,329
794.708313,351
794.827393,341
794.946411,337
795.065552,349
795.18457,350
795.303589,335
795.422668,324
795.541687,331
795.660767,338
795.779846,338
795.898865,337
796.017883,324
796.136963,332
796.255981,338
796.375061,344
796.49408,336
796.613037,319
796.732117,335
796.851135,325
796.970154,335
797.089233,332
797.208191,337
797.327271,341
797.446228,332
797.565186,327
797.684265,328
797.803223,323
797.922241,338
798.04126,342
798.160278,320
798.279297,321
798.398315,325
798.517273,337
798.636292,330
798.75531,319
798.874268,319
798.993286,333
799.112244,329
799.231323,325
799.350281,333
799.469238,311
799.588257,321
799.707153,323
799.826111,334
799.945129,325
800.064087,317
800.183044,331
800.302063,333
800.421021,339
800.539978,335
800.658936,330
800.777893,316
800.896912,325
801.015747,327
801.134705,333
801.253723,329
801.37262,331
801.491638,324
801.610535,329
801.729492,327
801.84845,337
801.967407,340
802.086243,328
802.205261,314
802.324158,322
802.443115,329
802.562073,334
802.680969,325
802.799927,321
802.918762,335
803.037659,326
803.156677,329
803.275574,331
803.39447,331
803.513428,333
803.632263,323
803.751221,339
803.870117,323
803.989014,323
804.107971,322
804.226746,325
804.345642,324
804.4646,321
804.583496,324
804.702393,327
804.821228,315
804.940125,322
805.059021,320
805.177917,317
805.296814,329
805.415649,317
805.534546,330
805.653442,323
805.772278,319
805.891113,328
806.01001,332
806.128906,323
806.247742,325
806.366577,320
806.485413,338
806.604309,324
806.723145,322
806.84198,323
806.960876,320
807.079712,340
807.198486,318
807.317383,320
807.436218,327
807.554993,325
807.673889,328
807.792725,324
807.91156,308
808.030396,322
808.14917,327
808.268005,328
808.386841,314
808.505676,328
808.624451,325
808.743286,316
808.862122,328
808.980896,320
809.099731,316
809.218506,327
809.337341,335
809.456116,336
809.57489,328
809.693726,326
809.8125,320
809.931274,328
810.050049,331
810.168884,324
810.287659,330
810.406372,316
810.525269,321
810.643982,337
810.762756,330
810.881531,318
811.000305,323
811.11908,313
811.237854,336
811.356567,323
811.475403,322
811.594116,328
811.71283,316
811.831604,336
811.950378,320
812.069153,330
812.187927,338
812.30658,319
812.425415,328
812.544128,318
812.662781,331
812.781616,338
812.900269,311
813.019043,327
813.137756,312
813.256531,330
813.375244,316
813.493896,317
813.612671,329
813.731384,323
813.850037,315
813.96875,333
814.087524,315
814.206238,325
814.324951,326
814.443604,324
814.562256,315
814.68103,328
814.799683,325
814.918335,341
815.037109,336
815.155762,326
815.274475,334
815.393188,316
815.511841,316
815.630554,326
815.749146,322
815.867859,337
815.986572,330
816.105164,318
816.223877,311
816.342529,315
816.461182,317
816.579895,324
816.698486,330
816.817139,319
816.935791,317
817.054504,313
817.173096,335
817.291748,332
817.4104,329
817.529053,305
817.647644,327
817.766235,323
817.884949,336
818.00354,322
818.122192,319
818.240845,321
818.359436,321
818.478088,319
818.59668,331
818.715271,314
818.833923,308
818.952515,313
819.071106,326
819.189758,322
819.30835,328
819.426941,329
819.545532,324
819.664124,304
819.782715,318
819.901306,331
820.019897,313
820.138489,317
820.25708,315
820.375671,324
820.494202,304
820.612732,331
820.731384,307
820.849915,314
820.968506,327
821.087097,325
821.205627,315
821.324158,327
821.442749,317
821.561279,308
821.679871,313
821.798401,320
821.916931,319
822.035461,321
822.154053,307
822.272583,314
822.391174,330
822.509583,305
822.628174,326
822.746704,317
822.865234,314
822.983765,328
823.102295,327
823.220825,308
823.339294,328
823.457825,323
823.576355,320
823.694824,310
823.813354,323
823.931885,316
824.050354,320
824.168884,323
824.287354,324
824.405823,318
824.524353,317
824.642822,333
824.761353,329
824.879822,314
824.998291,320
825.116699,316
825.235291,324
825.353699,329
825.472168,319
825.590637,318
825.709106,318
825.827576,321
825.946045,317
826.064453,316
826.182983,321
826.301392,310
826.4198,308
826.53833,323
826.656738,325
826.775208,316
826.893677,310
827.012024,323
827.130493,320
827.248962,321
827.36731,318
827.485779,324
827.604248,325
827.722595,320
827.841064,307
827.959412,328
828.077942,310
828.196289,318
828.314636,315
828.433105,315
828.551514,320
828.669861,322
828.78833,319
828.906677,311
829.025085,312
829.143433,327
829.261841,324
829.38031,326
829.498657,320
829.617004,329
829.735413,329
829.85376,317
829.972107,330
830.090515,321
830.208862,318
830.327209,315
830.445557,317
830.563904,312
830.682312,328
830.800659,321
830.919006,316
831.037354,319
831.155701,317
831.274048,309
831.392395,313
831.51062,314
831.629028,312
831.747314,314
831.865662,318
831.984009,307
832.102356,307
832.220642,311
832.338928,312
832.457275,335
832.575623,330
832.693909,316
832.812134,319
832.930481,324
833.048828,313
833.167114,314
833.2854,311
833.403687,313
833.521973,313
833.640259,318
833.758545,312
833.876831,312
833.995056,315
834.113281,302
834.231628,327
834.349915,325
834.468201,310
834.586426,315
834.704651,324
834.822998,325
834.941162,304
835.059448,326
835.177673,312
835.295959,306
835.414246,315
835.53241,320
835.650635,316
835.768921,310
835.887146,319
836.005371,319
836.123596,313
836.241821,302
836.360046,308
836.478271,321
836.596497,321
836.714722,316
836.832886,312
836.95105,321
837.069336,316
837.1875,314
837.305725,340
837.423889,314
837.542053,319
837.660339,321
837.778503,307
837.896667,313
838.014832,310
838.132996,308
838.25116,311
838.369385,327
838.487488,308
838.605713,312
838.723877,325
838.84198,321
838.960205,323
839.078308,321
839.196472,319
839.314636,310
839.4328,311
839.550964,327
839.669067,325
839.787231,320
839.905396,322
840.023499,328
840.141602,322
840.259766,336
840.377869,311
840.495972,309
840.614136,326
840.732239,328
840.850342,314
840.968445,312
841.086548,312
841.204651,320
841.322754,319
841.440918,325
841.55896,306
841.677002,319
841.795166,325
841.913208,327
842.031311,316
842.149353,317
842.267456,308
842.385498,318
842.503601,321
842.621643,328
842.739746,325
842.857788,324
842.97583,329
843.093933,314
843.211975,311
843.330017,313
843.44812,318
843.566101,310
843.684204,335
843.802246,317
843.920227,325
844.038269,322
844.156311,315
844.274292,327
844.392395,328
844.510376,322
844.628357,316
844.74646,314
844.864441,329
844.982422,311
845.100403,311
845.218384,320
845.336426,324
845.454468,327
845.572449,321
845.69043,322
845.808411,309
845.926453,320
846.044373,318
846.162354,330
846.280396,306
846.398315,326
846.516296,322
846.634216,328
846.752197,320
846.870178,325
846.988098,311
847.106079,332
847.22406,327
847.34198,326
847.4599,307
847.577881,303
847.695801,318
847.813782,319
847.931641,318
848.049561,312
848.167603,309
848.285461,319
848.403381,324
848.521362,315
848.639221,316
848.75708,330
848.875,313
848.99292,311
849.110901,315
849.22876,318
849.34668,325
849.464539,324
849.582458,329
849.700317,323
849.818176,313
849.936096,323
850.053955,322
850.171875,334
850.289673,319
850.407593,312
850.525452,314
850.643311,297
850.761169,321
850.878967,323
850.996887,328
851.114746,318
851.232544,337
851.350403,318
851.468262,308
851.58606,326
851.703979,318
851.821777,316
851.939636,317
852.057434,318
852.175232,322
852.293091,319
852.410889,317
852.528687,314
852.646545,322
852.764343,303
852.88208,326
852.999939,326
853.117676,322
853.235535,324
853.353271,325
853.471069,322
853.588928,316
853.706604,332
853.824402,311
853.9422,314
854.059998,313
854.177734,305
854.295532,318
854.413269,319
854.531006,318
854.648804,329
854.766541,316
854.884277,329
855.002014,325
855.119751,308
855.237549,314
855.355225,318
855.473022,307
855.590698,321
855.708435,319
855.826172,308
855.943848,318
856.061646,331
856.179321,313
856.296997,310
856.414795,326
856.53241,313
856.650085,312
856.767822,309
856.885559,319
857.003174,308
857.120911,318
857.238586,317
857.356201,324
857.473938,330
857.591614,309
857.709351,322
857.826965,335
857.944641,335
858.062317,317
858.179993,329
858.297668,290
858.415283,333
858.532959,324
858.650574,329
858.768188,309
858.885803,312
859.003479,325
859.121094,314
859.23877,306
859.356384,328
859.473999,316
859.591675,325
859.709229,316
859.826843,327
859.944458,317
860.062012,320
860.179626,311
860.297302,336
860.414856,317
860.532471,314
860.650024,320
860.767639,319
860.885193,306
861.002808,324
861.120361,322
861.237976,319
861.35553,322
861.473022,329
861.590698,329
861.708191,312
861.825745,312
861.943298,314
862.060852,322
862.178406,315
862.295959,324
862.413513,304
862.531006,312
862.64856,310
862.766113,317
862.883667,317
863.00116,318
863.118713,326
863.236206,311
863.353699,322
863.471252,308
863.588745,309
863.706177,319
863.82373,310
863.941162,312
864.058716,316
864.176208,317
864.29364,331
864.411194,322
864.528687,315
864.646118,311
864.763611,315
864.881042,307
864.998535,328
865.116028,317
865.233459,319
865.350891,322
865.468384,320
865.585754,309
865.703308,320
865.820679,328
865.938171,317
866.055542,314
866.173035,315
866.290466,317
866.407837,331
866.52533,298
866.6427,323
866.760071,318
866.877563,307
866.994934,321
867.112305,323
867.229736,319
867.347107,318
867.464539,324
867.58197,334
867.699341,318
867.81665,331
867.934082,314
868.051453,309
868.168823,318
868.286194,317
868.403564,323
868.520935,323
868.638306,311
868.755676,330
868.872986,304
868.990295,323
869.107727,322
869.225037,312
869.342346,326
869.459717,324
869.577026,323
869.694336,312
869.811707,322
869.929016,321
870.046326,300
870.163635,312
870.280945,311
870.398254,315
870.515564,307
870.632812,313
870.750183,331
870.867432,320
870.984741,308
871.102051,343
871.219299,313
871.336609,316
871.453918,316
871.571106,325
871.688416,314
871.805664,331
871.922852,313
872.040222,322
872.157471,317
872.274719,337
872.391968,312
872.509155,317
872.626465,314
872.743652,326
872.860962,322
872.978149,322
873.095337,313
873.212646,322
873.329834,329
873.44696,335
873.564209,327
873.681396,313
873.798645,326
873.915894,326
874.03302,321
874.150208,317
874.267456,322
874.384583,328
874.501831,308
874.618958,330
874.736145,313
874.853333,306
874.970459,326
875.087646,321
875.204834,319
875.32196,317
875.439148,311
875.556274,326
875.673401,321
875.790527,327
875.907715,316
876.024841,325
876.141968,320
876.259094,312
876.376282,323
876.493347,309
876.610474,318
876.7276,327
876.844727,317
876.961853,330
877.078918,324
877.195984,320
877.313171,329
877.430237,317
877.547302,325
877.664368,324
877.781433,315
877.898499,320
878.015625,320
878.13269,317
878.249695,333
878.366821,324
878.483887,323
878.600952,321
878.717957,314
878.834961,317
878.952087,316
879.069092,322
879.186157,311
879.303162,329
879.420227,318
879.537231,330
879.654236,326
879.77124,317
879.888306,320
880.005249,322
880.122314,314
880.239319,325
880.356323,314
880.473328,325
880.590271,322
880.707275,319
880.824341,307
880.941284,319
881.058228,317
881.175232,313
881.292236,320
881.40918,334
881.526123,309
881.643066,331
881.760071,317
881.877014,323
881.993958,321
882.11084,321
882.227783,323
882.344727,314
882.46167,311
882.578613,321
882.695618,303
882.812439,314
882.929382,321
883.046326,325
883.163208,312
883.280151,321
883.397034,312
883.513916,314
883.630798,319
883.747742,319
883.864563,315
883.981506,317
884.098389,318
884.21521,334
884.332153,323
884.448975,322
884.565796,318
884.682678,328
884.7995,309
884.916443,326
885.033264,315
885.150085,330
885.266968,319
885.383789,325
885.500671,328
885.617493,316
885.734314,330
885.851196,331
885.967896,329
886.084717,327
886.201599,309
886.318359,323
886.435181,317
886.552002,333
886.668762,313
886.785645,332
886.902344,319
887.019165,330
887.135925,306
887.252747,330
887.369446,323
887.486267,318
887.603027,327
887.719788,321
887.836548,314
887.953247,324
888.070068,320
888.186829,317
888.303528,316
888.420288,322
888.536987,312
888.653687,310
888.770447,308
888.887146,337
889.003967,325
889.120667,303
889.237305,320
889.354065,308
889.470703,321
889.587463,304
889.704163,320
889.820862,302
889.937561,318
890.054199,310
890.170837,321
890.287598,320
890.404236,316
890.520874,310
890.637634,315
890.754211,328
890.87085,323
890.987549,331
891.104187,315
891.220886,331
891.337463,319
891.454102,310
891.57074,326
891.687378,313
891.804077,304
891.920654,320
892.037231,317
892.15387,323
892.270447,303
892.387085,324
892.503723,327
892.6203,318
892.736877,331
892.853516,313
892.970032,334
893.08667,318
893.203186,314
893.319763,320
893.43634,325
893.552917,325
893.669556,308
893.786011,326
893.902588,314
894.019165,307
894.135681,332
894.252197,323
894.368835,315
894.485291,320
894.601868,305
894.718384,333
894.8349,305
894.951355,316
895.067932,309
895.184448,325
895.300964,317
895.417419,333
895.533936,316
895.650452,316
895.766907,315
895.883423,332
895.999878,320
896.116333,327
896.232849,318
896.349304,321
896.465759,323
896.582214,319
896.698669,327
896.815125,316
896.931641,302
897.048035,319
897.164551,303
897.280884,327
897.397339,318
897.513794,323
897.630249,312
897.746582,331
897.863098,321
897.979431,307
898.095886,314
898.212341,325
898.328674,328
898.445129,313
898.561462,321
898.677795,317
898.794312,320
898.910645,339
899.026978,301
899.143433,320
899.259766,305
899.37616,337
899.492493,328
899.608765,320
899.725159,315
899.841553,329
899.957947,325
900.07428,311
900.190552,304
900.306946,328
900.423157,328
900.53949,315
900.655884,313
900.772156,316
900.888489,316
901.004822,314
901.121033,324
901.237366,314
901.353699,335
901.46991,321
901.586304,323
901.702515,324
901.818787,321
901.93512,320
902.051331,305
902.167603,332
902.283875,330
902.400085,319
902.516418,318
902.632629,326
902.74884,320
902.865112,321
902.981384,333
903.097595,318
903.213867,310
903.330017,335
903.446289,322
903.5625,317
903.67865,317
903.794922,313
903.911072,320
904.027344,331
904.143494,321
904.259705,320
904.375916,304
904.492065,324
904.608215,325
904.724426,312
904.840576,321
904.956726,336
905.072876,320
905.189087,307
905.305176,313
905.421387,327
905.537537,322
905.653687,327
905.769775,319
905.885925,325
906.002014,318
906.118164,321
906.234314,312
906.350403,325
906.466492,324
906.582642,331
906.69873,311
906.814758,326
906.930908,308
907.046936,321
907.163086,322
907.279175,320
907.395264,314
907.511353,326
907.62738,313
907.743408,316
907.859497,324
907.975525,322
908.091553,317
908.207703,310
908.32373,304
908.439758,313
908.555786,320
908.671814,316
908.787842,323
908.90387,321
909.019775,307
909.135864,302
909.251892,319
909.367859,325
909.483826,311
909.599854,303
909.715881,316
909.831848,319
909.947815,312
910.063782,312
910.179749,326
910.295776,329
910.411743,324
910.527649,309
910.643616,308
910.759583,328
910.875488,306
910.991455,315
911.107361,323
911.223267,319
911.339294,317
911.4552,327
911.571106,316
911.687073,311
911.802979,311
911.918823,321
912.034729,310
912.150635,321
912.266602,316
912.382446,318
912.498352,314
912.614197,319
912.730103,308
912.846008,322
792.44574,329
792.56488,367
792.68396,408
792.80304,404
792.92218,352
793.041199,344
793.160339,328
793.279419,354
793.398499,349
793.517578,337
793.636658,326
793.755737,350
793.874817,352
793.993896,351
794.112976,348
794.232056,345
794.351074,337
794.470215,358
794.589233,342
794.708313,325
794.827393,322
794.946411,341
795.065552,347
795.18457,326
795.303589,338
795.422668,339
795.541687,334
795.660767,341
795.779846,330
795.898865,333
796.017883,336
796.136963,327
796.255981,344
796.375061,336
796.49408,330
796.613037,337
796.732117,337
796.851135,340
796.970154,324
797.089233,332
797.208191,332
797.327271,329
797.446228,329
797.565186,328
797.684265,328
797.803223,331
797.922241,318
798.04126,342
798.160278,327
798.279297,327
798.398315,341
798.517273,343
798.636292,333
798.75531,334
798.874268,317
798.993286,330
799.112244,339
799.231323,346
799.350281,319
799.469238,332
799.588257,341
799.707153,332
799.826111,338
799.945129,338
800.064087,342
800.183044,326
800.302063,326
800.421021,330
800.539978,326
800.658936,320
800.777893,331
800.896912,334
801.015747,328
801.134705,317
801.253723,322
801.37262,316
801.491638,336
801.610535,324
801.729492,326
801.84845,323
801.967407,306
802.086243,330
802.205261,330
802.324158,313
802.443115,315
802.562073,337
802.680969,325
802.799927,334
802.918762,331
803.037659,326
803.156677,320
803.275574,321
803.39447,322
803.513428,322
803.632263,334
803.751221,320
803.870117,316
803.989014,322
804.107971,329
804.226746,333
804.345642,326
804.4646,328
804.583496,337
804.702393,319
804.821228,336
804.940125,325
805.059021,329
805.177917,315
805.296814,338
805.415649,325
805.534546,318
805.653442,332
805.772278,336
805.891113,332
806.01001,322
806.128906,325
806.247742,324
806.366577,341
806.485413,308
806.604309,316
806.723145,318
806.84198,328
806.960876,317
807.079712,327
807.198486,322
807.317383,329
807.436218,311
807.554993,329
807.673889,331
807.792725,312
807.91156,325
808.030396,339
808.14917,328
808.268005,328
808.386841,320
808.505676,328
808.624451,332
808.743286,333
808.862122,318
808.980896,319
809.099731,330
809.218506,330
809.337341,325
809.456116,341
809.57489,332
809.693726,320
809.8125,332
809.931274,322
810.050049,321
810.168884,321
810.287659,335
810.406372,311
810.525269,315
810.643982,337
810.762756,330
810.881531,318
811.000305,320
811.11908,318
811.237854,305
811.356567,334
811.475403,327
811.594116,322
811.71283,338
811.831604,330
811.950378,319
812.069153,330
812.187927,322
812.30658,327
812.425415,326
812.544128,322
812.662781,321
812.781616,335
812.900269,322
813.019043,317
813.137756,321
813.256531,318
813.375244,330
813.493896,335
813.612671,327
813.731384,336
813.850037,322
813.96875,322
814.087524,319
814.206238,335
814.324951,322
814.443604,310
814.562256,330
814.68103,323
814.799683,324
814.918335,330
815.037109,321
815.155762,329
815.274475,326
815.393188,317
815.511841,339
815.630554,312
815.749146,323
815.867859,325
815.986572,322
816.105164,324
816.223877,320
816.342529,334
816.461182,323
816.579895,317
816.698486,321
816.817139,334
816.935791,326
817.054504,324
817.173096,329
817.291748,329
817.4104,315
817.529053,328
817.647644,324
817.766235,325
817.884949,308
818.00354,319
818.122192,317
818.240845,316
818.359436,339
818.478088,315
818.59668,323
818.715271,324
818.833923,321
818.952515,312
819.071106,325
819.189758,331
819.30835,318
819.426941,321
819.545532,309
819.664124,321
819.782715,328
819.901306,326
820.019897,325
820.138489,304
820.25708,315
820.375671,331
820.494202,313
820.612732,322
820.731384,307
820.849915,319
820.968506,316
821.087097,322
821.205627,318
821.324158,324
821.442749,330
821.561279,319
821.679871,309
821.798401,317
821.916931,317
822.035461,322
822.154053,327
822.272583,331
822.391174,310
822.509583,313
822.628174,313
822.746704,315
822.865234,320
822.983765,323
823.102295,319
823.220825,314
823.339294,318
823.457825,315
823.576355,332
823.694824,318
823.813354,317
823.931885,314
824.050354,308
824.168884,320
824.287354,320
824.405823,312
824.524353,332
824.642822,325
824.761353,321
824.879822,319
824.998291,335
825.116699,305
825.235291,325
825.353699,312
825.472168,325
825.590637,326
825.709106,321
825.827576,323
825.946045,311
826.064453,322
826.182983,321
826.301392,311
826.4198,318
826.53833,325
826.656738,313
826.775208,319
826.893677,310
827.012024,319
827.130493,322
827.248962,311
827.36731,317
827.485779,320
827.604248,316
827.722595,325
827.841064,305
827.959412,321
828.077942,323
828.196289,320
828.314636,312
828.433105,321
828.551514,323
828.669861,329
828.78833,322
828.906677,320
829.025085,315
829.143433,310
829.261841,315
829.38031,321
829.498657,323
829.617004,331
829.735413,317
829.85376,319
829.972107,328
830.090515,319
830.208862,314
830.327209,310
830.445557,312
830.563904,321
830.682312,310
830.800659,320
830.919006,317
831.037354,314
831.155701,324
831.274048,318
831.392395,308
831.51062,305
831.629028,313
831.747314,322
831.865662,317
831.984009,320
832.102356,316
832.220642,313
832.338928,324
832.457275,308
832.575623,333
832.693909,336
832.812134,314
832.930481,318
833.048828,317
833.167114,317
833.2854,311
833.403687,327
833.521973,323
833.640259,313
833.758545,317
833.876831,324
833.995056,317
834.113281,333
834.231628,315
834.349915,311
834.468201,310
834.586426,314
834.704651,320
834.822998,303
834.941162,317
835.059448,312
835.177673,326
835.295959,322
835.414246,314
835.53241,311
835.650635,322
835.768921,325
835.887146,322
836.005371,318
836.123596,323
836.241821,315
836.360046,324
836.478271,313
836.596497,316
836.714722,325
836.832886,310
836.95105,319
837.069336,318
837.1875,308
837.305725,322
837.423889,322
837.542053,316
837.660339,326
837.778503,310
837.896667,318
838.014832,309
838.132996,308
838.25116,327
838.369385,324
838.487488,330
838.605713,328
838.723877,322
838.84198,318
838.960205,319
839.078308,312
839.196472,305
839.314636,319
839.4328,327
839.550964,314
839.669067,322
839.787231,322
839.905396,308
840.023499,320
840.141602,320
840.259766,320
840.377869,332
840.495972,326
840.614136,314
840.732239,304
840.850342,310
840.968445,318
841.086548,305
841.204651,321
841.322754,317
841.440918,318
841.55896,314
841.677002,318
841.795166,316
841.913208,322
842.031311,312
842.149353,318
842.267456,325
842.385498,306
842.503601,328
842.621643,324
842.739746,315
842.857788,309
842.97583,312
843.093933,332
843.211975,318
843.330017,310
843.44812,317
843.566101,326
843.684204,314
843.802246,322
843.920227,319
844.038269,330
844.156311,330
844.274292,323
844.392395,310
844.510376,319
844.628357,319
844.74646,335
844.864441,321
844.982422,328
845.100403,331
845.218384,319
845.336426,315
845.454468,313
845.572449,313
845.69043,319
845.808411,316
845.926453,320
846.044373,328
846.162354,310
846.280396,318
846.398315,319
846.516296,327
846.634216,315
846.752197,317
846.870178,330
846.988098,311
847.106079,312
847.22406,316
847.34198,319
847.4599,327
847.577881,323
847.695801,327
847.813782,324
847.931641,320
848.049561,323
848.167603,328
848.285461,330
848.403381,323
848.521362,309
848.639221,323
848.75708,315
848.875,317
848.99292,316
849.110901,298
849.22876,307
849.34668,328
849.464539,339
849.582458,323
849.700317,317
849.818176,322
849.936096,320
850.053955,313
850.171875,311
850.289673,297
850.407593,336
850.525452,310
850.643311,332
850.761169,319
850.878967,313
850.996887,324
851.114746,314
851.232544,310
851.350403,321
851.468262,319
851.58606,308
851.703979,322
851.821777,331
851.939636,312
852.057434,322
852.175232,325
852.293091,319
852.410889,324
852.528687,325
852.646545,316
852.764343,330
852.88208,326
852.999939,320
853.117676,315
853.235535,320
853.353271,319
853.471069,326
853.588928,321
853.706604,321
853.824402,321
853.9422,321
854.059998,320
854.177734,334
854.295532,322
854.413269,314
854.531006,313
854.648804,328
854.766541,317
854.884277,323
855.002014,305
855.119751,324
855.237549,319
855.355225,323
855.473022,316
855.590698,320
855.708435,314
855.826172,311
855.943848,321
856.061646,323
856.179321,313
856.296997,325
856.414795,313
856.53241,337
856.650085,315
856.767822,315
856.885559,320
857.003174,310
857.120911,319
857.238586,320
857.356201,325
857.473938,312
857.591614,326
857.709351,325
857.826965,340
857.944641,315
858.062317,303
858.179993,319
858.297668,325
858.415283,332
858.532959,316
858.650574,315
858.768188,312
858.885803,315
859.003479,315
859.121094,325
859.23877,322
859.356384,318
859.473999,313
859.591675,326
859.709229,318
859.826843,330
859.944458,314
860.062012,323
860.179626,328
860.297302,334
860.414856,315
860.532471,313
860.650024,322
860.767639,319
860.885193,325
861.002808,321
861.120361,308
861.237976,321
861.35553,321
861.473022,324
861.590698,318
861.708191,313
861.825745,315
861.943298,317
862.060852,317
862.178406,329
862.295959,316
862.413513,318
862.531006,321
862.64856,319
862.766113,314
862.883667,316
863.00116,311
863.118713,330
863.236206,321
863.353699,320
863.471252,306
863.588745,318
863.706177,314
863.82373,321
863.941162,313
864.058716,316
864.176208,320
864.29364,332
864.411194,311
864.528687,312
864.646118,320
864.763611,314
864.881042,323
864.998535,307
865.116028,323
865.233459,315
865.350891,317
865.468384,330
865.585754,323
865.703308,311
865.820679,315
865.938171,336
866.055542,307
866.173035,309
866.290466,307
866.407837,311
866.52533,316
866.6427,326
866.760071,318
866.877563,328
866.994934,325
867.112305,306
867.229736,312
867.347107,314
867.464539,325
867.58197,315
867.699341,321
867.81665,314
867.934082,316
868.051453,317
868.168823,317
868.286194,321
868.403564,322
868.520935,315
868.638306,303
868.755676,315
868.872986,318
868.990295,327
869.107727,317
869.225037,329
869.342346,309
869.459717,325
869.577026,310
869.694336,322
869.811707,326
869.929016,318
870.046326,330
870.163635,326
870.280945,312
870.398254,330
870.515564,317
870.632812,325
870.750183,318
870.867432,322
870.984741,309
871.102051,317
871.219299,322
871.336609,330
871.453918,324
871.571106,331
871.688416,324
871.805664,331
871.922852,320
872.040222,317
872.157471,330
872.274719,318
872.391968,312
872.509155,322
872.626465,316
872.743652,316
872.860962,334
872.978149,317
873.095337,328
873.212646,312
873.329834,311
873.44696,318
873.564209,317
873.681396,326
873.798645,304
873.915894,328
874.03302,313
874.150208,319
874.267456,313
874.384583,313
874.501831,329
874.618958,318
874.736145,318
874.853333,319
874.970459,328
875.087646,325
875.204834,323
875.32196,317
875.439148,316
875.556274,328
875.673401,312
875.790527,314
875.907715,323
876.024841,313
876.141968,318
876.259094,318
876.376282,313
876.493347,328
876.610474,325
876.7276,311
876.844727,319
876.961853,317
877.078918,327
877.195984,331
877.313171,327
877.430237,322
877.547302,300
877.664368,309
877.781433,323
877.898499,301
878.015625,319
878.13269,324
878.249695,324
878.366821,318
878.483887,327
878.600952,324
878.717957,313
878.834961,315
878.952087,318
879.069092,330
879.186157,327
879.303162,314
879.420227,318
879.537231,321
879.654236,316
879.77124,311
879.888306,321
880.005249,319
880.122314,318
880.239319,329
880.356323,314
880.473328,321
880.590271,315
880.707275,315
880.824341,308
880.941284,321
881.058228,308
881.175232,329
881.292236,318
881.40918,311
881.526123,313
881.643066,319
881.760071,314
881.877014,318
881.993958,309
882.11084,316
882.227783,313
882.344727,320
882.46167,320
882.578613,304
882.695618,312
882.812439,324
882.929382,320
883.046326,324
883.163208,322
883.280151,327
883.397034,307
883.513916,325
883.630798,325
883.747742,314
883.864563,321
883.981506,312
884.098389,318
884.21521,299
884.332153,332
884.448975,325
884.565796,319
884.682678,314
884.7995,314
884.916443,326
885.033264,323
885.150085,327
885.266968,315
885.383789,331
885.500671,313
885.617493,333
885.734314,319
885.851196,331
885.967896,326
886.084717,329
886.201599,329
886.318359,318
886.435181,332
886.552002,327
886.668762,324
886.785645,328
886.902344,315
887.019165,316
887.135925,314
887.252747,313
887.369446,325
887.486267,323
887.603027,318
887.719788,321
887.836548,314
887.953247,323
888.070068,325
888.186829,332
888.303528,303
888.420288,311
888.536987,326
888.653687,311
888.770447,316
888.887146,319
889.003967,316
889.120667,323
889.237305,322
889.354065,316
889.470703,313
889.587463,319
889.704163,324
889.820862,324
889.937561,313
890.054199,318
890.170837,307
890.287598,315
890.404236,313
890.520874,335
890.637634,335
890.754211,316
890.87085,323
890.987549,317
891.104187,327
891.220886,319
891.337463,324
891.454102,324
891.57074,304
891.687378,310
891.804077,313
891.920654,323
892.037231,323
892.15387,327
892.270447,309
892.387085,329
892.503723,310
892.6203,318
892.736877,303
892.853516,318
892.970032,318
893.08667,314
893.203186,306
893.319763,320
893.43634,328
893.552917,307
893.669556,325
893.786011,321
893.902588,314
894.019165,319
894.135681,322
894.252197,323
894.368835,326
894.485291,324
894.601868,321
894.718384,315
894.8349,317
894.951355,325
895.067932,320
895.184448,327
895.300964,311
895.417419,318
895.533936,308
895.650452,315
895.766907,324
895.883423,326
895.999878,311
896.116333,310
896.232849,318
896.349304,313
896.465759,303
896.582214,309
896.698669,325
896.815125,325
896.931641,313
897.048035,321
897.164551,321
897.280884,317
897.397339,318
897.513794,316
897.630249,311
897.746582,316
897.863098,310
897.979431,312
898.095886,324
898.212341,325
898.328674,311
898.445129,325
898.561462,317
898.677795,322
898.794312,313
898.910645,323
899.026978,324
899.143433,308
899.259766,319
899.37616,318
899.492493,315
899.608765,311
899.725159,317
899.841553,318
899.957947,317
900.07428,317
900.190552,312
900.306946,333
900.423157,315
900.53949,320
900.655884,319
900.772156,315
900.888489,301
901.004822,314
901.121033,321
901.237366,320
901.353699,314
901.46991,314
901.586304,325
901.702515,305
901.818787,320
901.93512,320
902.051331,322
902.167603,316
902.283875,304
902.400085,321
902.516418,308
902.632629,322
902.74884,333
902.865112,335
902.981384,318
903.097595,325
903.213867,318
903.330017,315
903.446289,314
903.5625,331
903.67865,314
903.794922,319
903.911072,328
904.027344,319
904.143494,319
904.259705,321
904.375916,312
904.492065,331
904.608215,322
904.724426,321
904.840576,319
904.956726,318
905.072876,316
905.189087,324
905.305176,315
905.421387,328
905.537537,316
905.653687,318
905.769775,329
905.885925,314
906.002014,321
906.118164,333
906.234314,305
906.350403,324
906.466492,318
906.582642,318
906.69873,318
906.814758,313
906.930908,318
907.046936,334
907.163086,318
907.279175,323
907.395264,317
907.511353,314
907.62738,313
907.743408,311
907.859497,309
907.975525,320
908.091553,306
908.207703,322
908.32373,322
908.439758,320
908.555786,313
908.671814,325
908.787842,310
908.90387,322
909.019775,316
909.135864,332
909.251892,308
909.367859,318
909.483826,318
909.599854,323
909.715881,302
909.831848,315
909.947815,327
910.063782,312
910.179749,309
910.295776,323
910.411743,323
910.527649,314
910.643616,328
910.759583,305
910.875488,332
910.991455,319
911.107361,306
911.223267,316
911.339294,329
911.4552,323
911.571106,314
911.687073,320
911.802979,313
911.918823,319
912.034729,310
912.150635,330
912.266602,307
912.382446,316
912.498352,312
912.614197,328
912.730103,314
912.846008,320
