792.44574,315
792.56488,348
792.68396,403
792.80304,372
792.92218,344
793.041199,323
793.160339,318
793.279419,335
793.398499,337
793.517578,314
793.636658,324
793.755737,334
793.874817,335
793.993896,346
794.112976,337
794.232056,322
794.351074,308
794.470215,331
794.589233,322
794.708313,320
794.827393,330
794.946411,328
795.065552,323
795.18457,330
795.303589,338
795.422668,309
795.541687,322
795.660767,330
795.779846,337
795.898865,328
796.017883,322
796.136963,320
796.255981,330
796.375061,319
796.49408,333
796.613037,328
796.732117,330
796.851135,319
796.970154,310
797.089233,323
797.208191,320
797.327271,307
797.446228,321
797.565186,334
797.684265,324
797.803223,328
797.922241,306
798.04126,325
798.160278,323
798.279297,317
798.398315,322
798.517273,324
798.636292,341
798.75531,320
798.874268,328
798.993286,308
799.112244,322
799.231323,320
799.350281,318
799.469238,317
799.588257,330
799.707153,321
799.826111,319
799.945129,306
800.064087,321
800.183044,316
800.302063,331
800.421021,318
800.539978,316
800.658936,309
800.777893,341
800.896912,326
801.015747,317
801.134705,313
801.253723,314
801.37262,327
801.491638,324
801.610535,317
801.729492,330
801.84845,319
801.967407,328
802.086243,315
802.205261,330
802.324158,312
802.443115,321
802.562073,326
802.680969,325
802.799927,315
802.918762,320
803.037659,312
803.156677,311
803.275574,321
803.39447,323
803.513428,332
803.632263,323
803.751221,329
803.870117,323
803.989014,318
804.107971,323
804.226746,318
804.345642,325
804.4646,326
804.583496,324
804.702393,312
804.821228,326
804.940125,327
805.059021,312
805.177917,315
805.296814,327
805.415649,325
805.534546,328
805.653442,314
805.772278,317
805.891113,316
806.01001,318
806.128906,321
806.247742,322
806.366577,314
806.485413,315
806.604309,320
806.723145,323
806.84198,323
806.960876,322
807.079712,323
807.198486,328
807.317383,329
807.436218,316
807.554993,325
807.673889,327
807.792725,332
807.91156,327
808.030396,322
808.14917,310
808.268005,316
808.386841,322
808.505676,334
808.624451,320
808.743286,326
808.862122,309
808.980896,319
809.099731,316
809.218506,309
809.337341,310
809.456116,320
809.57489,325
809.693726,314
809.8125,323
809.931274,331
810.050049,312
810.168884,312
810.287659,322
810.406372,330
810.525269,322
810.643982,333
810.762756,322
810.881531,318
811.000305,314
811.11908,330
811.237854,320
811.356567,325
811.475403,318
811.594116,330
811.71283,327
811.831604,304
811.950378,328
812.069153,320
812.187927,315
812.30658,322
812.425415,321
812.544128,321
812.662781,343
812.781616,327
812.900269,324
813.019043,318
813.137756,320
813.256531,310
813.375244,325
813.493896,314
813.612671,320
813.731384,329
813.850037,329
813.96875,316
814.087524,322
814.206238,326
814.324951,320
814.443604,321
814.562256,311
814.68103,307
814.799683,326
814.918335,325
815.037109,312
815.155762,314
815.274475,315
815.393188,314
815.511841,326
815.630554,321
815.749146,317
815.867859,330
815.986572,318
816.105164,309
816.223877,328
816.342529,310
816.461182,313
816.579895,311
816.698486,317
816.817139,314
816.935791,330
817.054504,316
817.173096,325
817.291748,316
817.4104,323
817.529053,317
817.647644,333
817.766235,310
817.884949,324
818.00354,314
818.122192,321
818.240845,307
818.359436,314
818.478088,314
818.59668,325
818.715271,328
818.833923,317
818.952515,316
819.071106,320
819.189758,320
819.30835,319
819.426941,301
819.545532,320
819.664124,313
819.782715,317
819.901306,305
820.019897,321
820.138489,314
820.25708,322
820.375671,322
820.494202,313
820.612732,318
820.731384,321
820.849915,322
820.968506,308
821.087097,335
821.205627,326
821.324158,310
821.442749,310
821.561279,321
821.679871,311
821.798401,325
821.916931,328
822.035461,315
822.154053,316
822.272583,308
822.391174,314
822.509583,315
822.628174,314
822.746704,303
822.865234,309
822.983765,320
823.102295,324
823.220825,313
823.339294,325
823.457825,317
823.576355,313
823.694824,318
823.813354,321
823.931885,318
824.050354,312
824.168884,306
824.287354,324
824.405823,316
824.524353,305
824.642822,307
824.761353,330
824.879822,316
824.998291,301
825.116699,319
825.235291,314
825.353699,314
825.472168,333
825.590637,300
825.709106,318
825.827576,309
825.946045,315
826.064453,313
826.182983,321
826.301392,321
826.4198,319
826.53833,324
826.656738,318
826.775208,310
826.893677,320
827.012024,304
827.130493,314
827.248962,320
827.36731,321
827.485779,326
827.604248,325
827.722595,316
827.841064,323
827.959412,317
828.077942,326
828.196289,305
828.314636,330
828.433105,316
828.551514,323
828.669861,319
828.78833,310
828.906677,332
829.025085,308
829.143433,312
829.261841,317
829.38031,312
829.498657,316
829.617004,311
829.735413,322
829.85376,306
829.972107,318
830.090515,324
830.208862,315
830.327209,304
830.445557,318
830.563904,317
830.682312,331
830.800659,321
830.919006,315
831.037354,318
831.155701,317
831.274048,331
831.392395,321
831.51062,310
831.629028,314
831.747314,304
831.865662,322
831.984009,308
832.102356,312
832.220642,308
832.338928,332
832.457275,314
832.575623,318
832.693909,309
832.812134,324
832.930481,305
833.048828,318
833.167114,311
833.2854,324
833.403687,316
833.521973,307
833.640259,313
833.758545,321
833.876831,308
833.995056,321
834.113281,321
834.231628,327
834.349915,304
834.468201,308
834.586426,319
834.704651,316
834.822998,307
834.941162,319
835.059448,310
835.177673,319
835.295959,314
835.414246,321
835.53241,322
835.650635,319
835.768921,319
835.887146,321
836.005371,318
836.123596,316
836.241821,322
836.360046,311
836.478271,316
836.596497,327
836.714722,315
836.832886,338
836.95105,330
837.069336,317
837.1875,316
837.305725,324
837.423889,321
837.542053,318
837.660339,305
837.778503,318
837.896667,314
838.014832,313
838.132996,326
838.25116,311
838.369385,315
838.487488,325
838.605713,317
838.723877,314
838.84198,321
838.960205,309
839.078308,304
839.196472,320
839.314636,322
839.4328,328
839.550964,307
839.669067,310
839.787231,317
839.905396,315
840.023499,317
840.141602,321
840.259766,303
840.377869,315
840.495972,307
840.614136,326
840.732239,305
840.850342,329
840.968445,305
841.086548,308
841.204651,311
841.322754,320
841.440918,316
841.55896,312
841.677002,299
841.795166,308
841.913208,311
842.031311,325
842.149353,320
842.267456,319
842.385498,311
842.503601,325
842.621643,302
842.739746,317
842.857788,316
842.97583,335
843.093933,313
843.211975,319
843.330017,319
843.44812,326
843.566101,323
843.684204,308
843.802246,311
843.920227,325
844.038269,316
844.156311,319
844.274292,315
844.392395,320
844.510376,310
844.628357,319
844.74646,311
844.864441,313
844.982422,317
845.100403,324
845.218384,314
845.336426,311
845.454468,314
845.572449,331
845.69043,308
845.808411,323
845.926453,307
846.044373,309
846.162354,308
846.280396,325
846.398315,311
846.516296,315
846.634216,320
846.752197,314
846.870178,323
846.988098,322
847.106079,319
847.22406,327
847.34198,314
847.4599,314
847.577881,316
847.695801,312
847.813782,311
847.931641,311
848.049561,308
848.167603,318
848.285461,316
848.403381,317
848.521362,302
848.639221,320
848.75708,313
848.875,321
848.99292,311
849.110901,324
849.22876,319
849.34668,319
849.464539,313
849.582458,309
849.700317,323
849.818176,305
849.936096,331
850.053955,318
850.171875,310
850.289673,318
850.407593,312
850.525452,317
850.643311,322
850.761169,329
850.878967,327
850.996887,308
851.114746,316
851.232544,317
851.350403,309
851.468262,319
851.58606,321
851.703979,323
851.821777,314
851.939636,305
852.057434,320
852.175232,330
852.293091,312
852.410889,327
852.528687,306
852.646545,321
852.764343,319
852.88208,312
852.999939,313
853.117676,308
853.235535,319
853.353271,318
853.471069,303
853.588928,327
853.706604,319
853.824402,315
853.9422,308
854.059998,328
854.177734,309
854.295532,321
854.413269,309
854.531006,330
854.648804,320
854.766541,307
854.884277,305
855.002014,322
855.119751,323
855.237549,314
855.355225,312
855.473022,303
855.590698,303
855.708435,324
855.826172,318
855.943848,316
856.061646,323
856.179321,315
856.296997,325
856.414795,308
856.53241,323
856.650085,320
856.767822,298
856.885559,325
857.003174,318
857.120911,322
857.238586,320
857.356201,322
857.473938,316
857.591614,322
857.709351,300
857.826965,318
857.944641,304
858.062317,312
858.179993,312
858.297668,318
858.415283,316
858.532959,321
858.650574,324
858.768188,318
858.885803,329
859.003479,323
859.121094,325
859.23877,323
859.356384,313
859.473999,325
859.591675,318
859.709229,310
859.826843,313
859.944458,306
860.062012,303
860.179626,322
860.297302,301
860.414856,319
860.532471,321
860.650024,311
860.767639,319
860.885193,320
861.002808,319
861.120361,317
861.237976,297
861.35553,316
861.473022,319
861.590698,317
861.708191,303
861.825745,309
861.943298,319
862.060852,304
862.178406,323
862.295959,330
862.413513,315
862.531006,322
862.64856,313
862.766113,315
862.883667,314
863.00116,307
863.118713,307
863.236206,325
863.353699,325
863.471252,328
863.588745,320
863.706177,329
863.82373,310
863.941162,323
864.058716,309
864.176208,315
864.29364,306
864.411194,311
864.528687,315
864.646118,308
864.763611,307
864.881042,309
864.998535,319
865.116028,315
865.233459,307
865.350891,322
865.468384,321
865.585754,325
865.703308,330
865.820679,320
865.938171,315
866.055542,306
866.173035,303
866.290466,321
866.407837,324
866.52533,313
866.6427,299
866.760071,327
866.877563,318
866.994934,319
867.112305,304
867.229736,324
867.347107,315
867.464539,326
867.58197,310
867.699341,319
867.81665,296
867.934082,303
868.051453,313
868.168823,337
868.286194,306
868.403564,320
868.520935,327
868.638306,337
868.755676,309
868.872986,309
868.990295,302
869.107727,323
869.225037,316
869.342346,315
869.459717,315
869.577026,334
869.694336,308
869.811707,326
869.929016,316
870.046326,323
870.163635,316
870.280945,323
870.398254,311
870.515564,332
870.632812,307
870.750183,310
870.867432,316
870.984741,324
871.102051,321
871.219299,320
871.336609,314
871.453918,315
871.571106,297
871.688416,323
871.805664,312
871.922852,333
872.040222,322
872.157471,321
872.274719,311
872.391968,327
872.509155,322
872.626465,316
872.743652,311
872.860962,299
872.978149,325
873.095337,312
873.212646,312
873.329834,313
873.44696,312
873.564209,327
873.681396,323
873.798645,324
873.915894,318
874.03302,325
874.150208,311
874.267456,305
874.384583,307
874.501831,325
874.618958,321
874.736145,329
874.853333,323
874.970459,320
875.087646,319
875.204834,332
875.32196,316
875.439148,313
875.556274,308
875.673401,315
875.790527,318
875.907715,317
876.024841,305
876.141968,318
876.259094,311
876.376282,318
876.493347,303
876.610474,320
876.7276,307
876.844727,323
876.961853,306
877.078918,319
877.195984,312
877.313171,321
877.430237,307
877.547302,322
877.664368,317
877.781433,327
877.898499,304
878.015625,326
878.13269,315
878.249695,311
878.366821,311
878.483887,318
878.600952,320
878.717957,314
878.834961,304
878.952087,330
879.069092,307
879.186157,325
879.303162,312
879.420227,304
879.537231,317
879.654236,326
879.77124,317
879.888306,326
880.005249,313
880.122314,307
880.239319,319
880.356323,317
880.473328,315
880.590271,325
880.707275,328
880.824341,321
880.941284,306
881.058228,309
881.175232,298
881.292236,330
881.40918,307
881.526123,320
881.643066,316
881.760071,316
881.877014,314
881.993958,315
882.11084,305
882.227783,324
882.344727,311
882.46167,326
882.578613,301
882.695618,320
882.812439,307
882.929382,319
883.046326,313
883.163208,313
883.280151,308
883.397034,316
883.513916,299
883.630798,322
883.747742,314
883.864563,322
883.981506,306
884.098389,301
884.21521,317
884.332153,305
884.448975,307
884.565796,322
884.682678,311
884.7995,317
884.916443,337
885.033264,326
885.150085,331
885.266968,325
885.383789,327
885.500671,325
885.617493,311
885.734314,303
885.851196,319
885.967896,318
886.084717,318
886.201599,315
886.318359,314
886.435181,325
886.552002,310
886.668762,309
886.785645,324
886.902344,317
887.019165,306
887.135925,326
887.252747,322
887.369446,313
887.486267,325
887.603027,314
887.719788,319
887.836548,313
887.953247,310
888.070068,310
888.186829,320
888.303528,323
888.420288,318
888.536987,324
888.653687,320
888.770447,308
888.887146,315
889.003967,319
889.120667,296
889.237305,332
889.354065,305
889.470703,323
889.587463,316
889.704163,327
889.820862,324
889.937561,319
890.054199,322
890.170837,315
890.287598,320
890.404236,320
890.520874,287
890.637634,328
890.754211,307
890.87085,320
890.987549,318
891.104187,339
891.220886,330
891.337463,315
891.454102,318
891.57074,316
891.687378,302
891.804077,313
891.920654,312
892.037231,318
892.15387,297
892.270447,321
892.387085,309
892.503723,323
892.6203,316
892.736877,316
892.853516,323
892.970032,310
893.08667,315
893.203186,315
893.319763,295
893.43634,305
893.552917,309
893.669556,323
893.786011,319
893.902588,309
894.019165,308
894.135681,318
894.252197,321
894.368835,337
894.485291,317
894.601868,320
894.718384,308
894.8349,320
894.951355,317
895.067932,314
895.184448,319
895.300964,320
895.417419,295
895.533936,322
895.650452,314
895.766907,312
895.883423,313
895.999878,315
896.116333,322
896.232849,326
896.349304,317
896.465759,312
896.582214,315
896.698669,313
896.815125,320
896.931641,319
897.048035,313
897.164551,315
897.280884,312
897.397339,310
897.513794,314
897.630249,314
897.746582,318
897.863098,335
897.979431,322
898.095886,316
898.212341,317
898.328674,319
898.445129,323
898.561462,321
898.677795,295
898.794312,322
898.910645,319
899.026978,328
899.143433,310
899.259766,314
899.37616,316
899.492493,322
899.608765,316
899.725159,315
899.841553,316
899.957947,312
900.07428,301
900.190552,325
900.306946,314
900.423157,321
900.53949,302
900.655884,313
900.772156,319
900.888489,312
901.004822,314
901.121033,323
901.237366,305
901.353699,317
901.46991,317
901.586304,314
901.702515,305
901.818787,326
901.93512,324
902.051331,319
902.167603,315
902.283875,324
902.400085,321
902.516418,322
902.632629,303
902.74884,322
902.865112,317
902.981384,313
903.097595,318
903.213867,313
903.330017,318
903.446289,326
903.5625,294
903.67865,338
903.794922,306
903.911072,323
904.027344,310
904.143494,321
904.259705,318
904.375916,324
904.492065,311
904.608215,314
904.724426,310
904.840576,309
904.956726,314
905.072876,331
905.189087,303
905.305176,325
905.421387,321
905.537537,315
905.653687,300
905.769775,320
905.885925,306
906.002014,320
906.118164,324
906.234314,315
906.350403,317
906.466492,323
906.582642,309
906.69873,319
906.814758,312
906.930908,317
907.046936,315
907.163086,312
907.279175,306
907.395264,326
907.511353,323
907.62738,316
907.743408,319
907.859497,325
907.975525,310
908.091553,330
908.207703,318
908.32373,322
908.439758,315
908.555786,316
908.671814,312
908.787842,327
908.90387,316
909.019775,310
909.135864,306
909.251892,314
909.367859,311
909.483826,315
909.599854,309
909.715881,323
909.831848,309
909.947815,302
910.063782,323
910.179749,317
910.295776,318
910.411743,320
910.527649,305
910.643616,333
910.759583,322
910.875488,322
910.991455,326
911.107361,315
911.223267,320
911.339294,332
911.4552,322
911.571106,316
911.687073,313
911.802979,310
911.918823,315
912.034729,323
912.150635,309
912.266602,318
912.382446,326
912.498352,318
912.614197,321
912.730103,319
912.846008,304
792.44574,313
792.56488,358
792.68396,386
792.80304,376
792.92218,336
793.041199,303
793.160339,317
793.279419,333
793.398499,332
793.517578,314
793.636658,307
793.755737,324
793.874817,338
793.993896,344
794.112976,318
794.232056,322
794.351074,328
794.470215,327
794.589233,326
794.708313,328
794.827393,313
794.946411,319
795.065552,342
795.18457,322
795.303589,331
795.422668,328
795.541687,318
795.660767,333
795.779846,319
795.898865,330
796.017883,323
796.136963,320
796.255981,319
796.375061,319
796.49408,324
796.613037,327
796.732117,315
796.851135,320
796.970154,319
797.089233,324
797.208191,319
797.327271,321
797.446228,333
797.565186,327
797.684265,325
797.803223,320
797.922241,317
798.04126,318
798.160278,313
798.279297,330
798.398315,317
798.517273,321
798.636292,320
798.75531,325
798.874268,334
798.993286,312
799.112244,325
799.231323,339
799.350281,328
799.469238,324
799.588257,320
799.707153,312
799.826111,323
799.945129,311
800.064087,320
800.183044,316
800.302063,328
800.421021,315
800.539978,330
800.658936,306
800.777893,331
800.896912,307
801.015747,323
801.134705,324
801.253723,318
801.37262,315
801.491638,318
801.610535,314
801.729492,323
801.84845,318
801.967407,311
802.086243,332
802.205261,317
802.324158,325
802.443115,324
802.562073,327
802.680969,333
802.799927,319
802.918762,327
803.037659,327
803.156677,310
803.275574,326
803.39447,331
803.513428,307
803.632263,319
803.751221,317
803.870117,315
803.989014,310
804.107971,319
804.226746,320
804.345642,319
804.4646,323
804.583496,323
804.702393,323
804.821228,313
804.940125,317
805.059021,317
805.177917,321
805.296814,328
805.415649,309
805.534546,301
805.653442,319
805.772278,325
805.891113,322
806.01001,313
806.128906,314
806.247742,332
806.366577,318
806.485413,313
806.604309,321
806.723145,317
806.84198,316
806.960876,327
807.079712,321
807.198486,322
807.317383,306
807.436218,316
807.554993,317
807.673889,319
807.792725,317
807.91156,322
808.030396,318
808.14917,312
808.268005,312
808.386841,317
808.505676,321
808.624451,326
808.743286,323
808.862122,320
808.980896,313
809.099731,319
809.218506,322
809.337341,319
809.456116,333
809.57489,316
809.693726,308
809.8125,319
809.931274,324
810.050049,324
810.168884,321
810.287659,314
810.406372,320
810.525269,325
810.643982,324
810.762756,325
810.881531,323
811.000305,319
811.11908,324
811.237854,307
811.356567,331
811.475403,307
811.594116,314
811.71283,317
811.831604,325
811.950378,309
812.069153,327
812.187927,306
812.30658,334
812.425415,320
812.544128,324
812.662781,327
812.781616,310
812.900269,312
813.019043,320
813.137756,314
813.256531,321
813.375244,324
813.493896,326
813.612671,305
813.731384,328
813.850037,317
813.96875,328
814.087524,320
814.206238,315
814.324951,322
814.443604,327
814.562256,308
814.68103,312
814.799683,316
814.918335,324
815.037109,309
815.155762,324
815.274475,316
815.393188,311
815.511841,330
815.630554,316
815.749146,318
815.867859,318
815.986572,327
816.105164,314
816.223877,312
816.342529,306
816.461182,314
816.579895,321
816.698486,315
816.817139,315
816.935791,311
817.054504,316
817.173096,330
817.291748,322
817.4104,317
817.529053,318
817.647644,306
817.766235,323
817.884949,305
818.00354,322
818.122192,315
818.240845,317
818.359436,312
818.478088,309
818.59668,326
818.715271,309
818.833923,313
818.952515,310
819.071106,307
819.189758,314
819.30835,320
819.426941,317
819.545532,319
819.664124,315
819.782715,309
819.901306,314
820.019897,318
820.138489,313
820.25708,298
820.375671,326
820.494202,318
820.612732,327
820.731384,311
820.849915,306
820.968506,314
821.087097,315
821.205627,310
821.324158,327
821.442749,333
821.561279,316
821.679871,307
821.798401,331
821.916931,315
822.035461,308
822.154053,319
822.272583,331
822.391174,314
822.509583,343
822.628174,326
822.746704,329
822.865234,321
822.983765,306
823.102295,317
823.220825,312
823.339294,319
823.457825,306
823.576355,323
823.694824,311
823.813354,310
823.931885,323
824.050354,326
824.168884,309
824.287354,327
824.405823,312
824.524353,304
824.642822,323
824.761353,324
824.879822,316
824.998291,308
825.116699,301
825.235291,313
825.353699,325
825.472168,318
825.590637,312
825.709106,315
825.827576,313
825.946045,310
826.064453,315
826.182983,315
826.301392,311
826.4198,329
826.53833,316
826.656738,318
826.775208,322
826.893677,312
827.012024,323
827.130493,320
827.248962,316
827.36731,314
827.485779,309
827.604248,311
827.722595,320
827.841064,313
827.959412,320
828.077942,326
828.196289,321
828.314636,320
828.433105,325
828.551514,321
828.669861,309
828.78833,322
828.906677,320
829.025085,312
829.143433,311
829.261841,312
829.38031,318
829.498657,316
829.617004,318
829.735413,310
829.85376,310
829.972107,310
830.090515,321
830.208862,303
830.327209,320
830.445557,315
830.563904,315
830.682312,315
830.800659,314
830.919006,309
831.037354,315
831.155701,327
831.274048,311
831.392395,315
831.51062,313
831.629028,307
831.747314,311
831.865662,319
831.984009,318
832.102356,312
832.220642,310
832.338928,314
832.457275,313
832.575623,314
832.693909,309
832.812134,304
832.930481,323
833.048828,311
833.167114,312
833.2854,316
833.403687,306
833.521973,321
833.640259,321
833.758545,323
833.876831,306
833.995056,318
834.113281,325
834.231628,314
834.349915,319
834.468201,312
834.586426,315
834.704651,317
834.822998,321
834.941162,321
835.059448,321
835.177673,317
835.295959,311
835.414246,306
835.53241,317
835.650635,315
835.768921,316
835.887146,314
836.005371,300
836.123596,331
836.241821,319
836.360046,315
836.478271,319
836.596497,323
836.714722,326
836.832886,322
836.95105,309
837.069336,327
837.1875,331
837.305725,311
837.423889,315
837.542053,315
837.660339,316
837.778503,314
837.896667,317
838.014832,324
838.132996,310
838.25116,326
838.369385,320
838.487488,333
838.605713,336
838.723877,305
838.84198,316
838.960205,328
839.078308,316
839.196472,311
839.314636,303
839.4328,324
839.550964,307
839.669067,325
839.787231,318
839.905396,317
840.023499,315
840.141602,312
840.259766,317
840.377869,317
840.495972,316
840.614136,310
840.732239,316
840.850342,314
840.968445,306
841.086548,328
841.204651,321
841.322754,316
841.440918,310
841.55896,325
841.677002,309
841.795166,317
841.913208,313
842.031311,312
842.149353,312
842.267456,306
842.385498,317
842.503601,307
842.621643,310
842.739746,321
842.857788,308
842.97583,316
843.093933,305
843.211975,317
843.330017,308
843.44812,324
843.566101,330
843.684204,307
843.802246,313
843.920227,327
844.038269,309
844.156311,320
844.274292,319
844.392395,334
844.510376,316
844.628357,329
844.74646,319
844.864441,299
844.982422,333
845.100403,307
845.218384,311
845.336426,323
845.454468,314
845.572449,321
845.69043,303
845.808411,322
845.926453,314
846.044373,320
846.162354,311
846.280396,319
846.398315,317
846.516296,306
846.634216,319
846.752197,311
846.870178,319
846.988098,312
847.106079,314
847.22406,315
847.34198,304
847.4599,322
847.577881,327
847.695801,313
847.813782,319
847.931641,329
848.049561,313
848.167603,320
848.285461,313
848.403381,316
848.521362,320
848.639221,319
848.75708,310
848.875,319
848.99292,301
849.110901,322
849.22876,316
849.34668,303
849.464539,318
849.582458,299
849.700317,307
849.818176,318
849.936096,307
850.053955,313
850.171875,307
850.289673,313
850.407593,316
850.525452,299
850.643311,319
850.761169,316
850.878967,315
850.996887,323
851.114746,307
851.232544,317
851.350403,330
851.468262,321
851.58606,317
851.703979,313
851.821777,310
851.939636,315
852.057434,319
852.175232,326
852.293091,309
852.410889,311
852.528687,314
852.646545,318
852.764343,303
852.88208,315
852.999939,317
853.117676,323
853.235535,337
853.353271,307
853.471069,319
853.588928,331
853.706604,322
853.824402,320
853.9422,314
854.059998,320
854.177734,315
854.295532,320
854.413269,321
854.531006,321
854.648804,313
854.766541,322
854.884277,323
855.002014,324
855.119751,298
855.237549,303
855.355225,311
855.473022,319
855.590698,305
855.708435,310
855.826172,322
855.943848,326
856.061646,319
856.179321,314
856.296997,314
856.414795,307
856.53241,308
856.650085,306
856.767822,321
856.885559,320
857.003174,300
857.120911,321
857.238586,311
857.356201,322
857.473938,322
857.591614,313
857.709351,309
857.826965,326
857.944641,313
858.062317,316
858.179993,322
858.297668,312
858.415283,317
858.532959,314
858.650574,314
858.768188,304
858.885803,304
859.003479,327
859.121094,324
859.23877,305
859.356384,319
859.473999,318
859.591675,317
859.709229,319
859.826843,314
859.944458,286
860.062012,313
860.179626,317
860.297302,316
860.414856,318
860.532471,314
860.650024,329
860.767639,311
860.885193,319
861.002808,301
861.120361,324
861.237976,317
861.35553,290
861.473022,327
861.590698,311
861.708191,320
861.825745,309
861.943298,309
862.060852,322
862.178406,315
862.295959,304
862.413513,309
862.531006,311
862.64856,323
862.766113,296
862.883667,312
863.00116,312
863.118713,323
863.236206,310
863.353699,310
863.471252,314
863.588745,323
863.706177,307
863.82373,316
863.941162,310
864.058716,321
864.176208,323
864.29364,310
864.411194,327
864.528687,307
864.646118,317
864.763611,326
864.881042,324
864.998535,312
865.116028,311
865.233459,312
865.350891,312
865.468384,308
865.585754,325
865.703308,306
865.820679,310
865.938171,321
866.055542,306
866.173035,333
866.290466,319
866.407837,303
866.52533,313
866.6427,318
866.760071,317
866.877563,329
866.994934,299
867.112305,318
867.229736,311
867.347107,330
867.464539,320
867.58197,322
867.699341,319
867.81665,309
867.934082,319
868.051453,313
868.168823,308
868.286194,308
868.403564,305
868.520935,311
868.638306,315
868.755676,311
868.872986,321
868.990295,320
869.107727,320
869.225037,322
869.342346,306
869.459717,308
869.577026,307
869.694336,319
869.811707,327
869.929016,306
870.046326,313
870.163635,317
870.280945,316
870.398254,314
870.515564,315
870.632812,313
870.750183,303
870.867432,333
870.984741,322
871.102051,318
871.219299,329
871.336609,315
871.453918,315
871.571106,329
871.688416,324
871.805664,324
871.922852,321
872.040222,319
872.157471,320
872.274719,313
872.391968,319
872.509155,315
872.626465,309
872.743652,321
872.860962,315
872.978149,319
873.095337,320
873.212646,311
873.329834,313
873.44696,325
873.564209,305
873.681396,320
873.798645,340
873.915894,303
874.03302,314
874.150208,315
874.267456,310
874.384583,315
874.501831,313
874.618958,322
874.736145,317
874.853333,320
874.970459,327
875.087646,322
875.204834,305
875.32196,323
875.439148,330
875.556274,319
875.673401,317
875.790527,316
875.907715,312
876.024841,322
876.141968,306
876.259094,329
876.376282,317
876.493347,323
876.610474,312
876.7276,305
876.844727,324
876.961853,313
877.078918,306
877.195984,321
877.313171,312
877.430237,311
877.547302,302
877.664368,324
877.781433,316
877.898499,314
878.015625,323
878.13269,313
878.249695,326
878.366821,308
878.483887,322
878.600952,315
878.717957,312
878.834961,323
878.952087,313
879.069092,322
879.186157,314
879.303162,332
879.420227,317
879.537231,304
879.654236,324
879.77124,315
879.888306,318
880.005249,313
880.122314,310
880.239319,314
880.356323,296
880.473328,310
880.590271,314
880.707275,321
880.824341,311
880.941284,308
881.058228,301
881.175232,322
881.292236,315
881.40918,311
881.526123,321
881.643066,309
881.760071,314
881.877014,327
881.993958,319
882.11084,332
882.227783,316
882.344727,325
882.46167,316
882.578613,317
882.695618,306
882.812439,311
882.929382,327
883.046326,326
883.163208,322
883.280151,322
883.397034,320
883.513916,321
883.630798,307
883.747742,321
883.864563,318
883.981506,304
884.098389,314
884.21521,316
884.332153,307
884.448975,323
884.565796,314
884.682678,318
884.7995,303
884.916443,320
885.033264,318
885.150085,317
885.266968,319
885.383789,316
885.500671,317
885.617493,299
885.734314,313
885.851196,322
885.967896,322
886.084717,317
886.201599,314
886.318359,312
886.435181,306
886.552002,320
886.668762,325
886.785645,313
886.902344,314
887.019165,316
887.135925,312
887.252747,319
887.369446,323
887.486267,317
887.603027,305
887.719788,314
887.836548,310
887.953247,305
888.070068,306
888.186829,329
888.303528,308
888.420288,317
888.536987,323
888.653687,314
888.770447,321
888.887146,316
889.003967,316
889.120667,309
889.237305,317
889.354065,318
889.470703,304
889.587463,317
889.704163,310
889.820862,311
889.937561,316
890.054199,311
890.170837,302
890.287598,319
890.404236,307
890.520874,320
890.637634,314
890.754211,312
890.87085,314
890.987549,309
891.104187,316
891.220886,321
891.337463,310
891.454102,320
891.57074,321
891.687378,314
891.804077,320
891.920654,328
892.037231,314
892.15387,320
892.270447,318
892.387085,311
892.503723,317
892.6203,322
892.736877,303
892.853516,316
892.970032,321
893.08667,307
893.203186,311
893.319763,310
893.43634,312
893.552917,309
893.669556,317
893.786011,315
893.902588,306
894.019165,301
894.135681,314
894.252197,308
894.368835,306
894.485291,318
894.601868,308
894.718384,302
894.8349,319
894.951355,330
895.067932,302
895.184448,312
895.300964,321
895.417419,321
895.533936,317
895.650452,323
895.766907,305
895.883423,305
895.999878,318
896.116333,321
896.232849,316
896.349304,319
896.465759,309
896.582214,315
896.698669,322
896.815125,314
896.931641,318
897.048035,309
897.164551,305
897.280884,305
897.397339,317
897.513794,326
897.630249,303
897.746582,312
897.863098,308
897.979431,319
898.095886,319
898.212341,309
898.328674,314
898.445129,313
898.561462,311
898.677795,325
898.794312,305
898.910645,322
899.026978,314
899.143433,330
899.259766,304
899.37616,299
899.492493,315
899.608765,315
899.725159,325
899.841553,307
899.957947,327
900.07428,322
900.190552,307
900.306946,309
900.423157,322
900.53949,321
900.655884,316
900.772156,337
900.888489,315
901.004822,315
901.121033,310
901.237366,313
901.353699,316
901.46991,307
901.586304,312
901.702515,318
901.818787,324
901.93512,323
902.051331,308
902.167603,321
902.283875,331
902.400085,326
902.516418,324
902.632629,312
902.74884,314
902.865112,327
902.981384,317
903.097595,322
903.213867,316
903.330017,325
903.446289,310
903.5625,312
903.67865,308
903.794922,318
903.911072,312
904.027344,311
904.143494,318
904.259705,330
904.375916,311
904.492065,323
904.608215,315
904.724426,328
904.840576,308
904.956726,307
905.072876,335
905.189087,312
905.305176,314
905.421387,320
905.537537,322
905.653687,315
905.769775,317
905.885925,326
906.002014,307
906.118164,337
906.234314,308
906.350403,326
906.466492,326
906.582642,316
906.69873,315
906.814758,312
906.930908,312
907.046936,323
907.163086,323
907.279175,323
907.395264,310
907.511353,317
907.62738,307
907.743408,319
907.859497,322
907.975525,313
908.091553,332
908.207703,323
908.32373,318
908.439758,302
908.555786,332
908.671814,311
908.787842,312
908.90387,317
909.019775,314
909.135864,308
909.251892,312
909.367859,317
909.483826,302
909.599854,319
909.715881,316
909.831848,307
909.947815,311
910.063782,325
910.179749,316
910.295776,314
910.411743,317
910.527649,327
910.643616,317
910.759583,314
910.875488,326
910.991455,317
911.107361,316
911.223267,331
911.339294,326
911.4552,327
911.571106,319
911.687073,318
911.802979,317
911.918823,306
912.034729,306
912.150635,317
912.266602,312
912.382446,307
912.498352,324
912.614197,305
912.730103,318
912.846008,314
792.44574,314
792.56488,350
792.68396,380
792.80304,376
792.92218,345
793.041199,315
793.160339,312
793.279419,330
793.398499,338
793.517578,313
793.636658,318
793.755737,313
793.874817,350
793.993896,345
794.112976,329
794.232056,324
794.351074,315
794.470215,320
794.589233,322
794.708313,333
794.827393,320
794.946411,315
795.065552,348
795.18457,332
795.303589,326
795.422668,321
795.541687,325
795.660767,329
795.779846,330
795.898865,312
796.017883,329
796.136963,328
796.255981,331
796.375061,321
796.49408,326
796.613037,322
796.732117,326
796.851135,316
796.970154,339
797.089233,328
797.208191,313
797.327271,317
797.446228,319
797.565186,327
797.684265,334
797.803223,327
797.922241,323
798.04126,322
798.160278,325
798.279297,322
798.398315,309
798.517273,322
798.636292,332
798.75531,319
798.874268,314
798.993286,327
799.112244,324
799.231323,325
799.350281,320
799.469238,321
799.588257,319
799.707153,325
799.826111,322
799.945129,330
800.064087,316
800.183044,328
800.302063,329
800.421021,313
800.539978,324
800.658936,315
800.777893,318
800.896912,315
801.015747,334
801.134705,331
801.253723,330
801.37262,306
801.491638,319
801.610535,326
801.729492,332
801.84845,319
801.967407,306
802.086243,322
802.205261,316
802.324158,313
802.443115,326
802.562073,325
802.680969,309
802.799927,311
802.918762,314
803.037659,334
803.156677,320
803.275574,326
803.39447,326
803.513428,322
803.632263,326
803.751221,317
803.870117,326
803.989014,318
804.107971,321
804.226746,314
804.345642,326
804.4646,313
804.583496,318
804.702393,316
804.821228,319
804.940125,333
805.059021,317
805.177917,325
805.296814,321
805.415649,330
805.534546,319
805.653442,317
805.772278,316
805.891113,317
806.01001,334
806.128906,317
806.247742,320
806.366577,316
806.485413,319
806.604309,317
806.723145,316
806.84198,319
806.960876,335
807.079712,335
807.198486,321
807.317383,312
807.436218,313
807.554993,311
807.673889,320
807.792725,311
807.91156,315
808.030396,320
808.14917,332
808.268005,320
808.386841,317
808.505676,314
808.624451,316
808.743286,329
808.862122,318
808.980896,317
809.099731,315
809.218506,308
809.337341,316
809.456116,329
809.57489,326
809.693726,305
809.8125,324
809.931274,309
810.050049,328
810.168884,329
810.287659,327
810.406372,312
810.525269,327
810.643982,314
810.762756,317
810.881531,313
811.000305,319
811.11908,318
811.237854,325
811.356567,337
811.475403,334
811.594116,323
811.71283,309
811.831604,322
811.950378,326
812.069153,309
812.187927,342
812.30658,305
812.425415,313
812.544128,301
812.662781,319
812.781616,323
812.900269,311
813.019043,326
813.137756,324
813.256531,326
813.375244,316
813.493896,320
813.612671,322
813.731384,312
813.850037,302
813.96875,303
814.087524,312
814.206238,325
814.324951,311
814.443604,301
814.562256,330
814.68103,310
814.799683,318
814.918335,314
815.037109,307
815.155762,300
815.274475,315
815.393188,304
815.511841,315
815.630554,315
815.749146,315
815.867859,309
815.986572,332
816.105164,320
816.223877,318
816.342529,305
816.461182,320
816.579895,316
816.698486,314
816.817139,321
816.935791,324
817.054504,308
817.173096,339
817.291748,305
817.4104,331
817.529053,315
817.647644,320
817.766235,323
817.884949,319
818.00354,321
818.122192,309
818.240845,325
818.359436,316
818.478088,325
818.59668,327
818.715271,305
818.833923,316
818.952515,326
819.071106,316
819.189758,303
819.30835,322
819.426941,312
819.545532,326
819.664124,314
819.782715,323
819.901306,319
820.019897,320
820.138489,319
820.25708,309
820.375671,313
820.494202,319
820.612732,297
820.731384,320
820.849915,316
820.968506,331
821.087097,307
821.205627,299
821.324158,317
821.442749,339
821.561279,325
821.679871,318
821.798401,323
821.916931,309
822.035461,304
822.154053,305
822.272583,320
822.391174,311
822.509583,322
822.628174,331
822.746704,299
822.865234,319
822.983765,308
823.102295,333
823.220825,309
823.339294,327
823.457825,310
823.576355,305
823.694824,327
823.813354,304
823.931885,313
824.050354,320
824.168884,324
824.287354,315
824.405823,314
824.524353,317
824.642822,316
824.761353,311
824.879822,318
824.998291,315
825.116699,321
825.235291,320
825.353699,322
825.472168,323
825.590637,323
825.709106,312
825.827576,304
825.946045,322
826.064453,321
826.182983,310
826.301392,305
826.4198,324
826.53833,318
826.656738,316
826.775208,323
826.893677,322
827.012024,305
827.130493,313
827.248962,309
827.36731,331
827.485779,318
827.604248,315
827.722595,314
827.841064,321
827.959412,319
828.077942,315
828.196289,309
828.314636,309
828.433105,310
828.551514,316
828.669861,320
828.78833,330
828.906677,300
829.025085,321
829.143433,315
829.261841,315
829.38031,326
829.498657,331
829.617004,316
829.735413,316
829.85376,311
829.972107,321
830.090515,317
830.208862,316
830.327209,311
830.445557,319
830.563904,314
830.682312,324
830.800659,311
830.919006,320
831.037354,323
831.155701,311
831.274048,318
831.392395,323
831.51062,312
831.629028,313
831.747314,316
831.865662,313
831.984009,322
832.102356,320
832.220642,320
832.338928,320
832.457275,313
832.575623,313
832.693909,313
832.812134,314
832.930481,307
833.048828,317
833.167114,316
833.2854,310
833.403687,308
833.521973,315
833.640259,330
833.758545,317
833.876831,313
833.995056,326
834.113281,300
834.231628,312
834.349915,305
834.468201,315
834.586426,315
834.704651,327
834.822998,323
834.941162,326
835.059448,316
835.177673,315
835.295959,315
835.414246,324
835.53241,309
835.650635,319
835.768921,318
835.887146,306
836.005371,317
836.123596,324
836.241821,307
836.360046,316
836.478271,313
836.596497,321
836.714722,316
836.832886,322
836.95105,305
837.069336,320
837.1875,313
837.305725,322
837.423889,329
837.542053,312
837.660339,312
837.778503,304
837.896667,330
838.014832,326
838.132996,316
838.25116,321
838.369385,305
838.487488,334
838.605713,321
838.723877,313
838.84198,313
838.960205,312
839.078308,306
839.196472,313
839.314636,310
839.4328,314
839.550964,324
839.669067,302
839.787231,310
839.905396,316
840.023499,311
840.141602,316
840.259766,321
840.377869,318
840.495972,315
840.614136,315
840.732239,307
840.850342,310
840.968445,306
841.086548,311
841.204651,308
841.322754,313
841.440918,313
841.55896,334
841.677002,314
841.795166,313
841.913208,328
842.031311,329
842.149353,315
842.267456,307
842.385498,324
842.503601,307
842.621643,316
842.739746,311
842.857788,313
842.97583,313
843.093933,315
843.211975,316
843.330017,314
843.44812,311
843.566101,316
843.684204,323
843.802246,310
843.920227,327
844.038269,307
844.156311,334
844.274292,315
844.392395,318
844.510376,321
844.628357,304
844.74646,308
844.864441,322
844.982422,322
845.100403,312
845.218384,303
845.336426,325
845.454468,321
845.572449,320
845.69043,309
845.808411,320
845.926453,303
846.044373,300
846.162354,325
846.280396,327
846.398315,318
846.516296,313
846.634216,310
846.752197,308
846.870178,307
846.988098,313
847.106079,320
847.22406,308
847.34198,328
847.4599,321
847.577881,310
847.695801,331
847.813782,296
847.931641,334
848.049561,311
848.167603,318
848.285461,303
848.403381,320
848.521362,303
848.639221,329
848.75708,308
848.875,324
848.99292,316
849.110901,327
849.22876,320
849.34668,326
849.464539,306
849.582458,322
849.700317,310
849.818176,312
849.936096,318
850.053955,306
850.171875,316
850.289673,312
850.407593,311
850.525452,302
850.643311,304
850.761169,317
850.878967,319
850.996887,323
851.114746,311
851.232544,312
851.350403,316
851.468262,326
851.58606,316
851.703979,314
851.821777,308
851.939636,309
852.057434,327
852.175232,299
852.293091,313
852.410889,314
852.528687,329
852.646545,324
852.764343,312
852.88208,316
852.999939,317
853.117676,322
853.235535,321
853.353271,308
853.471069,308
853.588928,318
853.706604,311
853.824402,324
853.9422,318
854.059998,329
854.177734,296
854.295532,318
854.413269,300
854.531006,316
854.648804,304
854.766541,323
854.884277,319
855.002014,317
855.119751,322
855.237549,322
855.355225,312
855.473022,309
855.590698,320
855.708435,315
855.826172,302
855.943848,322
856.061646,313
856.179321,327
856.296997,324
856.414795,309
856.53241,298
856.650085,312
856.767822,321
856.885559,314
857.003174,312
857.120911,319
857.238586,313
857.356201,318
857.473938,302
857.591614,312
857.709351,322
857.826965,315
857.944641,316
858.062317,306
858.179993,320
858.297668,323
858.415283,316
858.532959,318
858.650574,306
858.768188,303
858.885803,328
859.003479,316
859.121094,316
859.23877,306
859.356384,308
859.473999,317
859.591675,305
859.709229,327
859.826843,306
859.944458,321
860.062012,297
860.179626,314
860.297302,304
860.414856,300
860.532471,316
860.650024,324
860.767639,300
860.885193,320
861.002808,316
861.120361,302
861.237976,303
861.35553,314
861.473022,314
861.590698,311
861.708191,313
861.825745,320
861.943298,318
862.060852,315
862.178406,313
862.295959,314
862.413513,318
862.531006,315
862.64856,310
862.766113,312
862.883667,317
863.00116,319
863.118713,318
863.236206,320
863.353699,325
863.471252,312
863.588745,300
863.706177,317
863.82373,324
863.941162,325
864.058716,321
864.176208,302
864.29364,319
864.411194,328
864.528687,307
864.646118,306
864.763611,330
864.881042,325
864.998535,317
865.116028,319
865.233459,312
865.350891,320
865.468384,309
865.585754,312
865.703308,301
865.820679,312
865.938171,325
866.055542,307
866.173035,309
866.290466,321
866.407837,320
866.52533,332
866.6427,306
866.760071,332
866.877563,323
866.994934,319
867.112305,311
867.229736,315
867.347107,310
867.464539,321
867.58197,301
867.699341,324
867.81665,309
867.934082,317
868.051453,317
868.168823,310
868.286194,319
868.403564,306
868.520935,314
868.638306,315
868.755676,307
868.872986,323
868.990295,322
869.107727,315
869.225037,303
869.342346,326
869.459717,327
869.577026,311
869.694336,316
869.811707,320
869.929016,311
870.046326,308
870.163635,310
870.280945,316
870.398254,314
870.515564,312
870.632812,312
870.750183,325
870.867432,328
870.984741,308
871.102051,310
871.219299,320
871.336609,320
871.453918,321
871.571106,317
871.688416,318
871.805664,331
871.922852,319
872.040222,321
872.157471,322
872.274719,308
872.391968,315
872.509155,311
872.626465,317
872.743652,310
872.860962,312
872.978149,309
873.095337,312
873.212646,315
873.329834,322
873.44696,317
873.564209,316
873.681396,317
873.798645,332
873.915894,318
874.03302,307
874.150208,321
874.267456,330
874.384583,321
874.501831,311
874.618958,307
874.736145,321
874.853333,322
874.970459,323
875.087646,305
875.204834,322
875.32196,313
875.439148,320
875.556274,319
875.673401,318
875.790527,311
875.907715,329
876.024841,307
876.141968,307
876.259094,323
876.376282,317
876.493347,310
876.610474,307
876.7276,314
876.844727,320
876.961853,311
877.078918,332
877.195984,308
877.313171,323
877.430237,316
877.547302,310
877.664368,319
877.781433,310
877.898499,307
878.015625,314
878.13269,303
878.249695,315
878.366821,308
878.483887,322
878.600952,307
878.717957,321
878.834961,311
878.952087,317
879.069092,307
879.186157,320
879.303162,307
879.420227,304
879.537231,293
879.654236,313
879.77124,310
879.888306,308
880.005249,306
880.122314,315
880.239319,319
880.356323,332
880.473328,295
880.590271,308
880.707275,317
880.824341,316
880.941284,309
881.058228,322
881.175232,310
881.292236,315
881.40918,305
881.526123,320
881.643066,311
881.760071,322
881.877014,316
881.993958,331
882.11084,315
882.227783,311
882.344727,312
882.46167,314
882.578613,321
882.695618,326
882.812439,312
882.929382,315
883.046326,303
883.163208,323
883.280151,313
883.397034,330
883.513916,313
883.630798,331
883.747742,308
883.864563,305
883.981506,322
884.098389,328
884.21521,316
884.332153,318
884.448975,329
884.565796,324
884.682678,304
884.7995,315
884.916443,320
885.033264,333
885.150085,313
885.266968,311
885.383789,302
885.500671,318
885.617493,318
885.734314,315
885.851196,304
885.967896,307
886.084717,302
886.201599,311
886.318359,311
886.435181,339
886.552002,314
886.668762,327
886.785645,305
886.902344,329
887.019165,309
887.135925,324
887.252747,318
887.369446,322
887.486267,298
887.603027,318
887.719788,306
887.836548,319
887.953247,319
888.070068,331
888.186829,319
888.303528,322
888.420288,320
888.536987,317
888.653687,316
888.770447,329
888.887146,306
889.003967,323
889.120667,313
889.237305,328
889.354065,316
889.470703,317
889.587463,313
889.704163,312
889.820862,319
889.937561,301
890.054199,312
890.170837,309
890.287598,311
890.404236,319
890.520874,323
890.637634,315
890.754211,318
890.87085,310
890.987549,310
891.104187,325
891.220886,307
891.337463,320
891.454102,320
891.57074,309
891.687378,316
891.804077,327
891.920654,322
892.037231,326
892.15387,312
892.270447,306
892.387085,313
892.503723,320
892.6203,311
892.736877,321
892.853516,323
892.970032,315
893.08667,325
893.203186,312
893.319763,323
893.43634,327
893.552917,307
893.669556,328
893.786011,320
893.902588,312
894.019165,306
894.135681,316
894.252197,314
894.368835,313
894.485291,309
894.601868,327
894.718384,313
894.8349,328
894.951355,310
895.067932,314
895.184448,310
895.300964,305
895.417419,329
895.533936,324
895.650452,309
895.766907,329
895.883423,311
895.999878,322
896.116333,315
896.232849,322
896.349304,319
896.465759,326
896.582214,319
896.698669,314
896.815125,318
896.931641,320
897.048035,300
897.164551,327
897.280884,317
897.397339,313
897.513794,310
897.630249,314
897.746582,316
897.863098,325
897.979431,311
898.095886,300
898.212341,315
898.328674,318
898.445129,318
898.561462,314
898.677795,311
898.794312,323
898.910645,314
899.026978,323
899.143433,314
899.259766,306
899.37616,315
899.492493,328
899.608765,307
899.725159,326
899.841553,318
899.957947,309
900.07428,317
900.190552,325
900.306946,308
900.423157,322
900.53949,314
900.655884,323
900.772156,311
900.888489,320
901.004822,327
901.121033,316
901.237366,316
901.353699,336
901.46991,310
901.586304,315
901.702515,299
901.818787,333
901.93512,329
902.051331,306
902.167603,306
902.283875,321
902.400085,313
902.516418,317
902.632629,307
902.74884,317
902.865112,316
902.981384,319
903.097595,311
903.213867,328
903.330017,315
903.446289,318
903.5625,311
903.67865,329
903.794922,309
903.911072,326
904.027344,328
904.143494,317
904.259705,309
904.375916,318
904.492065,307
904.608215,332
904.724426,307
904.840576,323
904.956726,318
905.072876,326
905.189087,311
905.305176,322
905.421387,308
905.537537,308
905.653687,328
905.769775,318
905.885925,325
906.002014,322
906.118164,302
906.234314,324
906.350403,320
906.466492,314
906.582642,324
906.69873,319
906.814758,311
906.930908,328
907.046936,307
907.163086,322
907.279175,315
907.395264,318
907.511353,304
907.62738,324
907.743408,328
907.859497,328
907.975525,307
908.091553,325
908.207703,317
908.32373,317
908.439758,320
908.555786,311
908.671814,321
908.787842,304
908.90387,317
909.019775,306
909.135864,325
909.251892,317
909.367859,319
909.483826,328
909.599854,315
909.715881,315
909.831848,311
909.947815,323
910.063782,327
910.179749,317
910.295776,316
910.411743,316
910.527649,309
910.643616,316
910.759583,320
910.875488,312
910.991455,316
911.107361,314
911.223267,319
911.339294,318
911.4552,305
911.571106,316
911.687073,322
911.802979,314
911.918823,313
912.034729,314
912.150635,305
912.266602,311
912.382446,333
912.498352,339
912.614197,302
912.730103,315
912.846008,303
