792.44574,329
792.56488,363
792.68396,408
792.80304,386
792.92218,355
793.041199,350
793.160339,324
793.279419,354
793.398499,324
793.517578,330
793.636658,330
793.755737,337
793.874817,347
793.993896,353
794.112976,319
794.232056,333
794.351074,337
794.470215,324
794.589233,337
794.708313,332
794.827393,323
794.946411,338
795.065552,335
795.18457,338
795.303589,346
795.422668,334
795.541687,332
795.660767,328
795.779846,328
795.898865,323
796.017883,337
796.136963,337
796.255981,326
796.375061,328
796.49408,332
796.613037,343
796.732117,331
796.851135,335
796.970154,337
797.089233,342
797.208191,328
797.327271,326
797.446228,320
797.565186,329
797.684265,335
797.803223,332
797.922241,319
798.04126,328
798.160278,326
798.279297,322
798.398315,330
798.517273,330
798.636292,337
798.75531,332
798.874268,332
798.993286,338
799.112244,325
799.231323,321
799.350281,315
799.469238,331
799.588257,331
799.707153,320
799.826111,324
799.945129,329
800.064087,331
800.183044,328
800.302063,327
800.421021,332
800.539978,335
800.658936,343
800.777893,322
800.896912,334
801.015747,335
801.134705,323
801.253723,323
801.37262,334
801.491638,318
801.610535,343
801.729492,319
801.84845,328
801.967407,324
802.086243,322
802.205261,335
802.324158,327
802.443115,329
802.562073,320
802.680969,341
802.799927,327
802.918762,317
803.037659,311
803.156677,321
803.275574,321
803.39447,346
803.513428,331
803.632263,322
803.751221,339
803.870117,325
803.989014,324
804.107971,327
804.226746,332
804.345642,329
804.4646,335
804.583496,330
804.702393,326
804.821228,323
804.940125,328
805.059021,317
805.177917,327
805.296814,330
805.415649,326
805.534546,331
805.653442,321
805.772278,317
805.891113,327
806.01001,321
806.128906,340
806.247742,313
806.366577,351
806.485413,321
806.604309,333
806.723145,325
806.84198,321
806.960876,330
807.079712,329
807.198486,335
807.317383,335
807.436218,330
807.554993,324
807.673889,324
807.792725,323
807.91156,323
808.030396,325
808.14917,322
808.268005,327
808.386841,333
808.505676,318
808.624451,325
808.743286,330
808.862122,327
808.980896,320
809.099731,334
809.218506,331
809.337341,339
809.456116,321
809.57489,339
809.693726,322
809.8125,322
809.931274,339
810.050049,331
810.168884,320
810.287659,334
810.406372,335
810.525269,331
810.643982,322
810.762756,336
810.881531,330
811.000305,311
811.11908,333
811.237854,323
811.356567,323
811.475403,331
811.594116,331
811.71283,344
811.831604,333
811.950378,341
812.069153,326
812.187927,332
812.30658,332
812.425415,325
812.544128,333
812.662781,322
812.781616,319
812.900269,330
813.019043,327
813.137756,325
813.256531,326
813.375244,333
813.493896,325
813.612671,312
813.731384,328
813.850037,323
813.96875,338
814.087524,324
814.206238,337
814.324951,324
814.443604,334
814.562256,322
814.68103,330
814.799683,326
814.918335,329
815.037109,322
815.155762,328
815.274475,330
815.393188,322
815.511841,330
815.630554,321
815.749146,324
815.867859,315
815.986572,322
816.105164,331
816.223877,322
816.342529,325
816.461182,325
816.579895,333
816.698486,326
816.817139,320
816.935791,334
817.054504,323
817.173096,320
817.291748,329
817.4104,332
817.529053,331
817.647644,337
817.766235,338
817.884949,324
818.00354,322
818.122192,315
818.240845,319
818.359436,327
818.478088,329
818.59668,314
818.715271,313
818.833923,327
818.952515,313
819.071106,320
819.189758,321
819.30835,320
819.426941,325
819.545532,315
819.664124,337
819.782715,311
819.901306,337
820.019897,309
820.138489,330
820.25708,309
820.375671,314
820.494202,330
820.612732,328
820.731384,316
820.849915,326
820.968506,331
821.087097,314
821.205627,300
821.324158,332
821.442749,315
821.561279,319
821.679871,296
821.798401,322
821.916931,323
822.035461,324
822.154053,312
822.272583,312
822.391174,327
822.509583,329
822.628174,316
822.746704,329
822.865234,321
822.983765,314
823.102295,318
823.220825,322
823.339294,323
823.457825,326
823.576355,324
823.694824,324
823.813354,316
823.931885,311
824.050354,311
824.168884,313
824.287354,314
824.405823,309
824.524353,327
824.642822,307
824.761353,310
824.879822,321
824.998291,311
825.116699,332
825.235291,324
825.353699,321
825.472168,311
825.590637,317
825.709106,321
825.827576,315
825.946045,318
826.064453,321
826.182983,315
826.301392,312
826.4198,322
826.53833,316
826.656738,317
826.775208,316
826.893677,324
827.012024,326
827.130493,323
827.248962,323
827.36731,322
827.485779,312
827.604248,313
827.722595,303
827.841064,324
827.959412,315
828.077942,319
828.196289,319
828.314636,319
828.433105,315
828.551514,314
828.669861,316
828.78833,314
828.906677,329
829.025085,310
829.143433,321
829.261841,316
829.38031,321
829.498657,322
829.617004,329
829.735413,321
829.85376,315
829.972107,320
830.090515,304
830.208862,324
830.327209,326
830.445557,303
830.563904,327
830.682312,308
830.800659,317
830.919006,322
831.037354,311
831.155701,310
831.274048,335
831.392395,315
831.51062,326
831.629028,313
831.747314,325
831.865662,299
831.984009,326
832.102356,324
832.220642,315
832.338928,320
832.457275,320
832.575623,323
832.693909,320
832.812134,332
832.930481,332
833.048828,317
833.167114,314
833.2854,314
833.403687,311
833.521973,318
833.640259,313
833.758545,320
833.876831,314
833.995056,320
834.113281,333
834.231628,323
834.349915,316
834.468201,318
834.586426,323
834.704651,313
834.822998,323
834.941162,311
835.059448,327
835.177673,316
835.295959,311
835.414246,320
835.53241,308
835.650635,316
835.768921,337
835.887146,326
836.005371,331
836.123596,316
836.241821,328
836.360046,319
836.478271,320
836.596497,310
836.714722,310
836.832886,319
836.95105,303
837.069336,322
837.1875,308
837.305725,317
837.423889,320
837.542053,312
837.660339,323
837.778503,321
837.896667,314
838.014832,326
838.132996,327
838.25116,328
838.369385,316
838.487488,315
838.605713,314
838.723877,303
838.84198,316
838.960205,327
839.078308,328
839.196472,332
839.314636,312
839.4328,303
839.550964,323
839.669067,299
839.787231,325
839.905396,308
840.023499,313
840.141602,296
840.259766,313
840.377869,312
840.495972,328
840.614136,315
840.732239,320
840.850342,320
840.968445,318
841.086548,325
841.204651,331
841.322754,300
841.440918,325
841.55896,322
841.677002,328
841.795166,308
841.913208,327
842.031311,312
842.149353,319
842.267456,308
842.385498,314
842.503601,309
842.621643,310
842.739746,315
842.857788,312
842.97583,308
843.093933,311
843.211975,319
843.330017,322
843.44812,308
843.566101,326
843.684204,313
843.802246,320
843.920227,311
844.038269,330
844.156311,312
844.274292,322
844.392395,313
844.510376,314
844.628357,337
844.74646,311
844.864441,313
844.982422,305
845.100403,329
845.218384,300
845.336426,313
845.454468,320
845.572449,318
845.69043,318
845.808411,319
845.926453,310
846.044373,316
846.162354,318
846.280396,318
846.398315,320
846.516296,310
846.634216,307
846.752197,316
846.870178,331
846.988098,309
847.106079,320
847.22406,314
847.34198,314
847.4599,321
847.577881,320
847.695801,316
847.813782,314
847.931641,324
848.049561,318
848.167603,306
848.285461,310
848.403381,319
848.521362,317
848.639221,316
848.75708,304
848.875,322
848.99292,326
849.110901,302
849.22876,323
849.34668,316
849.464539,334
849.582458,312
849.700317,322
849.818176,330
849.936096,321
850.053955,317
850.171875,335
850.289673,311
850.407593,318
850.525452,315
850.643311,322
850.761169,327
850.878967,322
850.996887,326
851.114746,320
851.232544,314
851.350403,323
851.468262,318
851.58606,324
851.703979,328
851.821777,311
851.939636,313
852.057434,296
852.175232,314
852.293091,321
852.410889,309
852.528687,334
852.646545,304
852.764343,311
852.88208,311
852.999939,302
853.117676,318
853.235535,314
853.353271,328
853.471069,326
853.588928,310
853.706604,317
853.824402,319
853.9422,307
854.059998,325
854.177734,313
854.295532,326
854.413269,312
854.531006,326
854.648804,327
854.766541,298
854.884277,322
855.002014,327
855.119751,316
855.237549,311
855.355225,319
855.473022,321
855.590698,323
855.708435,319
855.826172,308
855.943848,316
856.061646,318
856.179321,313
856.296997,316
856.414795,322
856.53241,310
856.650085,320
856.767822,311
856.885559,332
857.003174,323
857.120911,309
857.238586,320
857.356201,327
857.473938,312
857.591614,323
857.709351,321
857.826965,316
857.944641,310
858.062317,326
858.179993,322
858.297668,305
858.415283,333
858.532959,310
858.650574,312
858.768188,325
858.885803,314
859.003479,305
859.121094,327
859.23877,336
859.356384,325
859.473999,302
859.591675,317
859.709229,319
859.826843,316
859.944458,313
860.062012,304
860.179626,320
860.297302,309
860.414856,316
860.532471,309
860.650024,313
860.767639,326
860.885193,307
861.002808,315
861.120361,321
861.237976,321
861.35553,331
861.473022,328
861.590698,321
861.708191,325
861.825745,303
861.943298,307
862.060852,324
862.178406,328
862.295959,319
862.413513,307
862.531006,317
862.64856,320
862.766113,333
862.883667,300
863.00116,315
863.118713,312
863.236206,310
863.353699,321
863.471252,310
863.588745,313
863.706177,310
863.82373,313
863.941162,327
864.058716,324
864.176208,316
864.29364,319
864.411194,316
864.528687,329
864.646118,324
864.763611,318
864.881042,311
864.998535,297
865.116028,316
865.233459,310
865.350891,305
865.468384,321
865.585754,320
865.703308,313
865.820679,312
865.938171,319
866.055542,312
866.173035,310
866.290466,311
866.407837,316
866.52533,319
866.6427,314
866.760071,309
866.877563,331
866.994934,310
867.112305,328
867.229736,325
867.347107,324
867.464539,316
867.58197,315
867.699341,321
867.81665,324
867.934082,317
868.051453,314
868.168823,316
868.286194,318
868.403564,323
868.520935,317
868.638306,301
868.755676,314
868.872986,324
868.990295,329
869.107727,331
869.225037,328
869.342346,323
869.459717,314
869.577026,316
869.694336,328
869.811707,315
869.929016,312
870.046326,326
870.163635,308
870.280945,304
870.398254,313
870.515564,322
870.632812,323
870.750183,315
870.867432,321
870.984741,321
871.102051,329
871.219299,309
871.336609,320
871.453918,314
871.571106,320
871.688416,327
871.805664,314
871.922852,322
872.040222,324
872.157471,311
872.274719,320
872.391968,319
872.509155,325
872.626465,309
872.743652,313
872.860962,324
872.978149,306
873.095337,332
873.212646,322
873.329834,307
873.44696,319
873.564209,324
873.681396,313
873.798645,315
873.915894,324
874.03302,307
874.150208,315
874.267456,307
874.384583,304
874.501831,321
874.618958,314
874.736145,324
874.853333,315
874.970459,307
875.087646,328
875.204834,323
875.32196,322
875.439148,315
875.556274,327
875.673401,336
875.790527,318
875.907715,310
876.024841,322
876.141968,311
876.259094,312
876.376282,315
876.493347,314
876.610474,316
876.7276,331
876.844727,323
876.961853,317
877.078918,318
877.195984,306
877.313171,313
877.430237,333
877.547302,330
877.664368,324
877.781433,310
877.898499,322
878.015625,320
878.13269,321
878.249695,309
878.366821,328
878.483887,315
878.600952,319
878.717957,319
878.834961,310
878.952087,323
879.069092,328
879.186157,312
879.303162,322
879.420227,314
879.537231,317
879.654236,322
879.77124,318
879.888306,311
880.005249,311
880.122314,307
880.239319,320
880.356323,320
880.473328,320
880.590271,317
880.707275,311
880.824341,314
880.941284,316
881.058228,299
881.175232,318
881.292236,323
881.40918,323
881.526123,318
881.643066,318
881.760071,319
881.877014,310
881.993958,314
882.11084,321
882.227783,302
882.344727,303
882.46167,318
882.578613,315
882.695618,316
882.812439,314
882.929382,307
883.046326,311
883.163208,314
883.280151,322
883.397034,316
883.513916,311
883.630798,314
883.747742,304
883.864563,325
883.981506,315
884.098389,326
884.21521,308
884.332153,311
884.448975,325
884.565796,314
884.682678,337
884.7995,310
884.916443,335
885.033264,310
885.150085,318
885.266968,315
885.383789,332
885.500671,327
885.617493,328
885.734314,319
885.851196,323
885.967896,309
886.084717,307
886.201599,314
886.318359,336
886.435181,319
886.552002,330
886.668762,316
886.785645,321
886.902344,318
887.019165,319
887.135925,306
887.252747,321
887.369446,318
887.486267,321
887.603027,304
887.719788,324
887.836548,327
887.953247,314
888.070068,311
888.186829,311
888.303528,317
888.420288,309
888.536987,314
888.653687,316
888.770447,314
888.887146,312
889.003967,316
889.120667,316
889.237305,314
889.354065,318
889.470703,315
889.587463,317
889.704163,327
889.820862,315
889.937561,307
890.054199,323
890.170837,311
890.287598,320
890.404236,318
890.520874,311
890.637634,329
890.754211,302
890.87085,311
890.987549,324
891.104187,330
891.220886,330
891.337463,318
891.454102,318
891.57074,320
891.687378,320
891.804077,306
891.920654,315
892.037231,313
892.15387,319
892.270447,312
892.387085,307
892.503723,306
892.6203,322
892.736877,307
892.853516,314
892.970032,330
893.08667,330
893.203186,315
893.319763,314
893.43634,314
893.552917,315
893.669556,327
893.786011,312
893.902588,315
894.019165,325
894.135681,307
894.252197,325
894.368835,317
894.485291,312
894.601868,314
894.718384,323
894.8349,322
894.951355,315
895.067932,307
895.184448,306
895.300964,313
895.417419,315
895.533936,322
895.650452,315
895.766907,320
895.883423,318
895.999878,312
896.116333,321
896.232849,331
896.349304,308
896.465759,318
896.582214,319
896.698669,323
896.815125,308
896.931641,312
897.048035,315
897.164551,312
897.280884,314
897.397339,316
897.513794,326
897.630249,317
897.746582,331
897.863098,311
897.979431,315
898.095886,314
898.212341,322
898.328674,315
898.445129,324
898.561462,322
898.677795,310
898.794312,324
898.910645,317
899.026978,307
899.143433,331
899.259766,306
899.37616,319
899.492493,316
899.608765,337
899.725159,317
899.841553,313
899.957947,335
900.07428,307
900.190552,309
900.306946,313
900.423157,320
900.53949,306
900.655884,323
900.772156,319
900.888489,311
901.004822,316
901.121033,317
901.237366,324
901.353699,311
901.46991,315
901.586304,312
901.702515,321
901.818787,312
901.93512,317
902.051331,305
902.167603,314
902.283875,320
902.400085,306
902.516418,318
902.632629,329
902.74884,328
902.865112,313
902.981384,308
903.097595,330
903.213867,332
903.330017,328
903.446289,314
903.5625,321
903.67865,312
903.794922,309
903.911072,326
904.027344,323
904.143494,316
904.259705,332
904.375916,313
904.492065,310
904.608215,316
904.724426,323
904.840576,305
904.956726,312
905.072876,312
905.189087,326
905.305176,323
905.421387,334
905.537537,329
905.653687,309
905.769775,309
905.885925,314
906.002014,307
906.118164,308
906.234314,308
906.350403,331
906.466492,318
906.582642,319
906.69873,297
906.814758,311
906.930908,318
907.046936,324
907.163086,309
907.279175,311
907.395264,316
907.511353,320
907.62738,302
907.743408,312
907.859497,317
907.975525,316
908.091553,327
908.207703,324
908.32373,310
908.439758,330
908.555786,313
908.671814,317
908.787842,333
908.90387,320
909.019775,315
909.135864,328
909.251892,326
909.367859,319
909.483826,315
909.599854,316
909.715881,317
909.831848,328
909.947815,302
910.063782,327
910.179749,321
910.295776,321
910.411743,315
910.527649,317
910.643616,321
910.759583,306
910.875488,308
910.991455,326
911.107361,318
911.223267,319
911.339294,316
911.4552,314
911.571106,323
911.687073,317
911.802979,330
911.918823,333
912.034729,306
912.150635,309
912.266602,299
912.382446,327
912.498352,310
912.614197,314
912.730103,312
912.846008,318
792.44574,322
792.56488,364
792.68396,397
792.80304,403
792.92218,338
793.041199,337
793.160339,318
793.279419,348
793.398499,329
793.517578,319
793.636658,344
793.755737,347
793.874817,360
793.993896,353
794.112976,337
794.232056,333
794.351074,321
794.470215,339
794.589233,343
794.708313,325
794.827393,336
794.946411,347
795.065552,343
795.18457,339
795.303589,336
795.422668,320
795.541687,331
795.660767,332
795.779846,330
795.898865,337
796.017883,327
796.136963,341
796.255981,325
796.375061,341
796.49408,341
796.613037,317
796.732117,341
796.851135,333
796.970154,326
797.089233,339
797.208191,331
797.327271,329
797.446228,320
797.565186,339
797.684265,321
797.803223,326
797.922241,346
798.04126,324
798.160278,330
798.279297,323
798.398315,337
798.517273,333
798.636292,334
798.75531,319
798.874268,330
798.993286,345
799.112244,334
799.231323,322
799.350281,330
799.469238,325
799.588257,322
799.707153,322
799.826111,323
799.945129,330
800.064087,326
800.183044,334
800.302063,341
800.421021,338
800.539978,328
800.658936,323
800.777893,333
800.896912,323
801.015747,351
801.134705,325
801.253723,324
801.37262,331
801.491638,335
801.610535,317
801.729492,340
801.84845,327
801.967407,327
802.086243,328
802.205261,321
802.324158,331
802.443115,331
802.562073,318
802.680969,330
802.799927,325
802.918762,332
803.037659,326
803.156677,330
803.275574,327
803.39447,322
803.513428,324
803.632263,331
803.751221,327
803.870117,320
803.989014,336
804.107971,319
804.226746,333
804.345642,330
804.4646,314
804.583496,325
804.702393,327
804.821228,331
804.940125,323
805.059021,326
805.177917,336
805.296814,313
805.415649,327
805.534546,335
805.653442,315
805.772278,315
805.891113,330
806.01001,325
806.128906,332
806.247742,337
806.366577,329
806.485413,316
806.604309,316
806.723145,323
806.84198,320
806.960876,317
807.079712,326
807.198486,319
807.317383,327
807.436218,312
807.554993,338
807.673889,331
807.792725,338
807.91156,335
808.030396,337
808.14917,318
808.268005,331
808.386841,340
808.505676,339
808.624451,339
808.743286,321
808.862122,330
808.980896,323
809.099731,328
809.218506,327
809.337341,336
809.456116,343
809.57489,319
809.693726,326
809.8125,342
809.931274,327
810.050049,335
810.168884,332
810.287659,334
810.406372,330
810.525269,322
810.643982,337
810.762756,344
810.881531,330
811.000305,329
811.11908,320
811.237854,341
811.356567,326
811.475403,335
811.594116,324
811.71283,334
811.831604,340
811.950378,320
812.069153,333
812.187927,329
812.30658,335
812.425415,335
812.544128,332
812.662781,325
812.781616,332
812.900269,325
813.019043,345
813.137756,334
813.256531,335
813.375244,333
813.493896,343
813.612671,328
813.731384,321
813.850037,337
813.96875,320
814.087524,325
814.206238,330
814.324951,325
814.443604,333
814.562256,331
814.68103,334
814.799683,334
814.918335,332
815.037109,323
815.155762,338
815.274475,319
815.393188,332
815.511841,325
815.630554,331
815.749146,327
815.867859,341
815.986572,327
816.105164,329
816.223877,341
816.342529,335
816.461182,319
816.579895,319
816.698486,330
816.817139,329
816.935791,324
817.054504,327
817.173096,323
817.291748,317
817.4104,325
817.529053,325
817.647644,326
817.766235,331
817.884949,316
818.00354,327
818.122192,321
818.240845,327
818.359436,313
818.478088,342
818.59668,314
818.715271,330
818.833923,323
818.952515,320
819.071106,336
819.189758,326
819.30835,317
819.426941,319
819.545532,329
819.664124,311
819.782715,323
819.901306,324
820.019897,308
820.138489,315
820.25708,321
820.375671,317
820.494202,338
820.612732,324
820.731384,313
820.849915,332
820.968506,322
821.087097,335
821.205627,313
821.324158,316
821.442749,325
821.561279,320
821.679871,314
821.798401,310
821.916931,307
822.035461,308
822.154053,331
822.272583,340
822.391174,316
822.509583,310
822.628174,313
822.746704,342
822.865234,326
822.983765,312
823.102295,329
823.220825,321
823.339294,318
823.457825,318
823.576355,325
823.694824,319
823.813354,320
823.931885,325
824.050354,322
824.168884,307
824.287354,322
824.405823,328
824.524353,312
824.642822,310
824.761353,315
824.879822,317
824.998291,326
825.116699,324
825.235291,318
825.353699,321
825.472168,318
825.590637,306
825.709106,319
825.827576,323
825.946045,307
826.064453,321
826.182983,303
826.301392,311
826.4198,310
826.53833,309
826.656738,322
826.775208,309
826.893677,316
827.012024,316
827.130493,320
827.248962,320
827.36731,313
827.485779,315
827.604248,313
827.722595,317
827.841064,311
827.959412,307
828.077942,323
828.196289,315
828.314636,330
828.433105,324
828.551514,313
828.669861,313
828.78833,316
828.906677,319
829.025085,322
829.143433,303
829.261841,321
829.38031,324
829.498657,317
829.617004,315
829.735413,311
829.85376,335
829.972107,317
830.090515,306
830.208862,305
830.327209,319
830.445557,311
830.563904,322
830.682312,321
830.800659,320
830.919006,315
831.037354,325
831.155701,318
831.274048,317
831.392395,305
831.51062,327
831.629028,316
831.747314,314
831.865662,302
831.984009,310
832.102356,317
832.220642,322
832.338928,318
832.457275,318
832.575623,327
832.693909,315
832.812134,323
832.930481,326
833.048828,301
833.167114,331
833.2854,315
833.403687,321
833.521973,308
833.640259,309
833.758545,324
833.876831,321
833.995056,326
834.113281,314
834.231628,329
834.349915,319
834.468201,319
834.586426,313
834.704651,334
834.822998,309
834.941162,319
835.059448,326
835.177673,325
835.295959,322
835.414246,332
835.53241,326
835.650635,306
835.768921,327
835.887146,303
836.005371,314
836.123596,306
836.241821,317
836.360046,327
836.478271,317
836.596497,315
836.714722,314
836.832886,323
836.95105,319
837.069336,323
837.1875,302
837.305725,318
837.423889,329
837.542053,314
837.660339,328
837.778503,318
837.896667,327
838.014832,319
838.132996,303
838.25116,307
838.369385,320
838.487488,334
838.605713,317
838.723877,314
838.84198,334
838.960205,307
839.078308,316
839.196472,328
839.314636,323
839.4328,335
839.550964,309
839.669067,323
839.787231,324
839.905396,324
840.023499,333
840.141602,325
840.259766,323
840.377869,318
840.495972,315
840.614136,319
840.732239,301
840.850342,317
840.968445,323
841.086548,316
841.204651,330
841.322754,314
841.440918,323
841.55896,325
841.677002,321
841.795166,318
841.913208,323
842.031311,306
842.149353,317
842.267456,318
842.385498,318
842.503601,320
842.621643,319
842.739746,310
842.857788,315
842.97583,318
843.093933,317
843.211975,327
843.330017,318
843.44812,314
843.566101,315
843.684204,321
843.802246,322
843.920227,320
844.038269,332
844.156311,317
844.274292,321
844.392395,309
844.510376,316
844.628357,324
844.74646,325
844.864441,315
844.982422,310
845.100403,316
845.218384,314
845.336426,327
845.454468,317
845.572449,331
845.69043,326
845.808411,327
845.926453,324
846.044373,309
846.162354,319
846.280396,322
846.398315,316
846.516296,314
846.634216,331
846.752197,317
846.870178,322
846.988098,330
847.106079,317
847.22406,320
847.34198,321
847.4599,313
847.577881,323
847.695801,326
847.813782,338
847.931641,321
848.049561,312
848.167603,316
848.285461,320
848.403381,324
848.521362,318
848.639221,319
848.75708,323
848.875,314
848.99292,320
849.110901,327
849.22876,326
849.34668,315
849.464539,308
849.582458,322
849.700317,327
849.818176,316
849.936096,323
850.053955,319
850.171875,322
850.289673,319
850.407593,315
850.525452,313
850.643311,332
850.761169,310
850.878967,315
850.996887,323
851.114746,320
851.232544,324
851.350403,310
851.468262,320
851.58606,306
851.703979,306
851.821777,323
851.939636,318
852.057434,314
852.175232,327
852.293091,313
852.410889,309
852.528687,316
852.646545,320
852.764343,322
852.88208,318
852.999939,324
853.117676,320
853.235535,322
853.353271,307
853.471069,325
853.588928,313
853.706604,306
853.824402,322
853.9422,324
854.059998,323
854.177734,317
854.295532,321
854.413269,311
854.531006,308
854.648804,316
854.766541,317
854.884277,319
855.002014,323
855.119751,331
855.237549,313
855.355225,316
855.473022,315
855.590698,313
855.708435,305
855.826172,336
855.943848,323
856.061646,317
856.179321,318
856.296997,326
856.414795,323
856.53241,325
856.650085,307
856.767822,332
856.885559,319
857.003174,319
857.120911,313
857.238586,317
857.356201,322
857.473938,333
857.591614,328
857.709351,317
857.826965,321
857.944641,320
858.062317,305
858.179993,328
858.297668,321
858.415283,314
858.532959,323
858.650574,319
858.768188,308
858.885803,327
859.003479,322
859.121094,320
859.23877,301
859.356384,322
859.473999,323
859.591675,320
859.709229,322
859.826843,320
859.944458,327
860.062012,312
860.179626,320
860.297302,321
860.414856,321
860.532471,317
860.650024,327
860.767639,312
860.885193,310
861.002808,329
861.120361,322
861.237976,322
861.35553,324
861.473022,320
861.590698,317
861.708191,326
861.825745,323
861.943298,326
862.060852,324
862.178406,333
862.295959,330
862.413513,320
862.531006,324
862.64856,301
862.766113,305
862.883667,316
863.00116,308
863.118713,305
863.236206,335
863.353699,318
863.471252,316
863.588745,314
863.706177,320
863.82373,315
863.941162,316
864.058716,308
864.176208,322
864.29364,308
864.411194,329
864.528687,313
864.646118,315
864.763611,318
864.881042,317
864.998535,326
865.116028,305
865.233459,330
865.350891,317
865.468384,318
865.585754,307
865.703308,327
865.820679,316
865.938171,311
866.055542,320
866.173035,322
866.290466,317
866.407837,314
866.52533,318
866.6427,318
866.760071,319
866.877563,319
866.994934,305
867.112305,329
867.229736,311
867.347107,328
867.464539,322
867.58197,313
867.699341,322
867.81665,322
867.934082,323
868.051453,331
868.168823,307
868.286194,327
868.403564,316
868.520935,306
868.638306,311
868.755676,322
868.872986,317
868.990295,320
869.107727,308
869.225037,315
869.342346,315
869.459717,334
869.577026,301
869.694336,337
869.811707,310
869.929016,321
870.046326,330
870.163635,307
870.280945,322
870.398254,323
870.515564,315
870.632812,319
870.750183,327
870.867432,331
870.984741,308
871.102051,320
871.219299,316
871.336609,325
871.453918,313
871.571106,314
871.688416,330
871.805664,338
871.922852,320
872.040222,318
872.157471,331
872.274719,327
872.391968,324
872.509155,316
872.626465,327
872.743652,324
872.860962,317
872.978149,320
873.095337,314
873.212646,314
873.329834,323
873.44696,322
873.564209,327
873.681396,318
873.798645,332
873.915894,310
874.03302,314
874.150208,322
874.267456,316
874.384583,316
874.501831,320
874.618958,320
874.736145,317
874.853333,324
874.970459,315
875.087646,318
875.204834,321
875.32196,307
875.439148,335
875.556274,328
875.673401,305
875.790527,332
875.907715,313
876.024841,319
876.141968,334
876.259094,318
876.376282,317
876.493347,315
876.610474,313
876.7276,323
876.844727,312
876.961853,333
877.078918,326
877.195984,314
877.313171,320
877.430237,324
877.547302,318
877.664368,308
877.781433,313
877.898499,332
878.015625,307
878.13269,326
878.249695,327
878.366821,305
878.483887,338
878.600952,316
878.717957,314
878.834961,317
878.952087,293
879.069092,322
879.186157,311
879.303162,306
879.420227,303
879.537231,318
879.654236,320
879.77124,331
879.888306,314
880.005249,322
880.122314,311
880.239319,327
880.356323,304
880.473328,327
880.590271,325
880.707275,328
880.824341,317
880.941284,332
881.058228,323
881.175232,331
881.292236,314
881.40918,315
881.526123,315
881.643066,333
881.760071,302
881.877014,314
881.993958,323
882.11084,321
882.227783,328
882.344727,314
882.46167,329
882.578613,319
882.695618,313
882.812439,325
882.929382,322
883.046326,317
883.163208,320
883.280151,316
883.397034,310
883.513916,321
883.630798,310
883.747742,315
883.864563,331
883.981506,327
884.098389,320
884.21521,303
884.332153,340
884.448975,322
884.565796,317
884.682678,309
884.7995,311
884.916443,319
885.033264,315
885.150085,323
885.266968,329
885.383789,319
885.500671,324
885.617493,321
885.734314,321
885.851196,317
885.967896,312
886.084717,318
886.201599,315
886.318359,333
886.435181,314
886.552002,323
886.668762,314
886.785645,333
886.902344,327
887.019165,311
887.135925,308
887.252747,323
887.369446,321
887.486267,314
887.603027,323
887.719788,317
887.836548,315
887.953247,317
888.070068,319
888.186829,318
888.303528,320
888.420288,320
888.536987,321
888.653687,317
888.770447,328
888.887146,323
889.003967,311
889.120667,318
889.237305,317
889.354065,310
889.470703,313
889.587463,329
889.704163,315
889.820862,323
889.937561,310
890.054199,323
890.170837,321
890.287598,322
890.404236,322
890.520874,333
890.637634,312
890.754211,313
890.87085,314
890.987549,321
891.104187,314
891.220886,327
891.337463,313
891.454102,317
891.57074,326
891.687378,316
891.804077,309
891.920654,308
892.037231,320
892.15387,320
892.270447,317
892.387085,320
892.503723,321
892.6203,308
892.736877,321
892.853516,314
892.970032,309
893.08667,325
893.203186,313
893.319763,319
893.43634,314
893.552917,307
893.669556,330
893.786011,310
893.902588,321
894.019165,311
894.135681,319
894.252197,319
894.368835,317
894.485291,324
894.601868,316
894.718384,312
894.8349,325
894.951355,319
895.067932,318
895.184448,314
895.300964,328
895.417419,320
895.533936,300
895.650452,324
895.766907,315
895.883423,325
895.999878,327
896.116333,328
896.232849,306
896.349304,320
896.465759,304
896.582214,312
896.698669,314
896.815125,311
896.931641,318
897.048035,306
897.164551,302
897.280884,325
897.397339,311
897.513794,320
897.630249,325
897.746582,321
897.863098,322
897.979431,320
898.095886,325
898.212341,323
898.328674,319
898.445129,314
898.561462,323
898.677795,321
898.794312,309
898.910645,334
899.026978,317
899.143433,316
899.259766,311
899.37616,329
899.492493,326
899.608765,319
899.725159,313
899.841553,321
899.957947,323
900.07428,318
900.190552,304
900.306946,327
900.423157,310
900.53949,319
900.655884,308
900.772156,315
900.888489,312
901.004822,320
901.121033,315
901.237366,315
901.353699,301
901.46991,321
901.586304,297
901.702515,326
901.818787,316
901.93512,312
902.051331,324
902.167603,331
902.283875,317
902.400085,318
902.516418,302
902.632629,320
902.74884,307
902.865112,316
902.981384,333
903.097595,321
903.213867,330
903.330017,309
903.446289,301
903.5625,329
903.67865,319
903.794922,328
903.911072,317
904.027344,311
904.143494,320
904.259705,312
904.375916,308
904.492065,318
904.608215,307
904.724426,339
904.840576,323
904.956726,322
905.072876,311
905.189087,294
905.305176,322
905.421387,323
905.537537,324
905.653687,309
905.769775,317
905.885925,322
906.002014,309
906.118164,315
906.234314,318
906.350403,323
906.466492,320
906.582642,322
906.69873,321
906.814758,324
906.930908,330
907.046936,317
907.163086,320
907.279175,333
907.395264,305
907.511353,311
907.62738,324
907.743408,320
907.859497,315
907.975525,323
908.091553,319
908.207703,320
908.32373,316
908.439758,312
908.555786,310
908.671814,318
908.787842,312
908.90387,321
909.019775,315
909.135864,334
909.251892,331
909.367859,331
909.483826,315
909.599854,316
909.715881,320
909.831848,316
909.947815,313
910.063782,317
910.179749,321
910.295776,318
910.411743,316
910.527649,323
910.643616,332
910.759583,321
910.875488,317
910.991455,313
911.107361,304
911.223267,310
911.339294,330
911.4552,329
911.571106,318
911.687073,317
911.802979,311
911.918823,322
912.034729,319
912.150635,316
912.266602,321
912.382446,322
912.498352,312
912.614197,321
912.730103,301
912.846008,323
792.44574,329
792.56488,377
792.68396,405
792.80304,393
792.92218,352
793.041199,307
793.160339,332
793.279419,345
793.398499,334
793.517578,324
793.636658,325
793.755737,342
793.874817,357
793.993896,354
794.112976,333
794.232056,344
794.351074,339
794.470215,338
794.589233,340
794.708313,336
794.827393,332
794.946411,343
795.065552,347
795.18457,348
795.303589,328
795.422668,342
795.541687,336
795.660767,326
795.779846,321
795.898865,336
796.017883,322
796.136963,337
796.255981,338
796.375061,323
796.49408,340
796.613037,344
796.732117,311
796.851135,328
796.970154,323
797.089233,321
797.208191,332
797.327271,325
797.446228,336
797.565186,338
797.684265,318
797.803223,347
797.922241,334
798.04126,336
798.160278,330
798.279297,333
798.398315,322
798.517273,339
798.636292,329
798.75531,328
798.874268,329
798.993286,328
799.112244,329
799.231323,340
799.350281,318
799.469238,336
799.588257,327
799.707153,334
799.826111,327
799.945129,330
800.064087,330
800.183044,333
800.302063,335
800.421021,337
800.539978,341
800.658936,332
800.777893,329
800.896912,326
801.015747,326
801.134705,325
801.253723,338
801.37262,331
801.491638,346
801.610535,339
801.729492,328
801.84845,315
801.967407,323
802.086243,316
802.205261,326
802.324158,311
802.443115,328
802.562073,332
802.680969,320
802.799927,317
802.918762,313
803.037659,338
803.156677,327
803.275574,317
803.39447,326
803.513428,321
803.632263,334
803.751221,323
803.870117,331
803.989014,338
804.107971,315
804.226746,319
804.345642,311
804.4646,329
804.583496,324
804.702393,326
804.821228,352
804.940125,331
805.059021,331
805.177917,311
805.296814,330
805.415649,331
805.534546,325
805.653442,337
805.772278,315
805.891113,335
806.01001,329
806.128906,336
806.247742,346
806.366577,325
806.485413,329
806.604309,342
806.723145,315
806.84198,336
806.960876,321
807.079712,330
807.198486,328
807.317383,328
807.436218,327
807.554993,341
807.673889,322
807.792725,322
807.91156,335
808.030396,328
808.14917,327
808.268005,320
808.386841,331
808.505676,322
808.624451,326
808.743286,332
808.862122,333
808.980896,338
809.099731,315
809.218506,338
809.337341,331
809.456116,318
809.57489,323
809.693726,325
809.8125,315
809.931274,337
810.050049,335
810.168884,324
810.287659,332
810.406372,334
810.525269,336
810.643982,309
810.762756,329
810.881531,320
811.000305,323
811.11908,327
811.237854,310
811.356567,325
811.475403,338
811.594116,350
811.71283,319
811.831604,335
811.950378,324
812.069153,317
812.187927,332
812.30658,329
812.425415,336
812.544128,347
812.662781,333
812.781616,321
812.900269,336
813.019043,329
813.137756,342
813.256531,337
813.375244,331
813.493896,325
813.612671,326
813.731384,333
813.850037,323
813.96875,332
814.087524,316
814.206238,342
814.324951,328
814.443604,317
814.562256,320
814.68103,326
814.799683,330
814.918335,343
815.037109,321
815.155762,318
815.274475,334
815.393188,328
815.511841,327
815.630554,339
815.749146,337
815.867859,323
815.986572,334
816.105164,335
816.223877,332
816.342529,336
816.461182,348
816.579895,319
816.698486,319
816.817139,330
816.935791,335
817.054504,316
817.173096,315
817.291748,331
817.4104,324
817.529053,325
817.647644,324
817.766235,320
817.884949,315
818.00354,320
818.122192,329
818.240845,323
818.359436,322
818.478088,322
818.59668,330
818.715271,308
818.833923,322
818.952515,320
819.071106,314
819.189758,326
819.30835,330
819.426941,310
819.545532,313
819.664124,314
819.782715,311
819.901306,323
820.019897,331
820.138489,318
820.25708,328
820.375671,323
820.494202,314
820.612732,324
820.731384,313
820.849915,329
820.968506,320
821.087097,321
821.205627,324
821.324158,312
821.442749,310
821.561279,320
821.679871,321
821.798401,321
821.916931,321
822.035461,318
822.154053,315
822.272583,315
822.391174,323
822.509583,327
822.628174,318
822.746704,323
822.865234,314
822.983765,323
823.102295,314
823.220825,312
823.339294,316
823.457825,322
823.576355,322
823.694824,311
823.813354,313
823.931885,309
824.050354,329
824.168884,323
824.287354,318
824.405823,319
824.524353,306
824.642822,318
824.761353,328
824.879822,320
824.998291,308
825.116699,318
825.235291,327
825.353699,309
825.472168,310
825.590637,319
825.709106,312
825.827576,316
825.946045,323
826.064453,307
826.182983,310
826.301392,310
826.4198,331
826.53833,322
826.656738,318
826.775208,306
826.893677,309
827.012024,312
827.130493,313
827.248962,315
827.36731,308
827.485779,310
827.604248,303
827.722595,317
827.841064,308
827.959412,327
828.077942,319
828.196289,312
828.314636,327
828.433105,313
828.551514,316
828.669861,319
828.78833,312
828.906677,327
829.025085,316
829.143433,329
829.261841,329
829.38031,324
829.498657,312
829.617004,313
829.735413,320
829.85376,341
829.972107,321
830.090515,318
830.208862,311
830.327209,309
830.445557,318
830.563904,321
830.682312,323
830.800659,315
830.919006,327
831.037354,313
831.155701,315
831.274048,326
831.392395,313
831.51062,327
831.629028,316
831.747314,329
831.865662,310
831.984009,316
832.102356,313
832.220642,318
832.338928,326
832.457275,316
832.575623,316
832.693909,318
832.812134,305
832.930481,319
833.048828,320
833.167114,319
833.2854,319
833.403687,309
833.521973,316
833.640259,306
833.758545,316
833.876831,323
833.995056,310
834.113281,314
834.231628,315
834.349915,314
834.468201,314
834.586426,333
834.704651,328
834.822998,315
834.941162,315
835.059448,319
835.177673,310
835.295959,320
835.414246,314
835.53241,317
835.650635,323
835.768921,313
835.887146,311
836.005371,315
836.123596,318
836.241821,311
836.360046,314
836.478271,322
836.596497,312
836.714722,325
836.832886,329
836.95105,313
837.069336,324
837.1875,318
837.305725,317
837.423889,311
837.542053,324
837.660339,329
837.778503,313
837.896667,315
838.014832,318
838.132996,313
838.25116,317
838.369385,321
838.487488,323
838.605713,315
838.723877,322
838.84198,315
838.960205,311
839.078308,328
839.196472,317
839.314636,308
839.4328,314
839.550964,320
839.669067,325
839.787231,310
839.905396,323
840.023499,331
840.141602,302
840.259766,330
840.377869,319
840.495972,326
840.614136,323
840.732239,323
840.850342,310
840.968445,311
841.086548,306
841.204651,326
841.322754,314
841.440918,323
841.55896,321
841.677002,323
841.795166,315
841.913208,325
842.031311,317
842.149353,317
842.267456,323
842.385498,319
842.503601,324
842.621643,309
842.739746,330
842.857788,303
842.97583,324
843.093933,321
843.211975,317
843.330017,322
843.44812,317
843.566101,323
843.684204,319
843.802246,316
843.920227,309
844.038269,323
844.156311,319
844.274292,320
844.392395,315
844.510376,310
844.628357,322
844.74646,326
844.864441,314
844.982422,326
845.100403,315
845.218384,315
845.336426,311
845.454468,313
845.572449,309
845.69043,325
845.808411,319
845.926453,306
846.044373,312
846.162354,318
846.280396,332
846.398315,302
846.516296,322
846.634216,322
846.752197,302
846.870178,324
846.988098,320
847.106079,306
847.22406,318
847.34198,303
847.4599,309
847.577881,322
847.695801,329
847.813782,317
847.931641,309
848.049561,307
848.167603,315
848.285461,323
848.403381,304
848.521362,322
848.639221,313
848.75708,322
848.875,310
848.99292,322
849.110901,306
849.22876,319
849.34668,314
849.464539,306
849.582458,309
849.700317,320
849.818176,321
849.936096,318
850.053955,319
850.171875,323
850.289673,322
850.407593,307
850.525452,321
850.643311,311
850.761169,315
850.878967,309
850.996887,310
851.114746,321
851.232544,333
851.350403,316
851.468262,310
851.58606,325
851.703979,317
851.821777,323
851.939636,311
852.057434,324
852.175232,315
852.293091,316
852.410889,325
852.528687,308
852.646545,313
852.764343,326
852.88208,306
852.999939,321
853.117676,320
853.235535,306
853.353271,319
853.471069,314
853.588928,314
853.706604,331
853.824402,309
853.9422,314
854.059998,312
854.177734,327
854.295532,327
854.413269,319
854.531006,318
854.648804,314
854.766541,313
854.884277,306
855.002014,319
855.119751,330
855.237549,325
855.355225,317
855.473022,314
855.590698,323
855.708435,319
855.826172,311
855.943848,326
856.061646,328
856.179321,300
856.296997,326
856.414795,310
856.53241,311
856.650085,336
856.767822,307
856.885559,317
857.003174,308
857.120911,324
857.238586,323
857.356201,324
857.473938,326
857.591614,316
857.709351,323
857.826965,308
857.944641,325
858.062317,319
858.179993,330
858.297668,323
858.415283,302
858.532959,314
858.650574,316
858.768188,315
858.885803,306
859.003479,318
859.121094,326
859.23877,314
859.356384,307
859.473999,326
859.591675,316
859.709229,316
859.826843,328
859.944458,324
860.062012,319
860.179626,311
860.297302,310
860.414856,316
860.532471,315
860.650024,320
860.767639,319
860.885193,317
861.002808,320
861.120361,309
861.237976,335
861.35553,314
861.473022,308
861.590698,329
861.708191,318
861.825745,315
861.943298,318
862.060852,311
862.178406,319
862.295959,313
862.413513,322
862.531006,317
862.64856,324
862.766113,311
862.883667,335
863.00116,318
863.118713,317
863.236206,319
863.353699,316
863.471252,308
863.588745,309
863.706177,317
863.82373,310
863.941162,322
864.058716,320
864.176208,300
864.29364,300
864.411194,315
864.528687,320
864.646118,321
864.763611,326
864.881042,310
864.998535,305
865.116028,314
865.233459,317
865.350891,332
865.468384,302
865.585754,325
865.703308,308
865.820679,297
865.938171,322
866.055542,319
866.173035,314
866.290466,321
866.407837,320
866.52533,318
866.6427,316
866.760071,302
866.877563,333
866.994934,310
867.112305,330
867.229736,324
867.347107,310
867.464539,308
867.58197,317
867.699341,310
867.81665,312
867.934082,319
868.051453,308
868.168823,317
868.286194,314
868.403564,312
868.520935,323
868.638306,313
868.755676,316
868.872986,318
868.990295,326
869.107727,315
869.225037,322
869.342346,314
869.459717,320
869.577026,315
869.694336,318
869.811707,312
869.929016,318
870.046326,313
870.163635,308
870.280945,321
870.398254,326
870.515564,324
870.632812,318
870.750183,316
870.867432,328
870.984741,322
871.102051,324
871.219299,312
871.336609,323
871.453918,322
871.571106,318
871.688416,304
871.805664,321
871.922852,310
872.040222,314
872.157471,319
872.274719,323
872.391968,320
872.509155,327
872.626465,327
872.743652,315
872.860962,317
872.978149,318
873.095337,325
873.212646,314
873.329834,318
873.44696,314
873.564209,318
873.681396,325
873.798645,315
873.915894,322
874.03302,325
874.150208,323
874.267456,318
874.384583,319
874.501831,319
874.618958,319
874.736145,324
874.853333,317
874.970459,329
875.087646,316
875.204834,312
875.32196,326
875.439148,314
875.556274,306
875.673401,313
875.790527,307
875.907715,316
876.024841,319
876.141968,321
876.259094,306
876.376282,321
876.493347,328
876.610474,306
876.7276,324
876.844727,326
876.961853,320
877.078918,317
877.195984,300
877.313171,312
877.430237,331
877.547302,320
877.664368,316
877.781433,316
877.898499,325
878.015625,319
878.13269,322
878.249695,307
878.366821,324
878.483887,332
878.600952,324
878.717957,310
878.834961,316
878.952087,313
879.069092,322
879.186157,294
879.303162,326
879.420227,321
879.537231,320
879.654236,310
879.77124,320
879.888306,317
880.005249,332
880.122314,307
880.239319,318
880.356323,314
880.473328,320
880.590271,319
880.707275,308
880.824341,313
880.941284,318
881.058228,308
881.175232,320
881.292236,322
881.40918,313
881.526123,305
881.643066,322
881.760071,313
881.877014,317
881.993958,308
882.11084,330
882.227783,312
882.344727,331
882.46167,310
882.578613,320
882.695618,314
882.812439,328
882.929382,319
883.046326,312
883.163208,307
883.280151,295
883.397034,314
883.513916,304
883.630798,309
883.747742,318
883.864563,316
883.981506,330
884.098389,329
884.21521,310
884.332153,306
884.448975,328
884.565796,309
884.682678,322
884.7995,329
884.916443,312
885.033264,324
885.150085,330
885.266968,321
885.383789,324
885.500671,320
885.617493,319
885.734314,317
885.851196,327
885.967896,322
886.084717,322
886.201599,307
886.318359,315
886.435181,319
886.552002,326
886.668762,312
886.785645,318
886.902344,322
887.019165,319
887.135925,316
887.252747,314
887.369446,316
887.486267,326
887.603027,323
887.719788,322
887.836548,322
887.953247,329
888.070068,323
888.186829,328
888.303528,317
888.420288,304
888.536987,324
888.653687,307
888.770447,330
888.887146,323
889.003967,329
889.120667,320
889.237305,319
889.354065,329
889.470703,319
889.587463,312
889.704163,323
889.820862,314
889.937561,318
890.054199,315
890.170837,309
890.287598,311
890.404236,305
890.520874,330
890.637634,319
890.754211,319
890.87085,309
890.987549,321
891.104187,325
891.220886,315
891.337463,300
891.454102,318
891.57074,326
891.687378,322
891.804077,316
891.920654,312
892.037231,333
892.15387,317
892.270447,310
892.387085,325
892.503723,322
892.6203,311
892.736877,306
892.853516,332
892.970032,328
893.08667,323
893.203186,322
893.319763,313
893.43634,329
893.552917,328
893.669556,319
893.786011,319
893.902588,311
894.019165,324
894.135681,313
894.252197,321
894.368835,335
894.485291,314
894.601868,314
894.718384,326
894.8349,315
894.951355,313
895.067932,314
895.184448,324
895.300964,315
895.417419,329
895.533936,314
895.650452,315
895.766907,316
895.883423,329
895.999878,315
896.116333,313
896.232849,316
896.349304,307
896.465759,311
896.582214,322
896.698669,330
896.815125,314
896.931641,324
897.048035,312
897.164551,311
897.280884,318
897.397339,314
897.513794,318
897.630249,311
897.746582,303
897.863098,315
897.979431,327
898.095886,308
898.212341,318
898.328674,313
898.445129,331
898.561462,312
898.677795,306
898.794312,319
898.910645,308
899.026978,312
899.143433,321
899.259766,328
899.37616,320
899.492493,313
899.608765,323
899.725159,319
899.841553,327
899.957947,314
900.07428,320
900.190552,317
900.306946,312
900.423157,312
900.53949,315
900.655884,313
900.772156,309
900.888489,329
901.004822,318
901.121033,308
901.237366,312
901.353699,307
901.46991,321
901.586304,313
901.702515,314
901.818787,307
901.93512,331
902.051331,330
902.167603,319
902.283875,318
902.400085,324
902.516418,321
902.632629,320
902.74884,314
902.865112,332
902.981384,306
903.097595,325
903.213867,311
903.330017,323
903.446289,305
903.5625,299
903.67865,304
903.794922,341
903.911072,310
904.027344,313
904.143494,322
904.259705,321
904.375916,302
904.492065,330
904.608215,308
904.724426,321
904.840576,331
904.956726,315
905.072876,314
905.189087,306
905.305176,322
905.421387,326
905.537537,321
905.653687,305
905.769775,320
905.885925,314
906.002014,316
906.118164,318
906.234314,312
906.350403,318
906.466492,311
906.582642,314
906.69873,313
906.814758,323
906.930908,316
907.046936,309
907.163086,307
907.279175,319
907.395264,320
907.511353,313
907.62738,308
907.743408,323
907.859497,304
907.975525,324
908.091553,326
908.207703,320
908.32373,325
908.439758,322
908.555786,320
908.671814,319
908.787842,324
908.90387,321
909.019775,312
909.135864,314
909.251892,304
909.367859,341
909.483826,322
909.599854,315
909.715881,326
909.831848,318
909.947815,326
910.063782,301
910.179749,316
910.295776,312
910.411743,321
910.527649,332
910.643616,323
910.759583,312
910.875488,320
910.991455,316
911.107361,320
911.223267,315
911.339294,315
911.4552,325
911.571106,323
911.687073,321
911.802979,341
911.918823,321
912.034729,311
912.150635,323
912.266602,316
912.382446,312
912.498352,312
912.614197,310
912.730103,320
912.846008,310
