792.44574,297
792.56488,339
792.68396,393
792.80304,390
792.92218,328
793.041199,299
793.160339,307
793.279419,333
793.398499,314
793.517578,308
793.636658,314
793.755737,330
793.874817,354
793.993896,333
794.112976,327
794.232056,324
794.351074,323
794.470215,317
794.589233,329
794.708313,329
794.827393,321
794.946411,330
795.065552,339
795.18457,321
795.303589,336
795.422668,319
795.541687,314
795.660767,324
795.779846,328
795.898865,325
796.017883,323
796.136963,329
796.255981,325
796.375061,318
796.49408,322
796.613037,323
796.732117,306
796.851135,325
796.970154,335
797.089233,316
797.208191,333
797.327271,333
797.446228,324
797.565186,328
797.684265,323
797.803223,325
797.922241,332
798.04126,329
798.160278,313
798.279297,333
798.398315,331
798.517273,303
798.636292,325
798.75531,317
798.874268,325
798.993286,319
799.112244,325
799.231323,333
799.350281,332
799.469238,310
799.588257,317
799.707153,315
799.826111,325
799.945129,327
800.064087,329
800.183044,313
800.302063,322
800.421021,330
800.539978,323
800.658936,321
800.777893,316
800.896912,320
801.015747,324
801.134705,316
801.253723,326
801.37262,314
801.491638,326
801.610535,303
801.729492,316
801.84845,310
801.967407,328
802.086243,315
802.205261,337
802.324158,309
802.443115,315
802.562073,320
802.680969,319
802.799927,318
802.918762,317
803.037659,319
803.156677,312
803.275574,301
803.39447,324
803.513428,320
803.632263,322
803.751221,319
803.870117,326
803.989014,317
804.107971,320
804.226746,313
804.345642,320
804.4646,319
804.583496,328
804.702393,316
804.821228,322
804.940125,325
805.059021,326
805.177917,321
805.296814,313
805.415649,326
805.534546,326
805.653442,316
805.772278,315
805.891113,301
806.01001,310
806.128906,313
806.247742,325
806.366577,314
806.485413,318
806.604309,317
806.723145,311
806.84198,325
806.960876,315
807.079712,321
807.198486,300
807.317383,304
807.436218,316
807.554993,326
807.673889,319
807.792725,334
807.91156,321
808.030396,329
808.14917,322
808.268005,324
808.386841,317
808.505676,318
808.624451,324
808.743286,322
808.862122,316
808.980896,312
809.099731,334
809.218506,317
809.337341,319
809.456116,330
809.57489,323
809.693726,322
809.8125,318
809.931274,320
810.050049,316
810.168884,325
810.287659,328
810.406372,309
810.525269,326
810.643982,316
810.762756,311
810.881531,318
811.000305,313
811.11908,316
811.237854,326
811.356567,315
811.475403,317
811.594116,318
811.71283,326
811.831604,329
811.950378,318
812.069153,321
812.187927,317
812.30658,331
812.425415,326
812.544128,306
812.662781,319
812.781616,325
812.900269,323
813.019043,328
813.137756,316
813.256531,326
813.375244,322
813.493896,327
813.612671,304
813.731384,317
813.850037,305
813.96875,321
814.087524,308
814.206238,322
814.324951,321
814.443604,320
814.562256,331
814.68103,335
814.799683,320
814.918335,338
815.037109,319
815.155762,305
815.274475,324
815.393188,328
815.511841,309
815.630554,328
815.749146,319
815.867859,313
815.986572,304
816.105164,315
816.223877,330
816.342529,321
816.461182,316
816.579895,313
816.698486,315
816.817139,320
816.935791,329
817.054504,318
817.173096,309
817.291748,312
817.4104,315
817.529053,312
817.647644,325
817.766235,334
817.884949,315
818.00354,318
818.122192,314
818.240845,311
818.359436,300
818.478088,318
818.59668,330
818.715271,319
818.833923,318
818.952515,326
819.071106,322
819.189758,318
819.30835,324
819.426941,321
819.545532,323
819.664124,311
819.782715,317
819.901306,321
820.019897,322
820.138489,315
820.25708,314
820.375671,314
820.494202,317
820.612732,312
820.731384,313
820.849915,318
820.968506,323
821.087097,312
821.205627,312
821.324158,329
821.442749,325
821.561279,309
821.679871,315
821.798401,313
821.916931,314
822.035461,315
822.154053,312
822.272583,318
822.391174,328
822.509583,313
822.628174,314
822.746704,316
822.865234,324
822.983765,307
823.102295,315
823.220825,311
823.339294,315
823.457825,320
823.576355,323
823.694824,303
823.813354,320
823.931885,309
824.050354,335
824.168884,312
824.287354,308
824.405823,331
824.524353,309
824.642822,308
824.761353,302
824.879822,304
824.998291,317
825.116699,315
825.235291,324
825.353699,308
825.472168,322
825.590637,311
825.709106,317
825.827576,316
825.946045,329
826.064453,317
826.182983,320
826.301392,310
826.4198,321
826.53833,313
826.656738,309
826.775208,317
826.893677,321
827.012024,319
827.130493,317
827.248962,314
827.36731,324
827.485779,313
827.604248,319
827.722595,319
827.841064,316
827.959412,320
828.077942,322
828.196289,312
828.314636,324
828.433105,304
828.551514,314
828.669861,304
828.78833,308
828.906677,318
829.025085,321
829.143433,319
829.261841,312
829.38031,313
829.498657,318
829.617004,310
829.735413,327
829.85376,304
829.972107,316
830.090515,319
830.208862,311
830.327209,304
830.445557,308
830.563904,304
830.682312,316
830.800659,317
830.919006,322
831.037354,315
831.155701,312
831.274048,322
831.392395,333
831.51062,316
831.629028,317
831.747314,304
831.865662,323
831.984009,302
832.102356,305
832.220642,308
832.338928,322
832.457275,306
832.575623,314
832.693909,326
832.812134,329
832.930481,325
833.048828,320
833.167114,312
833.2854,323
833.403687,319
833.521973,306
833.640259,319
833.758545,312
833.876831,309
833.995056,324
834.113281,317
834.231628,308
834.349915,300
834.468201,315
834.586426,314
834.704651,314
834.822998,327
834.941162,311
835.059448,323
835.177673,314
835.295959,319
835.414246,324
835.53241,308
835.650635,329
835.768921,304
835.887146,309
836.005371,323
836.123596,317
836.241821,315
836.360046,318
836.478271,318
836.596497,321
836.714722,314
836.832886,322
836.95105,316
837.069336,318
837.1875,321
837.305725,321
837.423889,311
837.542053,319
837.660339,323
837.778503,332
837.896667,303
838.014832,307
838.132996,316
838.25116,324
838.369385,316
838.487488,311
838.605713,323
838.723877,312
838.84198,314
838.960205,310
839.078308,308
839.196472,322
839.314636,309
839.4328,304
839.550964,321
839.669067,310
839.787231,312
839.905396,313
840.023499,316
840.141602,330
840.259766,321
840.377869,320
840.495972,310
840.614136,331
840.732239,306
840.850342,322
840.968445,315
841.086548,311
841.204651,322
841.322754,305
841.440918,323
841.55896,323
841.677002,319
841.795166,323
841.913208,309
842.031311,320
842.149353,313
842.267456,322
842.385498,313
842.503601,317
842.621643,303
842.739746,319
842.857788,315
842.97583,325
843.093933,307
843.211975,317
843.330017,320
843.44812,320
843.566101,331
843.684204,314
843.802246,303
843.920227,319
844.038269,308
844.156311,320
844.274292,314
844.392395,320
844.510376,324
844.628357,316
844.74646,324
844.864441,318
844.982422,311
845.100403,314
845.218384,315
845.336426,316
845.454468,304
845.572449,321
845.69043,324
845.808411,318
845.926453,314
846.044373,312
846.162354,306
846.280396,322
846.398315,306
846.516296,327
846.634216,307
846.752197,315
846.870178,319
846.988098,332
847.106079,309
847.22406,317
847.34198,308
847.4599,311
847.577881,311
847.695801,330
847.813782,309
847.931641,314
848.049561,311
848.167603,328
848.285461,324
848.403381,339
848.521362,308
848.639221,318
848.75708,298
848.875,315
848.99292,313
849.110901,304
849.22876,312
849.34668,311
849.464539,312
849.582458,315
849.700317,311
849.818176,321
849.936096,298
850.053955,315
850.171875,330
850.289673,334
850.407593,303
850.525452,331
850.643311,312
850.761169,323
850.878967,314
850.996887,331
851.114746,306
851.232544,317
851.350403,314
851.468262,326
851.58606,311
851.703979,324
851.821777,317
851.939636,313
852.057434,315
852.175232,311
852.293091,310
852.410889,322
852.528687,326
852.646545,328
852.764343,308
852.88208,324
852.999939,313
853.117676,318
853.235535,318
853.353271,314
853.471069,315
853.588928,326
853.706604,311
853.824402,327
853.9422,315
854.059998,311
854.177734,321
854.295532,315
854.413269,316
854.531006,302
854.648804,320
854.766541,326
854.884277,316
855.002014,298
855.119751,316
855.237549,312
855.355225,309
855.473022,302
855.590698,317
855.708435,332
855.826172,326
855.943848,317
856.061646,317
856.179321,325
856.296997,309
856.414795,322
856.53241,307
856.650085,328
856.767822,311
856.885559,319
857.003174,314
857.120911,326
857.238586,318
857.356201,299
857.473938,319
857.591614,322
857.709351,314
857.826965,331
857.944641,307
858.062317,315
858.179993,327
858.297668,318
858.415283,300
858.532959,324
858.650574,304
858.768188,319
858.885803,302
859.003479,307
859.121094,321
859.23877,317
859.356384,313
859.473999,317
859.591675,306
859.709229,325
859.826843,315
859.944458,314
860.062012,320
860.179626,331
860.297302,303
860.414856,322
860.532471,306
860.650024,311
860.767639,336
860.885193,313
861.002808,311
861.120361,315
861.237976,314
861.35553,320
861.473022,298
861.590698,319
861.708191,310
861.825745,316
861.943298,314
862.060852,309
862.178406,317
862.295959,328
862.413513,313
862.531006,320
862.64856,315
862.766113,323
862.883667,312
863.00116,313
863.118713,319
863.236206,337
863.353699,307
863.471252,330
863.588745,312
863.706177,322
863.82373,303
863.941162,320
864.058716,306
864.176208,324
864.29364,308
864.411194,322
864.528687,311
864.646118,300
864.763611,312
864.881042,311
864.998535,318
865.116028,315
865.233459,318
865.350891,313
865.468384,322
865.585754,320
865.703308,309
865.820679,322
865.938171,311
866.055542,318
866.173035,314
866.290466,321
866.407837,310
866.52533,321
866.6427,304
866.760071,325
866.877563,315
866.994934,318
867.112305,317
867.229736,316
867.347107,307
867.464539,329
867.58197,318
867.699341,328
867.81665,319
867.934082,327
868.051453,319
868.168823,337
868.286194,319
868.403564,325
868.520935,311
868.638306,325
868.755676,307
868.872986,334
868.990295,324
869.107727,318
869.225037,325
869.342346,320
869.459717,320
869.577026,328
869.694336,306
869.811707,317
869.929016,314
870.046326,331
870.163635,313
870.280945,339
870.398254,323
870.515564,316
870.632812,324
870.750183,326
870.867432,304
870.984741,317
871.102051,319
871.219299,323
871.336609,315
871.453918,314
871.571106,316
871.688416,311
871.805664,301
871.922852,325
872.040222,317
872.157471,325
872.274719,333
872.391968,316
872.509155,326
872.626465,316
872.743652,324
872.860962,311
872.978149,311
873.095337,318
873.212646,328
873.329834,309
873.44696,332
873.564209,317
873.681396,310
873.798645,316
873.915894,317
874.03302,324
874.150208,312
874.267456,323
874.384583,311
874.501831,333
874.618958,320
874.736145,325
874.853333,311
874.970459,324
875.087646,307
875.204834,324
875.32196,314
875.439148,320
875.556274,308
875.673401,320
875.790527,305
875.907715,321
876.024841,320
876.141968,313
876.259094,325
876.376282,318
876.493347,326
876.610474,320
876.7276,313
876.844727,330
876.961853,315
877.078918,314
877.195984,317
877.313171,321
877.430237,327
877.547302,309
877.664368,308
877.781433,317
877.898499,304
878.015625,322
878.13269,308
878.249695,318
878.366821,313
878.483887,324
878.600952,303
878.717957,307
878.834961,324
878.952087,310
879.069092,310
879.186157,319
879.303162,314
879.420227,332
879.537231,299
879.654236,319
879.77124,318
879.888306,316
880.005249,315
880.122314,320
880.239319,316
880.356323,314
880.473328,313
880.590271,329
880.707275,318
880.824341,313
880.941284,305
881.058228,311
881.175232,306
881.292236,317
881.40918,301
881.526123,320
881.643066,318
881.760071,332
881.877014,315
881.993958,325
882.11084,309
882.227783,328
882.344727,317
882.46167,311
882.578613,318
882.695618,325
882.812439,309
882.929382,325
883.046326,315
883.163208,313
883.280151,325
883.397034,311
883.513916,314
883.630798,329
883.747742,315
883.864563,317
883.981506,302
884.098389,318
884.21521,306
884.332153,326
884.448975,314
884.565796,314
884.682678,314
884.7995,305
884.916443,301
885.033264,324
885.150085,315
885.266968,316
885.383789,302
885.500671,314
885.617493,316
885.734314,318
885.851196,305
885.967896,314
886.084717,303
886.201599,310
886.318359,317
886.435181,315
886.552002,319
886.668762,310
886.785645,322
886.902344,320
887.019165,317
887.135925,314
887.252747,319
887.369446,316
887.486267,322
887.603027,322
887.719788,317
887.836548,313
887.953247,318
888.070068,319
888.186829,329
888.303528,314
888.420288,312
888.536987,329
888.653687,316
888.770447,321
888.887146,318
889.003967,311
889.120667,319
889.237305,326
889.354065,330
889.470703,321
889.587463,322
889.704163,325
889.820862,313
889.937561,323
890.054199,311
890.170837,330
890.287598,309
890.404236,313
890.520874,314
890.637634,318
890.754211,322
890.87085,312
890.987549,321
891.104187,330
891.220886,308
891.337463,305
891.454102,307
891.57074,311
891.687378,314
891.804077,321
891.920654,315
892.037231,314
892.15387,317
892.270447,316
892.387085,319
892.503723,308
892.6203,307
892.736877,317
892.853516,312
892.970032,324
893.08667,287
893.203186,320
893.319763,309
893.43634,322
893.552917,316
893.669556,318
893.786011,324
893.902588,333
894.019165,317
894.135681,308
894.252197,311
894.368835,326
894.485291,314
894.601868,320
894.718384,315
894.8349,328
894.951355,306
895.067932,326
895.184448,316
895.300964,315
895.417419,313
895.533936,328
895.650452,308
895.766907,339
895.883423,311
895.999878,319
896.116333,313
896.232849,313
896.349304,312
896.465759,323
896.582214,314
896.698669,317
896.815125,309
896.931641,321
897.048035,319
897.164551,332
897.280884,319
897.397339,313
897.513794,307
897.630249,323
897.746582,311
897.863098,327
897.979431,314
898.095886,324
898.212341,316
898.328674,307
898.445129,311
898.561462,318
898.677795,308
898.794312,316
898.910645,308
899.026978,331
899.143433,307
899.259766,320
899.37616,317
899.492493,320
899.608765,305
899.725159,326
899.841553,315
899.957947,326
900.07428,320
900.190552,325
900.306946,315
900.423157,314
900.53949,316
900.655884,322
900.772156,312
900.888489,317
901.004822,323
901.121033,319
901.237366,325
901.353699,315
901.46991,317
901.586304,320
901.702515,320
901.818787,309
901.93512,310
902.051331,317
902.167603,314
902.283875,330
902.400085,310
902.516418,311
902.632629,316
902.74884,316
902.865112,301
902.981384,323
903.097595,309
903.213867,309
903.330017,312
903.446289,312
903.5625,317
903.67865,318
903.794922,311
903.911072,315
904.027344,321
904.143494,323
904.259705,307
904.375916,319
904.492065,317
904.608215,323
904.724426,318
904.840576,320
904.956726,319
905.072876,315
905.189087,306
905.305176,314
905.421387,310
905.537537,321
905.653687,324
905.769775,310
905.885925,304
906.002014,319
906.118164,323
906.234314,336
906.350403,308
906.466492,326
906.582642,323
906.69873,321
906.814758,314
906.930908,324
907.046936,317
907.163086,316
907.279175,293
907.395264,323
907.511353,310
907.62738,321
907.743408,317
907.859497,321
907.975525,319
908.091553,316
908.207703,318
908.32373,318
908.439758,309
908.555786,324
908.671814,326
908.787842,322
908.90387,315
909.019775,324
909.135864,332
909.251892,306
909.367859,303
909.483826,322
909.599854,311
909.715881,315
909.831848,330
909.947815,315
910.063782,323
910.179749,312
910.295776,320
910.411743,317
910.527649,309
910.643616,321
910.759583,303
910.875488,329
910.991455,310
911.107361,322
911.223267,317
911.339294,323
911.4552,318
911.571106,313
911.687073,326
911.802979,323
911.918823,324
912.034729,313
912.150635,312
912.266602,331
912.382446,319
912.498352,311
912.614197,309
912.730103,323
912.846008,313
792.44574,327
792.56488,353
792.68396,396
792.80304,379
792.92218,315
793.041199,309
793.160339,321
793.279419,337
793.398499,327
793.517578,314
793.636658,313
793.755737,315
793.874817,343
793.993896,334
794.112976,329
794.232056,321
794.351074,341
794.470215,330
794.589233,332
794.708313,319
794.827393,312
794.946411,320
795.065552,330
795.18457,332
795.303589,318
795.422668,328
795.541687,324
795.660767,327
795.779846,323
795.898865,322
796.017883,341
796.136963,318
796.255981,331
796.375061,327
796.49408,340
796.613037,321
796.732117,319
796.851135,327
796.970154,320
797.089233,324
797.208191,319
797.327271,324
797.446228,320
797.565186,318
797.684265,324
797.803223,311
797.922241,315
798.04126,312
798.160278,325
798.279297,317
798.398315,333
798.517273,329
798.636292,318
798.75531,330
798.874268,324
798.993286,328
799.112244,325
799.231323,327
799.350281,304
799.469238,332
799.588257,310
799.707153,322
799.826111,323
799.945129,315
800.064087,348
800.183044,317
800.302063,330
800.421021,316
800.539978,308
800.658936,324
800.777893,324
800.896912,320
801.015747,332
801.134705,318
801.253723,326
801.37262,320
801.491638,316
801.610535,333
801.729492,321
801.84845,321
801.967407,319
802.086243,320
802.205261,317
802.324158,327
802.443115,323
802.562073,321
802.680969,322
802.799927,320
802.918762,327
803.037659,315
803.156677,320
803.275574,319
803.39447,312
803.513428,328
803.632263,309
803.751221,329
803.870117,320
803.989014,322
804.107971,312
804.226746,337
804.345642,318
804.4646,330
804.583496,321
804.702393,324
804.821228,308
804.940125,315
805.059021,328
805.177917,318
805.296814,327
805.415649,323
805.534546,311
805.653442,316
805.772278,319
805.891113,313
806.01001,318
806.128906,313
806.247742,326
806.366577,319
806.485413,321
806.604309,302
806.723145,332
806.84198,315
806.960876,322
807.079712,314
807.198486,312
807.317383,322
807.436218,317
807.554993,310
807.673889,312
807.792725,313
807.91156,317
808.030396,322
808.14917,313
808.268005,311
808.386841,323
808.505676,317
808.624451,329
808.743286,309
808.862122,313
808.980896,316
809.099731,323
809.218506,308
809.337341,324
809.456116,308
809.57489,324
809.693726,319
809.8125,307
809.931274,324
810.050049,317
810.168884,310
810.287659,326
810.406372,320
810.525269,328
810.643982,315
810.762756,314
810.881531,304
811.000305,320
811.11908,313
811.237854,316
811.356567,316
811.475403,326
811.594116,320
811.71283,339
811.831604,337
811.950378,318
812.069153,322
812.187927,312
812.30658,327
812.425415,330
812.544128,320
812.662781,306
812.781616,312
812.900269,308
813.019043,319
813.137756,317
813.256531,312
813.375244,305
813.493896,311
813.612671,302
813.731384,313
813.850037,305
813.96875,322
814.087524,324
814.206238,321
814.324951,322
814.443604,313
814.562256,311
814.68103,320
814.799683,334
814.918335,306
815.037109,318
815.155762,332
815.274475,327
815.393188,324
815.511841,324
815.630554,308
815.749146,320
815.867859,319
815.986572,322
816.105164,314
816.223877,312
816.342529,313
816.461182,308
816.579895,318
816.698486,328
816.817139,324
816.935791,324
817.054504,312
817.173096,311
817.291748,325
817.4104,319
817.529053,316
817.647644,311
817.766235,318
817.884949,312
818.00354,326
818.122192,322
818.240845,319
818.359436,327
818.478088,306
818.59668,322
818.715271,328
818.833923,317
818.952515,318
819.071106,320
819.189758,312
819.30835,320
819.426941,327
819.545532,317
819.664124,324
819.782715,302
819.901306,313
820.019897,324
820.138489,316
820.25708,319
820.375671,313
820.494202,318
820.612732,313
820.731384,296
820.849915,315
820.968506,310
821.087097,315
821.205627,324
821.324158,323
821.442749,325
821.561279,311
821.679871,319
821.798401,323
821.916931,305
822.035461,324
822.154053,323
822.272583,327
822.391174,316
822.509583,317
822.628174,313
822.746704,312
822.865234,319
822.983765,314
823.102295,311
823.220825,301
823.339294,323
823.457825,318
823.576355,323
823.694824,326
823.813354,316
823.931885,318
824.050354,320
824.168884,315
824.287354,308
824.405823,314
824.524353,303
824.642822,321
824.761353,326
824.879822,316
824.998291,316
825.116699,326
825.235291,306
825.353699,303
825.472168,310
825.590637,331
825.709106,320
825.827576,309
825.946045,319
826.064453,319
826.182983,317
826.301392,325
826.4198,324
826.53833,319
826.656738,321
826.775208,309
826.893677,318
827.012024,313
827.130493,311
827.248962,310
827.36731,315
827.485779,312
827.604248,324
827.722595,311
827.841064,323
827.959412,321
828.077942,315
828.196289,314
828.314636,315
828.433105,318
828.551514,310
828.669861,328
828.78833,319
828.906677,340
829.025085,325
829.143433,319
829.261841,312
829.38031,324
829.498657,312
829.617004,325
829.735413,314
829.85376,314
829.972107,327
830.090515,320
830.208862,313
830.327209,309
830.445557,305
830.563904,314
830.682312,316
830.800659,322
830.919006,318
831.037354,324
831.155701,320
831.274048,313
831.392395,320
831.51062,316
831.629028,324
831.747314,323
831.865662,314
831.984009,314
832.102356,334
832.220642,314
832.338928,314
832.457275,304
832.575623,332
832.693909,324
832.812134,309
832.930481,311
833.048828,309
833.167114,308
833.2854,317
833.403687,320
833.521973,325
833.640259,323
833.758545,319
833.876831,306
833.995056,318
834.113281,321
834.231628,317
834.349915,315
834.468201,323
834.586426,323
834.704651,331
834.822998,314
834.941162,315
835.059448,316
835.177673,316
835.295959,316
835.414246,317
835.53241,313
835.650635,299
835.768921,315
835.887146,320
836.005371,313
836.123596,311
836.241821,322
836.360046,313
836.478271,329
836.596497,311
836.714722,325
836.832886,315
836.95105,326
837.069336,307
837.1875,312
837.305725,325
837.423889,335
837.542053,319
837.660339,308
837.778503,307
837.896667,304
838.014832,319
838.132996,321
838.25116,316
838.369385,319
838.487488,315
838.605713,315
838.723877,317
838.84198,313
838.960205,306
839.078308,316
839.196472,304
839.314636,320
839.4328,310
839.550964,328
839.669067,335
839.787231,321
839.905396,323
840.023499,333
840.141602,320
840.259766,312
840.377869,314
840.495972,313
840.614136,315
840.732239,312
840.850342,317
840.968445,325
841.086548,311
841.204651,319
841.322754,324
841.440918,315
841.55896,308
841.677002,311
841.795166,325
841.913208,308
842.031311,313
842.149353,309
842.267456,309
842.385498,315
842.503601,326
842.621643,321
842.739746,323
842.857788,323
842.97583,320
843.093933,314
843.211975,304
843.330017,322
843.44812,307
843.566101,334
843.684204,312
843.802246,313
843.920227,326
844.038269,318
844.156311,316
844.274292,322
844.392395,315
844.510376,308
844.628357,307
844.74646,325
844.864441,315
844.982422,314
845.100403,317
845.218384,312
845.336426,323
845.454468,312
845.572449,304
845.69043,320
845.808411,317
845.926453,316
846.044373,311
846.162354,315
846.280396,307
846.398315,322
846.516296,322
846.634216,322
846.752197,323
846.870178,320
846.988098,313
847.106079,322
847.22406,321
847.34198,320
847.4599,312
847.577881,320
847.695801,321
847.813782,307
847.931641,313
848.049561,313
848.167603,312
848.285461,314
848.403381,304
848.521362,323
848.639221,312
848.75708,307
848.875,322
848.99292,305
849.110901,316
849.22876,312
849.34668,311
849.464539,316
849.582458,325
849.700317,313
849.818176,308
849.936096,324
850.053955,315
850.171875,324
850.289673,300
850.407593,325
850.525452,316
850.643311,328
850.761169,325
850.878967,311
850.996887,312
851.114746,301
851.232544,328
851.350403,330
851.468262,306
851.58606,322
851.703979,292
851.821777,312
851.939636,314
852.057434,317
852.175232,319
852.293091,308
852.410889,322
852.528687,332
852.646545,316
852.764343,312
852.88208,323
852.999939,329
853.117676,330
853.235535,321
853.353271,313
853.471069,308
853.588928,327
853.706604,312
853.824402,307
853.9422,322
854.059998,316
854.177734,330
854.295532,314
854.413269,319
854.531006,320
854.648804,310
854.766541,323
854.884277,332
855.002014,317
855.119751,299
855.237549,316
855.355225,318
855.473022,311
855.590698,316
855.708435,319
855.826172,316
855.943848,318
856.061646,323
856.179321,310
856.296997,306
856.414795,314
856.53241,319
856.650085,328
856.767822,307
856.885559,332
857.003174,318
857.120911,321
857.238586,318
857.356201,323
857.473938,317
857.591614,327
857.709351,312
857.826965,320
857.944641,313
858.062317,335
858.179993,313
858.297668,313
858.415283,320
858.532959,302
858.650574,322
858.768188,318
858.885803,302
859.003479,323
859.121094,328
859.23877,328
859.356384,312
859.473999,318
859.591675,323
859.709229,305
859.826843,310
859.944458,322
860.062012,310
860.179626,325
860.297302,313
860.414856,313
860.532471,321
860.650024,319
860.767639,310
860.885193,323
861.002808,316
861.120361,312
861.237976,323
861.35553,317
861.473022,313
861.590698,322
861.708191,321
861.825745,324
861.943298,318
862.060852,309
862.178406,319
862.295959,303
862.413513,332
862.531006,316
862.64856,308
862.766113,313
862.883667,309
863.00116,319
863.118713,319
863.236206,321
863.353699,316
863.471252,315
863.588745,313
863.706177,310
863.82373,313
863.941162,321
864.058716,314
864.176208,315
864.29364,321
864.411194,310
864.528687,319
864.646118,324
864.763611,313
864.881042,326
864.998535,321
865.116028,318
865.233459,306
865.350891,312
865.468384,323
865.585754,314
865.703308,327
865.820679,317
865.938171,316
866.055542,311
866.173035,312
866.290466,314
866.407837,303
866.52533,320
866.6427,315
866.760071,306
866.877563,312
866.994934,313
867.112305,319
867.229736,324
867.347107,307
867.464539,328
867.58197,321
867.699341,307
867.81665,321
867.934082,306
868.051453,311
868.168823,324
868.286194,314
868.403564,318
868.520935,316
868.638306,318
868.755676,322
868.872986,310
868.990295,317
869.107727,311
869.225037,328
869.342346,309
869.459717,332
869.577026,318
869.694336,315
869.811707,314
869.929016,316
870.046326,321
870.163635,325
870.280945,300
870.398254,322
870.515564,306
870.632812,313
870.750183,322
870.867432,315
870.984741,316
871.102051,316
871.219299,317
871.336609,318
871.453918,312
871.571106,316
871.688416,322
871.805664,330
871.922852,310
872.040222,301
872.157471,320
872.274719,312
872.391968,310
872.509155,320
872.626465,308
872.743652,324
872.860962,320
872.978149,321
873.095337,319
873.212646,339
873.329834,318
873.44696,314
873.564209,317
873.681396,296
873.798645,314
873.915894,332
874.03302,312
874.150208,299
874.267456,321
874.384583,322
874.501831,306
874.618958,327
874.736145,327
874.853333,331
874.970459,312
875.087646,318
875.204834,321
875.32196,317
875.439148,307
875.556274,332
875.673401,306
875.790527,306
875.907715,319
876.024841,324
876.141968,312
876.259094,319
876.376282,306
876.493347,319
876.610474,304
876.7276,309
876.844727,313
876.961853,311
877.078918,315
877.195984,311
877.313171,330
877.430237,306
877.547302,310
877.664368,316
877.781433,331
877.898499,310
878.015625,315
878.13269,318
878.249695,318
878.366821,321
878.483887,317
878.600952,323
878.717957,308
878.834961,333
878.952087,318
879.069092,312
879.186157,333
879.303162,306
879.420227,312
879.537231,317
879.654236,326
879.77124,302
879.888306,316
880.005249,311
880.122314,322
880.239319,306
880.356323,304
880.473328,330
880.590271,323
880.707275,326
880.824341,320
880.941284,316
881.058228,315
881.175232,311
881.292236,320
881.40918,305
881.526123,322
881.643066,308
881.760071,322
881.877014,323
881.993958,330
882.11084,313
882.227783,309
882.344727,309
882.46167,327
882.578613,320
882.695618,318
882.812439,324
882.929382,317
883.046326,312
883.163208,315
883.280151,321
883.397034,315
883.513916,323
883.630798,312
883.747742,329
883.864563,323
883.981506,321
884.098389,311
884.21521,306
884.332153,323
884.448975,317
884.565796,318
884.682678,323
884.7995,325
884.916443,310
885.033264,326
885.150085,315
885.266968,323
885.383789,323
885.500671,312
885.617493,318
885.734314,321
885.851196,321
885.967896,322
886.084717,320
886.201599,320
886.318359,318
886.435181,321
886.552002,306
886.668762,318
886.785645,309
886.902344,307
887.019165,329
887.135925,318
887.252747,315
887.369446,327
887.486267,310
887.603027,312
887.719788,328
887.836548,305
887.953247,310
888.070068,311
888.186829,325
888.303528,313
888.420288,314
888.536987,317
888.653687,327
888.770447,312
888.887146,326
889.003967,314
889.120667,314
889.237305,316
889.354065,323
889.470703,309
889.587463,319
889.704163,315
889.820862,324
889.937561,324
890.054199,307
890.170837,308
890.287598,319
890.404236,328
890.520874,322
890.637634,313
890.754211,320
890.87085,300
890.987549,313
891.104187,326
891.220886,325
891.337463,316
891.454102,309
891.57074,306
891.687378,309
891.804077,317
891.920654,314
892.037231,318
892.15387,322
892.270447,310
892.387085,320
892.503723,313
892.6203,327
892.736877,313
892.853516,321
892.970032,318
893.08667,314
893.203186,305
893.319763,309
893.43634,312
893.552917,314
893.669556,313
893.786011,314
893.902588,327
894.019165,323
894.135681,318
894.252197,313
894.368835,330
894.485291,313
894.601868,314
894.718384,330
894.8349,317
894.951355,325
895.067932,314
895.184448,317
895.300964,319
895.417419,319
895.533936,312
895.650452,318
895.766907,320
895.883423,326
895.999878,320
896.116333,316
896.232849,303
896.349304,325
896.465759,316
896.582214,323
896.698669,317
896.815125,319
896.931641,313
897.048035,323
897.164551,326
897.280884,315
897.397339,323
897.513794,324
897.630249,323
897.746582,318
897.863098,321
897.979431,318
898.095886,323
898.212341,306
898.328674,325
898.445129,319
898.561462,312
898.677795,316
898.794312,302
898.910645,318
899.026978,319
899.143433,327
899.259766,329
899.37616,327
899.492493,323
899.608765,317
899.725159,323
899.841553,327
899.957947,310
900.07428,311
900.190552,310
900.306946,312
900.423157,302
900.53949,317
900.655884,323
900.772156,308
900.888489,309
901.004822,331
901.121033,316
901.237366,321
901.353699,315
901.46991,314
901.586304,321
901.702515,315
901.818787,309
901.93512,318
902.051331,316
902.167603,317
902.283875,320
902.400085,317
902.516418,331
902.632629,317
902.74884,318
902.865112,314
902.981384,319
903.097595,327
903.213867,318
903.330017,348
903.446289,327
903.5625,314
903.67865,313
903.794922,308
903.911072,321
904.027344,310
904.143494,330
904.259705,326
904.375916,315
904.492065,323
904.608215,316
904.724426,316
904.840576,324
904.956726,325
905.072876,336
905.189087,318
905.305176,319
905.421387,310
905.537537,323
905.653687,317
905.769775,316
905.885925,316
906.002014,308
906.118164,303
906.234314,318
906.350403,328
906.466492,307
906.582642,330
906.69873,317
906.814758,317
906.930908,310
907.046936,315
907.163086,313
907.279175,313
907.395264,324
907.511353,327
907.62738,316
907.743408,316
907.859497,316
907.975525,322
908.091553,322
908.207703,332
908.32373,319
908.439758,314
908.555786,319
908.671814,320
908.787842,312
908.90387,335
909.019775,316
909.135864,315
909.251892,317
909.367859,329
909.483826,306
909.599854,307
909.715881,306
909.831848,318
909.947815,317
910.063782,317
910.179749,316
910.295776,324
910.411743,311
910.527649,317
910.643616,316
910.759583,317
910.875488,318
910.991455,311
911.107361,325
911.223267,320
911.339294,319
911.4552,309
911.571106,325
911.687073,317
911.802979,316
911.918823,318
912.034729,324
912.150635,321
912.266602,305
912.382446,313
912.498352,320
912.614197,329
912.730103,317
912.846008,310
792.44574,323
792.56488,341
792.68396,403
792.80304,381
792.92218,327
793.041199,308
793.160339,314
793.279419,330
793.398499,327
793.517578,294
793.636658,320
793.755737,324
793.874817,334
793.993896,339
794.112976,327
794.232056,322
794.351074,312
794.470215,331
794.589233,336
794.708313,320
794.827393,321
794.946411,329
795.065552,324
795.18457,339
795.303589,321
795.422668,340
795.541687,318
795.660767,323
795.779846,329
795.898865,321
796.017883,321
796.136963,325
796.255981,320
796.375061,316
796.49408,341
796.613037,340
796.732117,330
796.851135,312
796.970154,341
797.089233,322
797.208191,321
797.327271,323
797.446228,317
797.565186,321
797.684265,317
797.803223,326
797.922241,331
798.04126,317
798.160278,322
798.279297,320
798.398315,320
798.517273,313
798.636292,329
798.75531,315
798.874268,334
798.993286,333
799.112244,326
799.231323,324
799.350281,328
799.469238,323
799.588257,316
799.707153,345
799.826111,319
799.945129,320
800.064087,311
800.183044,327
800.302063,313
800.421021,325
800.539978,323
800.658936,324
800.777893,332
800.896912,313
801.015747,321
801.134705,321
801.253723,325
801.37262,324
801.491638,336
801.610535,333
801.729492,316
801.84845,315
801.967407,320
802.086243,323
802.205261,332
802.324158,322
802.443115,322
802.562073,321
802.680969,320
802.799927,335
802.918762,327
803.037659,313
803.156677,322
803.275574,322
803.39447,316
803.513428,326
803.632263,315
803.751221,314
803.870117,325
803.989014,320
804.107971,311
804.226746,324
804.345642,327
804.4646,314
804.583496,321
804.702393,310
804.821228,340
804.940125,326
805.059021,315
805.177917,321
805.296814,313
805.415649,314
805.534546,314
805.653442,316
805.772278,321
805.891113,311
806.01001,318
806.128906,326
806.247742,305
806.366577,315
806.485413,317
806.604309,337
806.723145,333
806.84198,308
806.960876,329
807.079712,327
807.198486,321
807.317383,315
807.436218,319
807.554993,315
807.673889,317
807.792725,327
807.91156,315
808.030396,327
808.14917,317
808.268005,322
808.386841,324
808.505676,321
808.624451,318
808.743286,312
808.862122,318
808.980896,314
809.099731,320
809.218506,324
809.337341,317
809.456116,321
809.57489,312
809.693726,316
809.8125,327
809.931274,315
810.050049,327
810.168884,308
810.287659,329
810.406372,307
810.525269,322
810.643982,310
810.762756,317
810.881531,310
811.000305,317
811.11908,333
811.237854,322
811.356567,321
811.475403,313
811.594116,322
811.71283,328
811.831604,324
811.950378,335
812.069153,313
812.187927,316
812.30658,317
812.425415,313
812.544128,319
812.662781,317
812.781616,290
812.900269,325
813.019043,328
813.137756,321
813.256531,321
813.375244,318
813.493896,320
813.612671,330
813.731384,318
813.850037,321
813.96875,311
814.087524,321
814.206238,320
814.324951,327
814.443604,314
814.562256,321
814.68103,325
814.799683,313
814.918335,320
815.037109,325
815.155762,314
815.274475,314
815.393188,308
815.511841,320
815.630554,324
815.749146,321
815.867859,325
815.986572,318
816.105164,319
816.223877,322
816.342529,295
816.461182,321
816.579895,325
816.698486,316
816.817139,306
816.935791,317
817.054504,318
817.173096,318
817.291748,321
817.4104,327
817.529053,299
817.647644,321
817.766235,325
817.884949,315
818.00354,307
818.122192,322
818.240845,317
818.359436,308
818.478088,313
818.59668,320
818.715271,308
818.833923,323
818.952515,323
819.071106,317
819.189758,312
819.30835,318
819.426941,308
819.545532,326
819.664124,319
819.782715,324
819.901306,317
820.019897,326
820.138489,315
820.25708,322
820.375671,319
820.494202,309
820.612732,319
820.731384,322
820.849915,305
820.968506,323
821.087097,310
821.205627,325
821.324158,319
821.442749,316
821.561279,320
821.679871,307
821.798401,310
821.916931,335
822.035461,313
822.154053,316
822.272583,314
822.391174,319
822.509583,322
822.628174,329
822.746704,314
822.865234,290
822.983765,329
823.102295,315
823.220825,310
823.339294,322
823.457825,304
823.576355,336
823.694824,314
823.813354,317
823.931885,305
824.050354,321
824.168884,324
824.287354,309
824.405823,321
824.524353,320
824.642822,313
824.761353,315
824.879822,330
824.998291,308
825.116699,308
825.235291,310
825.353699,331
825.472168,327
825.590637,314
825.709106,313
825.827576,306
825.946045,323
826.064453,317
826.182983,307
826.301392,322
826.4198,317
826.53833,330
826.656738,311
826.775208,317
826.893677,310
827.012024,310
827.130493,314
827.248962,325
827.36731,320
827.485779,315
827.604248,313
827.722595,323
827.841064,308
827.959412,317
828.077942,319
828.196289,318
828.314636,324
828.433105,321
828.551514,317
828.669861,313
828.78833,314
828.906677,302
829.025085,315
829.143433,299
829.261841,307
829.38031,317
829.498657,321
829.617004,313
829.735413,310
829.85376,313
829.972107,310
830.090515,319
830.208862,317
830.327209,312
830.445557,310
830.563904,315
830.682312,322
830.800659,304
830.919006,301
831.037354,324
831.155701,315
831.274048,316
831.392395,326
831.51062,312
831.629028,320
831.747314,315
831.865662,307
831.984009,319
832.102356,314
832.220642,302
832.338928,320
832.457275,313
832.575623,325
832.693909,322
832.812134,318
832.930481,316
833.048828,323
833.167114,317
833.2854,318
833.403687,319
833.521973,307
833.640259,319
833.758545,310
833.876831,316
833.995056,306
834.113281,298
834.231628,321
834.349915,313
834.468201,319
834.586426,312
834.704651,311
834.822998,324
834.941162,324
835.059448,320
835.177673,312
835.295959,321
835.414246,322
835.53241,316
835.650635,317
835.768921,323
835.887146,309
836.005371,313
836.123596,310
836.241821,312
836.360046,323
836.478271,314
836.596497,310
836.714722,314
836.832886,322
836.95105,320
837.069336,324
837.1875,309
837.305725,305
837.423889,308
837.542053,333
837.660339,314
837.778503,313
837.896667,303
838.014832,324
838.132996,317
838.25116,316
838.369385,326
838.487488,311
838.605713,315
838.723877,322
838.84198,328
838.960205,320
839.078308,322
839.196472,320
839.314636,319
839.4328,322
839.550964,317
839.669067,312
839.787231,305
839.905396,336
840.023499,300
840.141602,311
840.259766,311
840.377869,303
840.495972,313
840.614136,319
840.732239,324
840.850342,322
840.968445,314
841.086548,303
841.204651,304
841.322754,311
841.440918,311
841.55896,319
841.677002,316
841.795166,326
841.913208,312
842.031311,318
842.149353,315
842.267456,320
842.385498,305
842.503601,325
842.621643,303
842.739746,311
842.857788,315
842.97583,324
843.093933,314
843.211975,321
843.330017,302
843.44812,313
843.566101,308
843.684204,318
843.802246,305
843.920227,328
844.038269,311
844.156311,327
844.274292,321
844.392395,320
844.510376,301
844.628357,312
844.74646,308
844.864441,315
844.982422,316
845.100403,317
845.218384,310
845.336426,329
845.454468,301
845.572449,317
845.69043,305
845.808411,323
845.926453,303
846.044373,316
846.162354,323
846.280396,323
846.398315,303
846.516296,310
846.634216,323
846.752197,316
846.870178,302
846.988098,314
847.106079,318
847.22406,312
847.34198,315
847.4599,322
847.577881,319
847.695801,320
847.813782,316
847.931641,321
848.049561,308
848.167603,319
848.285461,306
848.403381,301
848.521362,317
848.639221,320
848.75708,329
848.875,324
848.99292,316
849.110901,326
849.22876,310
849.34668,328
849.464539,306
849.582458,307
849.700317,316
849.818176,320
849.936096,316
850.053955,321
850.171875,304
850.289673,315
850.407593,313
850.525452,323
850.643311,318
850.761169,325
850.878967,305
850.996887,307
851.114746,324
851.232544,320
851.350403,315
851.468262,324
851.58606,312
851.703979,322
851.821777,311
851.939636,316
852.057434,321
852.175232,314
852.293091,319
852.410889,318
852.528687,315
852.646545,322
852.764343,320
852.88208,317
852.999939,304
853.117676,316
853.235535,307
853.353271,321
853.471069,313
853.588928,309
853.706604,314
853.824402,313
853.9422,311
854.059998,314
854.177734,308
854.295532,313
854.413269,320
854.531006,331
854.648804,303
854.766541,308
854.884277,327
855.002014,312
855.119751,303
855.237549,321
855.355225,307
855.473022,319
855.590698,313
855.708435,319
855.826172,318
855.943848,325
856.061646,313
856.179321,315
856.296997,305
856.414795,320
856.53241,325
856.650085,323
856.767822,315
856.885559,303
857.003174,307
857.120911,311
857.238586,306
857.356201,310
857.473938,316
857.591614,317
857.709351,310
857.826965,331
857.944641,314
858.062317,315
858.179993,313
858.297668,314
858.415283,318
858.532959,315
858.650574,307
858.768188,322
858.885803,317
859.003479,328
859.121094,315
859.23877,318
859.356384,319
859.473999,319
859.591675,322
859.709229,320
859.826843,318
859.944458,328
860.062012,311
860.179626,324
860.297302,307
860.414856,321
860.532471,324
860.650024,321
860.767639,318
860.885193,311
861.002808,297
861.120361,314
861.237976,311
861.35553,316
861.473022,307
861.590698,322
861.708191,318
861.825745,316
861.943298,325
862.060852,318
862.178406,310
862.295959,312
862.413513,318
862.531006,317
862.64856,319
862.766113,318
862.883667,317
863.00116,319
863.118713,323
863.236206,315
863.353699,315
863.471252,319
863.588745,317
863.706177,323
863.82373,327
863.941162,324
864.058716,322
864.176208,332
864.29364,306
864.411194,323
864.528687,303
864.646118,318
864.763611,316
864.881042,320
864.998535,316
865.116028,323
865.233459,312
865.350891,322
865.468384,312
865.585754,324
865.703308,319
865.820679,310
865.938171,291
866.055542,320
866.173035,313
866.290466,321
866.407837,317
866.52533,324
866.6427,323
866.760071,316
866.877563,321
866.994934,322
867.112305,321
867.229736,329
867.347107,319
867.464539,316
867.58197,324
867.699341,313
867.81665,319
867.934082,319
868.051453,312
868.168823,320
868.286194,318
868.403564,321
868.520935,301
868.638306,317
868.755676,328
868.872986,310
868.990295,325
869.107727,305
869.225037,321
869.342346,317
869.459717,321
869.577026,316
869.694336,317
869.811707,326
869.929016,310
870.046326,325
870.163635,311
870.280945,306
870.398254,318
870.515564,318
870.632812,329
870.750183,309
870.867432,316
870.984741,309
871.102051,316
871.219299,313
871.336609,303
871.453918,308
871.571106,317
871.688416,306
871.805664,300
871.922852,322
872.040222,314
872.157471,315
872.274719,315
872.391968,305
872.509155,330
872.626465,314
872.743652,309
872.860962,317
872.978149,309
873.095337,324
873.212646,314
873.329834,311
873.44696,307
873.564209,306
873.681396,307
873.798645,325
873.915894,306
874.03302,315
874.150208,310
874.267456,315
874.384583,325
874.501831,323
874.618958,318
874.736145,324
874.853333,314
874.970459,323
875.087646,309
875.204834,316
875.32196,299
875.439148,314
875.556274,321
875.673401,318
875.790527,319
875.907715,316
876.024841,316
876.141968,320
876.259094,322
876.376282,329
876.493347,322
876.610474,314
876.7276,309
876.844727,312
876.961853,317
877.078918,295
877.195984,316
877.313171,321
877.430237,309
877.547302,323
877.664368,319
877.781433,327
877.898499,313
878.015625,328
878.13269,306
878.249695,333
878.366821,303
878.483887,317
878.600952,320
878.717957,307
878.834961,322
878.952087,316
879.069092,323
879.186157,313
879.303162,311
879.420227,318
879.537231,313
879.654236,311
879.77124,318
879.888306,324
880.005249,309
880.122314,325
880.239319,308
880.356323,321
880.473328,312
880.590271,318
880.707275,323
880.824341,326
880.941284,305
881.058228,315
881.175232,321
881.292236,314
881.40918,307
881.526123,319
881.643066,318
881.760071,304
881.877014,314
881.993958,332
882.11084,313
882.227783,327
882.344727,310
882.46167,308
882.578613,309
882.695618,318
882.812439,313
882.929382,316
883.046326,323
883.163208,318
883.280151,315
883.397034,315
883.513916,300
883.630798,328
883.747742,317
883.864563,329
883.981506,319
884.098389,317
884.21521,317
884.332153,316
884.448975,328
884.565796,316
884.682678,311
884.7995,340
884.916443,328
885.033264,316
885.150085,317
885.266968,326
885.383789,320
885.500671,313
885.617493,315
885.734314,325
885.851196,319
885.967896,313
886.084717,335
886.201599,314
886.318359,324
886.435181,310
886.552002,328
886.668762,316
886.785645,305
886.902344,320
887.019165,314
887.135925,316
887.252747,315
887.369446,310
887.486267,315
887.603027,303
887.719788,315
887.836548,311
887.953247,300
888.070068,325
888.186829,298
888.303528,309
888.420288,327
888.536987,306
888.653687,319
888.770447,322
888.887146,311
889.003967,321
889.120667,308
889.237305,330
889.354065,317
889.470703,337
889.587463,311
889.704163,326
889.820862,314
889.937561,320
890.054199,310
890.170837,331
890.287598,321
890.404236,319
890.520874,315
890.637634,308
890.754211,323
890.87085,321
890.987549,313
891.104187,313
891.220886,316
891.337463,316
891.454102,325
891.57074,318
891.687378,315
891.804077,321
891.920654,311
892.037231,309
892.15387,329
892.270447,317
892.387085,321
892.503723,329
892.6203,307
892.736877,319
892.853516,308
892.970032,318
893.08667,324
893.203186,314
893.319763,312
893.43634,312
893.552917,314
893.669556,315
893.786011,307
893.902588,327
894.019165,302
894.135681,323
894.252197,308
894.368835,317
894.485291,313
894.601868,310
894.718384,310
894.8349,315
894.951355,302
895.067932,318
895.184448,324
895.300964,327
895.417419,313
895.533936,307
895.650452,309
895.766907,313
895.883423,305
895.999878,316
896.116333,315
896.232849,325
896.349304,313
896.465759,318
896.582214,306
896.698669,324
896.815125,319
896.931641,323
897.048035,321
897.164551,303
897.280884,307
897.397339,313
897.513794,308
897.630249,331
897.746582,305
897.863098,325
897.979431,324
898.095886,323
898.212341,312
898.328674,321
898.445129,314
898.561462,324
898.677795,316
898.794312,314
898.910645,309
899.026978,320
899.143433,309
899.259766,320
899.37616,318
899.492493,328
899.608765,325
899.725159,320
899.841553,304
899.957947,320
900.07428,309
900.190552,310
900.306946,311
900.423157,320
900.53949,313
900.655884,319
900.772156,319
900.888489,333
901.004822,306
901.121033,326
901.237366,325
901.353699,328
901.46991,315
901.586304,317
901.702515,314
901.818787,316
901.93512,312
902.051331,334
902.167603,322
902.283875,318
902.400085,308
902.516418,313
902.632629,324
902.74884,314
902.865112,310
902.981384,317
903.097595,317
903.213867,330
903.330017,306
903.446289,329
903.5625,323
903.67865,324
903.794922,304
903.911072,325
904.027344,320
904.143494,329
904.259705,310
904.375916,323
904.492065,308
904.608215,323
904.724426,309
904.840576,322
904.956726,313
905.072876,322
905.189087,314
905.305176,315
905.421387,316
905.537537,317
905.653687,312
905.769775,323
905.885925,316
906.002014,310
906.118164,319
906.234314,308
906.350403,311
906.466492,323
906.582642,295
906.69873,318
906.814758,315
906.930908,323
907.046936,312
907.163086,315
907.279175,310
907.395264,314
907.511353,307
907.62738,311
907.743408,316
907.859497,317
907.975525,307
908.091553,313
908.207703,305
908.32373,310
908.439758,318
908.555786,316
908.671814,322
908.787842,329
908.90387,317
909.019775,343
909.135864,307
909.251892,319
909.367859,318
909.483826,326
909.599854,308
909.715881,329
909.831848,318
909.947815,319
910.063782,328
910.179749,320
910.295776,317
910.411743,316
910.527649,331
910.643616,318
910.759583,316
910.875488,331
910.991455,321
911.107361,314
911.223267,309
911.339294,321
911.4552,306
911.571106,317
911.687073,306
911.802979,323
911.918823,334
912.034729,328
912.150635,310
912.266602,319
912.382446,301
912.498352,304
912.614197,308
912.730103,323
912.846008,301
