792.44574,295
792.56488,344
792.68396,374
792.80304,362
792.92218,309
793.041199,317
793.160339,317
793.279419,309
793.398499,324
793.517578,305
793.636658,307
793.755737,329
793.874817,340
793.993896,331
794.112976,335
794.232056,315
794.351074,336
794.470215,326
794.589233,323
794.708313,309
794.827393,323
794.946411,331
795.065552,320
795.18457,321
795.303589,311
795.422668,318
795.541687,322
795.660767,320
795.779846,322
795.898865,304
796.017883,322
796.136963,323
796.255981,317
796.375061,331
796.49408,323
796.613037,330
796.732117,316
796.851135,305
796.970154,326
797.089233,317
797.208191,316
797.327271,308
797.446228,318
797.565186,321
797.684265,326
797.803223,327
797.922241,322
798.04126,322
798.160278,325
798.279297,321
798.398315,338
798.517273,323
798.636292,311
798.75531,327
798.874268,338
798.993286,338
799.112244,324
799.231323,320
799.350281,321
799.469238,331
799.588257,323
799.707153,308
799.826111,310
799.945129,324
800.064087,315
800.183044,312
800.302063,323
800.421021,311
800.539978,332
800.658936,317
800.777893,329
800.896912,317
801.015747,306
801.134705,324
801.253723,313
801.37262,313
801.491638,326
801.610535,318
801.729492,321
801.84845,326
801.967407,308
802.086243,308
802.205261,326
802.324158,317
802.443115,325
802.562073,313
802.680969,339
802.799927,313
802.918762,323
803.037659,318
803.156677,310
803.275574,325
803.39447,319
803.513428,322
803.632263,314
803.751221,311
803.870117,331
803.989014,311
804.107971,321
804.226746,319
804.345642,323
804.4646,331
804.583496,320
804.702393,311
804.821228,324
804.940125,321
805.059021,316
805.177917,318
805.296814,318
805.415649,316
805.534546,338
805.653442,318
805.772278,306
805.891113,309
806.01001,336
806.128906,311
806.247742,308
806.366577,319
806.485413,326
806.604309,334
806.723145,313
806.84198,326
806.960876,317
807.079712,332
807.198486,328
807.317383,319
807.436218,324
807.554993,312
807.673889,318
807.792725,331
807.91156,315
808.030396,305
808.14917,329
808.268005,325
808.386841,326
808.505676,305
808.624451,317
808.743286,308
808.862122,334
808.980896,307
809.099731,328
809.218506,302
809.337341,305
809.456116,318
809.57489,322
809.693726,308
809.8125,318
809.931274,311
810.050049,319
810.168884,313
810.287659,327
810.406372,328
810.525269,316
810.643982,320
810.762756,323
810.881531,319
811.000305,322
811.11908,322
811.237854,327
811.356567,323
811.475403,328
811.594116,327
811.71283,313
811.831604,318
811.950378,316
812.069153,312
812.187927,330
812.30658,316
812.425415,320
812.544128,311
812.662781,323
812.781616,317
812.900269,324
813.019043,313
813.137756,322
813.256531,320
813.375244,326
813.493896,315
813.612671,328
813.731384,324
813.850037,317
813.96875,321
814.087524,325
814.206238,311
814.324951,306
814.443604,325
814.562256,313
814.68103,305
814.799683,322
814.918335,323
815.037109,314
815.155762,316
815.274475,318
815.393188,313
815.511841,305
815.630554,328
815.749146,316
815.867859,331
815.986572,320
816.105164,321
816.223877,315
816.342529,323
816.461182,317
816.579895,315
816.698486,299
816.817139,314
816.935791,317
817.054504,313
817.173096,331
817.291748,318
817.4104,316
817.529053,322
817.647644,319
817.766235,322
817.884949,324
818.00354,320
818.122192,328
818.240845,319
818.359436,320
818.478088,315
818.59668,338
818.715271,320
818.833923,317
818.952515,321
819.071106,317
819.189758,321
819.30835,322
819.426941,317
819.545532,320
819.664124,310
819.782715,323
819.901306,322
820.019897,322
820.138489,319
820.25708,317
820.375671,321
820.494202,311
820.612732,320
820.731384,318
820.849915,309
820.968506,319
821.087097,308
821.205627,325
821.324158,319
821.442749,314
821.561279,317
821.679871,316
821.798401,318
821.916931,319
822.035461,311
822.154053,320
822.272583,306
822.391174,314
822.509583,316
822.628174,304
822.746704,310
822.865234,331
822.983765,305
823.102295,316
823.220825,317
823.339294,323
823.457825,311
823.576355,305
823.694824,326
823.813354,309
823.931885,324
824.050354,318
824.168884,310
824.287354,313
824.405823,315
824.524353,320
824.642822,309
824.761353,314
824.879822,321
824.998291,309
825.116699,309
825.235291,319
825.353699,325
825.472168,323
825.590637,305
825.709106,325
825.827576,315
825.946045,320
826.064453,308
826.182983,337
826.301392,322
826.4198,321
826.53833,327
826.656738,322
826.775208,317
826.893677,324
827.012024,310
827.130493,317
827.248962,328
827.36731,317
827.485779,323
827.604248,312
827.722595,312
827.841064,306
827.959412,317
828.077942,303
828.196289,306
828.314636,320
828.433105,302
828.551514,305
828.669861,318
828.78833,305
828.906677,301
829.025085,304
829.143433,310
829.261841,318
829.38031,321
829.498657,311
829.617004,320
829.735413,319
829.85376,316
829.972107,327
830.090515,317
830.208862,330
830.327209,307
830.445557,315
830.563904,314
830.682312,317
830.800659,314
830.919006,315
831.037354,317
831.155701,319
831.274048,299
831.392395,323
831.51062,314
831.629028,328
831.747314,319
831.865662,306
831.984009,325
832.102356,319
832.220642,326
832.338928,329
832.457275,313
832.575623,315
832.693909,313
832.812134,320
832.930481,311
833.048828,324
833.167114,312
833.2854,315
833.403687,316
833.521973,312
833.640259,311
833.758545,304
833.876831,319
833.995056,322
834.113281,325
834.231628,310
834.349915,314
834.468201,314
834.586426,304
834.704651,326
834.822998,303
834.941162,313
835.059448,311
835.177673,330
835.295959,310
835.414246,322
835.53241,318
835.650635,317
835.768921,321
835.887146,321
836.005371,314
836.123596,312
836.241821,306
836.360046,314
836.478271,316
836.596497,320
836.714722,314
836.832886,312
836.95105,310
837.069336,324
837.1875,309
837.305725,310
837.423889,312
837.542053,317
837.660339,317
837.778503,307
837.896667,314
838.014832,311
838.132996,323
838.25116,317
838.369385,313
838.487488,310
838.605713,325
838.723877,309
838.84198,316
838.960205,324
839.078308,316
839.196472,315
839.314636,302
839.4328,317
839.550964,331
839.669067,315
839.787231,316
839.905396,314
840.023499,319
840.141602,323
840.259766,315
840.377869,310
840.495972,312
840.614136,315
840.732239,297
840.850342,313
840.968445,312
841.086548,319
841.204651,310
841.322754,300
841.440918,312
841.55896,324
841.677002,312
841.795166,326
841.913208,301
842.031311,313
842.149353,304
842.267456,314
842.385498,316
842.503601,317
842.621643,315
842.739746,305
842.857788,318
842.97583,312
843.093933,300
843.211975,318
843.330017,302
843.44812,329
843.566101,312
843.684204,319
843.802246,317
843.920227,306
844.038269,308
844.156311,314
844.274292,307
844.392395,303
844.510376,327
844.628357,316
844.74646,307
844.864441,311
844.982422,313
845.100403,316
845.218384,307
845.336426,317
845.454468,303
845.572449,314
845.69043,309
845.808411,313
845.926453,311
846.044373,302
846.162354,304
846.280396,317
846.398315,326
846.516296,310
846.634216,305
846.752197,328
846.870178,327
846.988098,319
847.106079,298
847.22406,325
847.34198,328
847.4599,324
847.577881,304
847.695801,318
847.813782,308
847.931641,327
848.049561,319
848.167603,328
848.285461,316
848.403381,309
848.521362,330
848.639221,315
848.75708,313
848.875,330
848.99292,314
849.110901,326
849.22876,311
849.34668,315
849.464539,307
849.582458,325
849.700317,322
849.818176,310
849.936096,312
850.053955,310
850.171875,308
850.289673,314
850.407593,316
850.525452,312
850.643311,322
850.761169,316
850.878967,322
850.996887,317
851.114746,320
851.232544,330
851.350403,308
851.468262,314
851.58606,308
851.703979,317
851.821777,307
851.939636,320
852.057434,315
852.175232,327
852.293091,311
852.410889,318
852.528687,312
852.646545,320
852.764343,314
852.88208,305
852.999939,321
853.117676,310
853.235535,323
853.353271,320
853.471069,303
853.588928,308
853.706604,311
853.824402,322
853.9422,313
854.059998,320
854.177734,313
854.295532,308
854.413269,327
854.531006,306
854.648804,310
854.766541,327
854.884277,303
855.002014,310
855.119751,322
855.237549,310
855.355225,315
855.473022,316
855.590698,306
855.708435,320
855.826172,317
855.943848,329
856.061646,303
856.179321,328
856.296997,312
856.414795,333
856.53241,329
856.650085,323
856.767822,297
856.885559,324
857.003174,312
857.120911,312
857.238586,308
857.356201,325
857.473938,299
857.591614,320
857.709351,323
857.826965,321
857.944641,308
858.062317,317
858.179993,318
858.297668,327
858.415283,321
858.532959,309
858.650574,316
858.768188,320
858.885803,306
859.003479,314
859.121094,311
859.23877,319
859.356384,318
859.473999,321
859.591675,303
859.709229,320
859.826843,315
859.944458,310
860.062012,308
860.179626,314
860.297302,317
860.414856,315
860.532471,322
860.650024,322
860.767639,309
860.885193,321
861.002808,301
861.120361,320
861.237976,315
861.35553,310
861.473022,300
861.590698,311
861.708191,314
861.825745,318
861.943298,310
862.060852,303
862.178406,311
862.295959,324
862.413513,314
862.531006,315
862.64856,325
862.766113,323
862.883667,307
863.00116,329
863.118713,323
863.236206,317
863.353699,307
863.471252,332
863.588745,313
863.706177,295
863.82373,317
863.941162,315
864.058716,325
864.176208,307
864.29364,311
864.411194,312
864.528687,305
864.646118,319
864.763611,322
864.881042,323
864.998535,309
865.116028,328
865.233459,306
865.350891,316
865.468384,304
865.585754,324
865.703308,325
865.820679,319
865.938171,310
866.055542,310
866.173035,311
866.290466,329
866.407837,313
866.52533,323
866.6427,330
866.760071,318
866.877563,307
866.994934,335
867.112305,330
867.229736,321
867.347107,302
867.464539,311
867.58197,325
867.699341,316
867.81665,318
867.934082,323
868.051453,309
868.168823,327
868.286194,318
868.403564,306
868.520935,299
868.638306,332
868.755676,313
868.872986,328
868.990295,307
869.107727,313
869.225037,303
869.342346,329
869.459717,298
869.577026,318
869.694336,313
869.811707,320
869.929016,319
870.046326,330
870.163635,305
870.280945,323
870.398254,316
870.515564,306
870.632812,310
870.750183,309
870.867432,317
870.984741,322
871.102051,312
871.219299,319
871.336609,317
871.453918,323
871.571106,311
871.688416,313
871.805664,320
871.922852,321
872.040222,312
872.157471,334
872.274719,322
872.391968,323
872.509155,318
872.626465,322
872.743652,297
872.860962,318
872.978149,314
873.095337,315
873.212646,326
873.329834,307
873.44696,303
873.564209,322
873.681396,318
873.798645,310
873.915894,320
874.03302,328
874.150208,320
874.267456,314
874.384583,312
874.501831,321
874.618958,304
874.736145,315
874.853333,302
874.970459,318
875.087646,305
875.204834,323
875.32196,310
875.439148,319
875.556274,312
875.673401,312
875.790527,328
875.907715,313
876.024841,309
876.141968,324
876.259094,317
876.376282,317
876.493347,317
876.610474,312
876.7276,309
876.844727,310
876.961853,325
877.078918,323
877.195984,316
877.313171,316
877.430237,302
877.547302,317
877.664368,316
877.781433,319
877.898499,305
878.015625,307
878.13269,315
878.249695,316
878.366821,319
878.483887,310
878.600952,306
878.717957,320
878.834961,320
878.952087,323
879.069092,310
879.186157,320
879.303162,307
879.420227,321
879.537231,315
879.654236,308
879.77124,310
879.888306,306
880.005249,330
880.122314,312
880.239319,318
880.356323,313
880.473328,310
880.590271,325
880.707275,300
880.824341,318
880.941284,309
881.058228,321
881.175232,317
881.292236,297
881.40918,308
881.526123,312
881.643066,318
881.760071,327
881.877014,312
881.993958,317
882.11084,315
882.227783,309
882.344727,311
882.46167,310
882.578613,307
882.695618,319
882.812439,313
882.929382,316
883.046326,303
883.163208,318
883.280151,318
883.397034,331
883.513916,303
883.630798,311
883.747742,319
883.864563,319
883.981506,311
884.098389,311
884.21521,317
884.332153,313
884.448975,321
884.565796,312
884.682678,308
884.7995,314
884.916443,306
885.033264,318
885.150085,318
885.266968,318
885.383789,309
885.500671,319
885.617493,299
885.734314,332
885.851196,321
885.967896,312
886.084717,319
886.201599,330
886.318359,300
886.435181,313
886.552002,301
886.668762,328
886.785645,319
886.902344,323
887.019165,327
887.135925,314
887.252747,321
887.369446,311
887.486267,314
887.603027,319
887.719788,313
887.836548,319
887.953247,307
888.070068,321
888.186829,308
888.303528,329
888.420288,322
888.536987,305
888.653687,316
888.770447,336
888.887146,309
889.003967,320
889.120667,302
889.237305,326
889.354065,320
889.470703,319
889.587463,322
889.704163,305
889.820862,311
889.937561,329
890.054199,310
890.170837,321
890.287598,312
890.404236,323
890.520874,326
890.637634,313
890.754211,319
890.87085,308
890.987549,331
891.104187,323
891.220886,300
891.337463,322
891.454102,311
891.57074,317
891.687378,303
891.804077,322
891.920654,319
892.037231,316
892.15387,316
892.270447,332
892.387085,316
892.503723,306
892.6203,320
892.736877,319
892.853516,318
892.970032,309
893.08667,322
893.203186,318
893.319763,320
893.43634,310
893.552917,309
893.669556,311
893.786011,311
893.902588,319
894.019165,303
894.135681,324
894.252197,302
894.368835,335
894.485291,321
894.601868,301
894.718384,319
894.8349,320
894.951355,311
895.067932,329
895.184448,319
895.300964,311
895.417419,314
895.533936,316
895.650452,317
895.766907,323
895.883423,325
895.999878,313
896.116333,310
896.232849,314
896.349304,306
896.465759,325
896.582214,309
896.698669,319
896.815125,310
896.931641,314
897.048035,308
897.164551,310
897.280884,311
897.397339,328
897.513794,321
897.630249,314
897.746582,312
897.863098,324
897.979431,320
898.095886,326
898.212341,319
898.328674,328
898.445129,317
898.561462,316
898.677795,300
898.794312,330
898.910645,310
899.026978,322
899.143433,313
899.259766,317
899.37616,310
899.492493,327
899.608765,312
899.725159,321
899.841553,331
899.957947,317
900.07428,314
900.190552,316
900.306946,307
900.423157,317
900.53949,314
900.655884,322
900.772156,318
900.888489,317
901.004822,318
901.121033,315
901.237366,309
901.353699,326
901.46991,313
901.586304,317
901.702515,317
901.818787,326
901.93512,307
902.051331,319
902.167603,319
902.283875,321
902.400085,319
902.516418,314
902.632629,319
902.74884,320
902.865112,314
902.981384,318
903.097595,335
903.213867,316
903.330017,314
903.446289,323
903.5625,316
903.67865,316
903.794922,317
903.911072,335
904.027344,313
904.143494,309
904.259705,311
904.375916,328
904.492065,310
904.608215,315
904.724426,317
904.840576,332
904.956726,309
905.072876,321
905.189087,314
905.305176,324
905.421387,305
905.537537,324
905.653687,319
905.769775,324
905.885925,322
906.002014,315
906.118164,313
906.234314,324
906.350403,328
906.466492,327
906.582642,313
906.69873,325
906.814758,325
906.930908,315
907.046936,323
907.163086,333
907.279175,314
907.395264,316
907.511353,318
907.62738,312
907.743408,302
907.859497,335
907.975525,317
908.091553,333
908.207703,313
908.32373,315
908.439758,307
908.555786,330
908.671814,303
908.787842,330
908.90387,313
909.019775,324
909.135864,319
909.251892,307
909.367859,310
909.483826,332
909.599854,314
909.715881,316
909.831848,299
909.947815,321
910.063782,315
910.179749,324
910.295776,327
910.411743,309
910.527649,320
910.643616,327
910.759583,316
910.875488,316
910.991455,317
911.107361,332
911.223267,314
911.339294,322
911.4552,311
911.571106,312
911.687073,312
911.802979,319
911.918823,321
912.034729,314
912.150635,311
912.266602,328
912.382446,303
912.498352,324
912.614197,304
912.730103,324
912.846008,303
792.44574,310
792.56488,340
792.68396,384
792.80304,365
792.92218,319
793.041199,308
793.160339,305
793.279419,330
793.398499,315
793.517578,305
793.636658,320
793.755737,328
793.874817,330
793.993896,338
794.112976,334
794.232056,319
794.351074,321
794.470215,321
794.589233,330
794.708313,327
794.827393,301
794.946411,325
795.065552,338
795.18457,334
795.303589,326
795.422668,331
795.541687,326
795.660767,324
795.779846,317
795.898865,322
796.017883,313
796.136963,306
796.255981,316
796.375061,320
796.49408,326
796.613037,326
796.732117,330
796.851135,332
796.970154,310
797.089233,324
797.208191,308
797.327271,301
797.446228,307
797.565186,333
797.684265,307
797.803223,320
797.922241,318
798.04126,316
798.160278,323
798.279297,323
798.398315,335
798.517273,324
798.636292,335
798.75531,326
798.874268,335
798.993286,334
799.112244,319
799.231323,317
799.350281,315
799.469238,329
799.588257,312
799.707153,320
799.826111,328
799.945129,341
800.064087,313
800.183044,327
800.302063,322
800.421021,312
800.539978,307
800.658936,323
800.777893,318
800.896912,320
801.015747,320
801.134705,320
801.253723,317
801.37262,313
801.491638,312
801.610535,334
801.729492,307
801.84845,325
801.967407,313
802.086243,303
802.205261,318
802.324158,320
802.443115,318
802.562073,312
802.680969,322
802.799927,331
802.918762,310
803.037659,338
803.156677,308
803.275574,320
803.39447,320
803.513428,321
803.632263,327
803.751221,313
803.870117,324
803.989014,304
804.107971,318
804.226746,317
804.345642,331
804.4646,309
804.583496,332
804.702393,318
804.821228,325
804.940125,310
805.059021,323
805.177917,314
805.296814,320
805.415649,331
805.534546,320
805.653442,329
805.772278,304
805.891113,317
806.01001,319
806.128906,321
806.247742,330
806.366577,331
806.485413,320
806.604309,316
806.723145,319
806.84198,315
806.960876,303
807.079712,310
807.198486,320
807.317383,323
807.436218,316
807.554993,332
807.673889,334
807.792725,322
807.91156,326
808.030396,309
808.14917,321
808.268005,309
808.386841,330
808.505676,318
808.624451,311
808.743286,328
808.862122,309
808.980896,317
809.099731,316
809.218506,320
809.337341,320
809.456116,322
809.57489,317
809.693726,315
809.8125,318
809.931274,312
810.050049,315
810.168884,324
810.287659,334
810.406372,333
810.525269,321
810.643982,311
810.762756,327
810.881531,314
811.000305,322
811.11908,308
811.237854,319
811.356567,312
811.475403,313
811.594116,313
811.71283,311
811.831604,319
811.950378,322
812.069153,318
812.187927,325
812.30658,326
812.425415,321
812.544128,318
812.662781,320
812.781616,315
812.900269,328
813.019043,317
813.137756,323
813.256531,324
813.375244,324
813.493896,325
813.612671,325
813.731384,310
813.850037,327
813.96875,311
814.087524,322
814.206238,319
814.324951,307
814.443604,327
814.562256,330
814.68103,325
814.799683,310
814.918335,322
815.037109,315
815.155762,335
815.274475,315
815.393188,322
815.511841,319
815.630554,322
815.749146,321
815.867859,319
815.986572,315
816.105164,316
816.223877,305
816.342529,309
816.461182,318
816.579895,321
816.698486,309
816.817139,324
816.935791,310
817.054504,326
817.173096,306
817.291748,329
817.4104,309
817.529053,312
817.647644,327
817.766235,333
817.884949,317
818.00354,306
818.122192,315
818.240845,319
818.359436,312
818.478088,328
818.59668,308
818.715271,333
818.833923,320
818.952515,312
819.071106,322
819.189758,323
819.30835,323
819.426941,315
819.545532,315
819.664124,324
819.782715,306
819.901306,314
820.019897,318
820.138489,305
820.25708,314
820.375671,314
820.494202,319
820.612732,325
820.731384,308
820.849915,310
820.968506,306
821.087097,317
821.205627,323
821.324158,309
821.442749,312
821.561279,327
821.679871,322
821.798401,315
821.916931,318
822.035461,315
822.154053,318
822.272583,335
822.391174,309
822.509583,314
822.628174,316
822.746704,312
822.865234,315
822.983765,314
823.102295,318
823.220825,311
823.339294,304
823.457825,308
823.576355,308
823.694824,319
823.813354,314
823.931885,306
824.050354,330
824.168884,311
824.287354,318
824.405823,321
824.524353,320
824.642822,304
824.761353,316
824.879822,316
824.998291,321
825.116699,318
825.235291,311
825.353699,316
825.472168,323
825.590637,317
825.709106,337
825.827576,323
825.946045,314
826.064453,313
826.182983,324
826.301392,316
826.4198,313
826.53833,335
826.656738,313
826.775208,317
826.893677,310
827.012024,327
827.130493,327
827.248962,328
827.36731,314
827.485779,305
827.604248,321
827.722595,330
827.841064,318
827.959412,323
828.077942,326
828.196289,317
828.314636,321
828.433105,320
828.551514,311
828.669861,313
828.78833,324
828.906677,323
829.025085,314
829.143433,321
829.261841,319
829.38031,311
829.498657,315
829.617004,313
829.735413,318
829.85376,324
829.972107,314
830.090515,319
830.208862,302
830.327209,323
830.445557,315
830.563904,321
830.682312,304
830.800659,310
830.919006,323
831.037354,316
831.155701,319
831.274048,324
831.392395,321
831.51062,319
831.629028,307
831.747314,313
831.865662,305
831.984009,318
832.102356,309
832.220642,312
832.338928,303
832.457275,304
832.575623,320
832.693909,336
832.812134,319
832.930481,316
833.048828,308
833.167114,319
833.2854,325
833.403687,321
833.521973,315
833.640259,318
833.758545,310
833.876831,316
833.995056,317
834.113281,315
834.231628,318
834.349915,303
834.468201,317
834.586426,297
834.704651,325
834.822998,311
834.941162,315
835.059448,324
835.177673,316
835.295959,324
835.414246,309
835.53241,314
835.650635,314
835.768921,319
835.887146,309
836.005371,323
836.123596,307
836.241821,322
836.360046,319
836.478271,310
836.596497,323
836.714722,321
836.832886,302
836.95105,320
837.069336,316
837.1875,322
837.305725,313
837.423889,334
837.542053,308
837.660339,326
837.778503,302
837.896667,311
838.014832,329
838.132996,321
838.25116,315
838.369385,311
838.487488,312
838.605713,317
838.723877,295
838.84198,325
838.960205,318
839.078308,316
839.196472,316
839.314636,316
839.4328,312
839.550964,313
839.669067,302
839.787231,327
839.905396,323
840.023499,310
840.141602,299
840.259766,309
840.377869,311
840.495972,316
840.614136,296
840.732239,318
840.850342,304
840.968445,317
841.086548,307
841.204651,320
841.322754,312
841.440918,329
841.55896,315
841.677002,327
841.795166,308
841.913208,325
842.031311,318
842.149353,320
842.267456,326
842.385498,312
842.503601,323
842.621643,322
842.739746,318
842.857788,322
842.97583,317
843.093933,329
843.211975,324
843.330017,317
843.44812,310
843.566101,322
843.684204,312
843.802246,319
843.920227,322
844.038269,318
844.156311,308
844.274292,321
844.392395,312
844.510376,309
844.628357,311
844.74646,310
844.864441,310
844.982422,320
845.100403,331
845.218384,305
845.336426,307
845.454468,317
845.572449,315
845.69043,329
845.808411,324
845.926453,315
846.044373,315
846.162354,316
846.280396,312
846.398315,311
846.516296,318
846.634216,317
846.752197,302
846.870178,328
846.988098,314
847.106079,308
847.22406,323
847.34198,311
847.4599,307
847.577881,331
847.695801,317
847.813782,314
847.931641,320
848.049561,318
848.167603,311
848.285461,312
848.403381,316
848.521362,325
848.639221,320
848.75708,314
848.875,307
848.99292,301
849.110901,320
849.22876,308
849.34668,286
849.464539,319
849.582458,307
849.700317,325
849.818176,310
849.936096,317
850.053955,317
850.171875,303
850.289673,314
850.407593,316
850.525452,314
850.643311,301
850.761169,321
850.878967,306
850.996887,301
851.114746,311
851.232544,311
851.350403,317
851.468262,319
851.58606,314
851.703979,299
851.821777,319
851.939636,320
852.057434,310
852.175232,317
852.293091,316
852.410889,316
852.528687,318
852.646545,304
852.764343,317
852.88208,311
852.999939,317
853.117676,314
853.235535,323
853.353271,314
853.471069,315
853.588928,315
853.706604,322
853.824402,302
853.9422,312
854.059998,316
854.177734,316
854.295532,317
854.413269,323
854.531006,317
854.648804,318
854.766541,325
854.884277,320
855.002014,303
855.119751,318
855.237549,301
855.355225,325
855.473022,323
855.590698,317
855.708435,320
855.826172,324
855.943848,327
856.061646,315
856.179321,318
856.296997,307
856.414795,304
856.53241,323
856.650085,311
856.767822,310
856.885559,323
857.003174,316
857.120911,300
857.238586,322
857.356201,311
857.473938,311
857.591614,317
857.709351,314
857.826965,311
857.944641,325
858.062317,327
858.179993,311
858.297668,314
858.415283,317
858.532959,310
858.650574,316
858.768188,314
858.885803,319
859.003479,315
859.121094,312
859.23877,318
859.356384,321
859.473999,319
859.591675,324
859.709229,307
859.826843,323
859.944458,314
860.062012,318
860.179626,318
860.297302,324
860.414856,311
860.532471,325
860.650024,308
860.767639,324
860.885193,317
861.002808,316
861.120361,317
861.237976,314
861.35553,321
861.473022,314
861.590698,305
861.708191,317
861.825745,316
861.943298,317
862.060852,297
862.178406,313
862.295959,316
862.413513,296
862.531006,315
862.64856,319
862.766113,314
862.883667,317
863.00116,323
863.118713,321
863.236206,310
863.353699,316
863.471252,301
863.588745,313
863.706177,331
863.82373,320
863.941162,314
864.058716,314
864.176208,307
864.29364,317
864.411194,319
864.528687,324
864.646118,300
864.763611,304
864.881042,302
864.998535,328
865.116028,321
865.233459,322
865.350891,307
865.468384,313
865.585754,327
865.703308,328
865.820679,310
865.938171,325
866.055542,298
866.173035,338
866.290466,325
866.407837,306
866.52533,311
866.6427,317
866.760071,306
866.877563,325
866.994934,303
867.112305,325
867.229736,324
867.347107,309
867.464539,324
867.58197,332
867.699341,315
867.81665,337
867.934082,312
868.051453,316
868.168823,315
868.286194,309
868.403564,324
868.520935,309
868.638306,320
868.755676,311
868.872986,321
868.990295,309
869.107727,297
869.225037,321
869.342346,309
869.459717,315
869.577026,311
869.694336,308
869.811707,318
869.929016,326
870.046326,317
870.163635,311
870.280945,311
870.398254,326
870.515564,322
870.632812,317
870.750183,314
870.867432,314
870.984741,305
871.102051,312
871.219299,310
871.336609,327
871.453918,320
871.571106,318
871.688416,324
871.805664,307
871.922852,314
872.040222,311
872.157471,315
872.274719,314
872.391968,311
872.509155,314
872.626465,321
872.743652,333
872.860962,308
872.978149,312
873.095337,327
873.212646,314
873.329834,304
873.44696,295
873.564209,325
873.681396,303
873.798645,316
873.915894,315
874.03302,319
874.150208,315
874.267456,319
874.384583,327
874.501831,322
874.618958,323
874.736145,309
874.853333,311
874.970459,325
875.087646,312
875.204834,312
875.32196,294
875.439148,309
875.556274,308
875.673401,311
875.790527,317
875.907715,298
876.024841,318
876.141968,323
876.259094,328
876.376282,311
876.493347,317
876.610474,317
876.7276,317
876.844727,322
876.961853,315
877.078918,316
877.195984,313
877.313171,304
877.430237,310
877.547302,315
877.664368,320
877.781433,311
877.898499,332
878.015625,310
878.13269,319
878.249695,324
878.366821,321
878.483887,316
878.600952,326
878.717957,309
878.834961,322
878.952087,306
879.069092,316
879.186157,319
879.303162,321
879.420227,314
879.537231,318
879.654236,312
879.77124,320
879.888306,318
880.005249,324
880.122314,322
880.239319,322
880.356323,328
880.473328,321
880.590271,321
880.707275,307
880.824341,303
880.941284,334
881.058228,318
881.175232,317
881.292236,323
881.40918,318
881.526123,312
881.643066,326
881.760071,305
881.877014,309
881.993958,313
882.11084,314
882.227783,311
882.344727,316
882.46167,306
882.578613,312
882.695618,309
882.812439,329
882.929382,321
883.046326,318
883.163208,305
883.280151,330
883.397034,301
883.513916,316
883.630798,323
883.747742,323
883.864563,315
883.981506,316
884.098389,313
884.21521,319
884.332153,311
884.448975,323
884.565796,319
884.682678,313
884.7995,305
884.916443,305
885.033264,319
885.150085,316
885.266968,303
885.383789,317
885.500671,313
885.617493,316
885.734314,312
885.851196,324
885.967896,312
886.084717,303
886.201599,304
886.318359,306
886.435181,307
886.552002,325
886.668762,309
886.785645,324
886.902344,310
887.019165,320
887.135925,322
887.252747,321
887.369446,323
887.486267,317
887.603027,308
887.719788,309
887.836548,312
887.953247,321
888.070068,308
888.186829,312
888.303528,315
888.420288,319
888.536987,329
888.653687,320
888.770447,298
888.887146,319
889.003967,316
889.120667,313
889.237305,311
889.354065,332
889.470703,320
889.587463,322
889.704163,328
889.820862,328
889.937561,305
890.054199,326
890.170837,310
890.287598,319
890.404236,322
890.520874,314
890.637634,323
890.754211,306
890.87085,308
890.987549,319
891.104187,319
891.220886,319
891.337463,321
891.454102,325
891.57074,312
891.687378,323
891.804077,324
891.920654,324
892.037231,320
892.15387,315
892.270447,316
892.387085,313
892.503723,316
892.6203,324
892.736877,327
892.853516,326
892.970032,313
893.08667,317
893.203186,316
893.319763,319
893.43634,306
893.552917,310
893.669556,313
893.786011,321
893.902588,307
894.019165,313
894.135681,314
894.252197,304
894.368835,308
894.485291,307
894.601868,316
894.718384,316
894.8349,323
894.951355,319
895.067932,307
895.184448,308
895.300964,311
895.417419,323
895.533936,330
895.650452,316
895.766907,311
895.883423,305
895.999878,311
896.116333,317
896.232849,327
896.349304,333
896.465759,324
896.582214,317
896.698669,322
896.815125,310
896.931641,311
897.048035,325
897.164551,316
897.280884,322
897.397339,315
897.513794,327
897.630249,304
897.746582,318
897.863098,322
897.979431,319
898.095886,295
898.212341,323
898.328674,302
898.445129,325
898.561462,325
898.677795,316
898.794312,323
898.910645,324
899.026978,304
899.143433,313
899.259766,313
899.37616,328
899.492493,321
899.608765,309
899.725159,311
899.841553,308
899.957947,304
900.07428,307
900.190552,298
900.306946,317
900.423157,312
900.53949,328
900.655884,314
900.772156,325
900.888489,314
901.004822,319
901.121033,317
901.237366,318
901.353699,316
901.46991,320
901.586304,307
901.702515,320
901.818787,312
901.93512,325
902.051331,320
902.167603,325
902.283875,320
902.400085,313
902.516418,317
902.632629,307
902.74884,309
902.865112,317
902.981384,306
903.097595,319
903.213867,316
903.330017,320
903.446289,314
903.5625,326
903.67865,322
903.794922,315
903.911072,316
904.027344,327
904.143494,320
904.259705,325
904.375916,317
904.492065,310
904.608215,315
904.724426,325
904.840576,309
904.956726,326
905.072876,307
905.189087,325
905.305176,302
905.421387,326
905.537537,313
905.653687,311
905.769775,320
905.885925,303
906.002014,335
906.118164,327
906.234314,310
906.350403,330
906.466492,307
906.582642,322
906.69873,311
906.814758,308
906.930908,318
907.046936,318
907.163086,315
907.279175,323
907.395264,307
907.511353,308
907.62738,330
907.743408,315
907.859497,315
907.975525,328
908.091553,310
908.207703,324
908.32373,311
908.439758,319
908.555786,314
908.671814,308
908.787842,322
908.90387,319
909.019775,307
909.135864,322
909.251892,314
909.367859,307
909.483826,328
909.599854,327
909.715881,310
909.831848,325
909.947815,305
910.063782,324
910.179749,319
910.295776,324
910.411743,312
910.527649,326
910.643616,317
910.759583,321
910.875488,310
910.991455,323
911.107361,314
911.223267,325
911.339294,296
911.4552,316
911.571106,312
911.687073,310
911.802979,315
911.918823,308
912.034729,295
912.150635,326
912.266602,317
912.382446,309
912.498352,317
912.614197,317
912.730103,305
912.846008,319
792.44574,309
792.56488,327
792.68396,379
792.80304,350
792.92218,317
793.041199,307
793.160339,317
793.279419,326
793.398499,318
793.517578,306
793.636658,318
793.755737,314
793.874817,342
793.993896,333
794.112976,329
794.232056,328
794.351074,324
794.470215,317
794.589233,324
794.708313,314
794.827393,313
794.946411,319
795.065552,322
795.18457,324
795.303589,303
795.422668,316
795.541687,322
795.660767,327
795.779846,324
795.898865,304
796.017883,327
796.136963,323
796.255981,332
796.375061,329
796.49408,315
796.613037,308
796.732117,314
796.851135,305
796.970154,327
797.089233,318
797.208191,311
797.327271,315
797.446228,335
797.565186,321
797.684265,315
797.803223,318
797.922241,334
798.04126,329
798.160278,324
798.279297,306
798.398315,319
798.517273,318
798.636292,324
798.75531,316
798.874268,322
798.993286,323
799.112244,310
799.231323,319
799.350281,323
799.469238,323
799.588257,321
799.707153,328
799.826111,321
799.945129,318
800.064087,323
800.183044,320
800.302063,326
800.421021,324
800.539978,315
800.658936,325
800.777893,317
800.896912,316
801.015747,303
801.134705,314
801.253723,304
801.37262,322
801.491638,329
801.610535,319
801.729492,310
801.84845,302
801.967407,328
802.086243,329
802.205261,315
802.324158,318
802.443115,308
802.562073,307
802.680969,322
802.799927,322
802.918762,305
803.037659,310
803.156677,317
803.275574,319
803.39447,311
803.513428,315
803.632263,330
803.751221,320
803.870117,314
803.989014,318
804.107971,306
804.226746,319
804.345642,321
804.4646,325
804.583496,323
804.702393,339
804.821228,319
804.940125,315
805.059021,328
805.177917,326
805.296814,315
805.415649,313
805.534546,312
805.653442,316
805.772278,315
805.891113,289
806.01001,327
806.128906,318
806.247742,323
806.366577,319
806.485413,333
806.604309,323
806.723145,307
806.84198,324
806.960876,340
807.079712,312
807.198486,318
807.317383,319
807.436218,320
807.554993,315
807.673889,313
807.792725,314
807.91156,317
808.030396,310
808.14917,325
808.268005,328
808.386841,313
808.505676,311
808.624451,329
808.743286,310
808.862122,322
808.980896,320
809.099731,309
809.218506,311
809.337341,323
809.456116,318
809.57489,320
809.693726,320
809.8125,308
809.931274,322
810.050049,306
810.168884,306
810.287659,315
810.406372,316
810.525269,317
810.643982,314
810.762756,324
810.881531,319
811.000305,327
811.11908,309
811.237854,317
811.356567,305
811.475403,327
811.594116,299
811.71283,318
811.831604,302
811.950378,321
812.069153,306
812.187927,328
812.30658,315
812.425415,331
812.544128,310
812.662781,314
812.781616,323
812.900269,328
813.019043,304
813.137756,313
813.256531,310
813.375244,323
813.493896,313
813.612671,325
813.731384,320
813.850037,318
813.96875,313
814.087524,309
814.206238,318
814.324951,325
814.443604,322
814.562256,323
814.68103,307
814.799683,320
814.918335,302
815.037109,318
815.155762,312
815.274475,305
815.393188,323
815.511841,319
815.630554,313
815.749146,336
815.867859,320
815.986572,317
816.105164,304
816.223877,307
816.342529,312
816.461182,320
816.579895,313
816.698486,315
816.817139,305
816.935791,317
817.054504,308
817.173096,317
817.291748,306
817.4104,316
817.529053,310
817.647644,316
817.766235,305
817.884949,320
818.00354,321
818.122192,314
818.240845,317
818.359436,321
818.478088,317
818.59668,327
818.715271,318
818.833923,326
818.952515,306
819.071106,324
819.189758,311
819.30835,321
819.426941,321
819.545532,321
819.664124,313
819.782715,302
819.901306,305
820.019897,321
820.138489,319
820.25708,317
820.375671,312
820.494202,321
820.612732,321
820.731384,303
820.849915,330
820.968506,316
821.087097,318
821.205627,310
821.324158,313
821.442749,305
821.561279,322
821.679871,322
821.798401,313
821.916931,309
822.035461,302
822.154053,319
822.272583,309
822.391174,324
822.509583,299
822.628174,316
822.746704,315
822.865234,310
822.983765,315
823.102295,311
823.220825,324
823.339294,302
823.457825,315
823.576355,319
823.694824,299
823.813354,314
823.931885,313
824.050354,314
824.168884,305
824.287354,305
824.405823,318
824.524353,311
824.642822,310
824.761353,315
824.879822,316
824.998291,319
825.116699,309
825.235291,329
825.353699,309
825.472168,307
825.590637,310
825.709106,319
825.827576,312
825.946045,309
826.064453,315
826.182983,309
826.301392,315
826.4198,321
826.53833,301
826.656738,312
826.775208,308
826.893677,320
827.012024,327
827.130493,311
827.248962,308
827.36731,315
827.485779,310
827.604248,320
827.722595,307
827.841064,317
827.959412,311
828.077942,310
828.196289,311
828.314636,309
828.433105,309
828.551514,325
828.669861,306
828.78833,334
828.906677,324
829.025085,299
829.143433,320
829.261841,318
829.38031,314
829.498657,313
829.617004,308
829.735413,320
829.85376,322
829.972107,328
830.090515,317
830.208862,321
830.327209,313
830.445557,313
830.563904,304
830.682312,319
830.800659,308
830.919006,319
831.037354,310
831.155701,316
831.274048,315
831.392395,320
831.51062,310
831.629028,318
831.747314,319
831.865662,322
831.984009,296
832.102356,318
832.220642,317
832.338928,313
832.457275,308
832.575623,323
832.693909,304
832.812134,327
832.930481,314
833.048828,330
833.167114,312
833.2854,317
833.403687,298
833.521973,321
833.640259,318
833.758545,319
833.876831,312
833.995056,309
834.113281,311
834.231628,312
834.349915,317
834.468201,309
834.586426,311
834.704651,315
834.822998,303
834.941162,307
835.059448,307
835.177673,322
835.295959,299
835.414246,313
835.53241,323
835.650635,316
835.768921,307
835.887146,326
836.005371,310
836.123596,325
836.241821,308
836.360046,317
836.478271,330
836.596497,316
836.714722,312
836.832886,321
836.95105,300
837.069336,321
837.1875,307
837.305725,322
837.423889,318
837.542053,328
837.660339,303
837.778503,318
837.896667,310
838.014832,320
838.132996,306
838.25116,320
838.369385,313
838.487488,315
838.605713,305
838.723877,302
838.84198,308
838.960205,322
839.078308,304
839.196472,311
839.314636,325
839.4328,319
839.550964,320
839.669067,310
839.787231,300
839.905396,323
840.023499,313
840.141602,325
840.259766,306
840.377869,317
840.495972,308
840.614136,330
840.732239,315
840.850342,310
840.968445,310
841.086548,314
841.204651,313
841.322754,320
841.440918,314
841.55896,301
841.677002,320
841.795166,311
841.913208,320
842.031311,316
842.149353,309
842.267456,323
842.385498,320
842.503601,326
842.621643,308
842.739746,314
842.857788,299
842.97583,304
843.093933,316
843.211975,326
843.330017,314
843.44812,321
843.566101,304
843.684204,294
843.802246,313
843.920227,311
844.038269,315
844.156311,310
844.274292,301
844.392395,323
844.510376,317
844.628357,313
844.74646,321
844.864441,316
844.982422,312
845.100403,315
845.218384,307
845.336426,317
845.454468,319
845.572449,312
845.69043,306
845.808411,318
845.926453,314
846.044373,324
846.162354,313
846.280396,315
846.398315,324
846.516296,313
846.634216,309
846.752197,301
846.870178,311
846.988098,315
847.106079,305
847.22406,318
847.34198,313
847.4599,326
847.577881,306
847.695801,316
847.813782,314
847.931641,315
848.049561,312
848.167603,312
848.285461,314
848.403381,305
848.521362,321
848.639221,316
848.75708,318
848.875,316
848.99292,304
849.110901,311
849.22876,318
849.34668,305
849.464539,311
849.582458,313
849.700317,305
849.818176,325
849.936096,310
850.053955,305
850.171875,313
850.289673,313
850.407593,307
850.525452,296
850.643311,312
850.761169,316
850.878967,303
850.996887,300
851.114746,325
851.232544,312
851.350403,316
851.468262,318
851.58606,316
851.703979,308
851.821777,325
851.939636,321
852.057434,311
852.175232,320
852.293091,307
852.410889,322
852.528687,307
852.646545,305
852.764343,326
852.88208,319
852.999939,307
853.117676,316
853.235535,312
853.353271,309
853.471069,315
853.588928,306
853.706604,310
853.824402,319
853.9422,292
854.059998,319
854.177734,320
854.295532,307
854.413269,300
854.531006,311
854.648804,306
854.766541,324
854.884277,319
855.002014,307
855.119751,299
855.237549,310
855.355225,315
855.473022,319
855.590698,300
855.708435,312
855.826172,312
855.943848,314
856.061646,314
856.179321,321
856.296997,314
856.414795,305
856.53241,320
856.650085,320
856.767822,314
856.885559,312
857.003174,324
857.120911,326
857.238586,305
857.356201,307
857.473938,312
857.591614,317
857.709351,326
857.826965,318
857.944641,309
858.062317,317
858.179993,303
858.297668,323
858.415283,316
858.532959,313
858.650574,308
858.768188,318
858.885803,314
859.003479,326
859.121094,305
859.23877,319
859.356384,303
859.473999,327
859.591675,314
859.709229,322
859.826843,316
859.944458,320
860.062012,304
860.179626,320
860.297302,310
860.414856,323
860.532471,304
860.650024,327
860.767639,294
860.885193,325
861.002808,310
861.120361,313
861.237976,306
861.35553,307
861.473022,315
861.590698,316
861.708191,311
861.825745,314
861.943298,306
862.060852,299
862.178406,315
862.295959,303
862.413513,317
862.531006,315
862.64856,310
862.766113,315
862.883667,304
863.00116,309
863.118713,319
863.236206,306
863.353699,322
863.471252,309
863.588745,322
863.706177,311
863.82373,297
863.941162,310
864.058716,322
864.176208,308
864.29364,325
864.411194,315
864.528687,314
864.646118,317
864.763611,304
864.881042,314
864.998535,313
865.116028,320
865.233459,307
865.350891,313
865.468384,308
865.585754,310
865.703308,313
865.820679,316
865.938171,309
866.055542,308
866.173035,312
866.290466,320
866.407837,302
866.52533,312
866.6427,305
866.760071,320
866.877563,309
866.994934,313
867.112305,315
867.229736,327
867.347107,311
867.464539,319
867.58197,303
867.699341,325
867.81665,312
867.934082,317
868.051453,314
868.168823,314
868.286194,322
868.403564,323
868.520935,309
868.638306,318
868.755676,313
868.872986,309
868.990295,313
869.107727,308
869.225037,307
869.342346,312
869.459717,319
869.577026,306
869.694336,307
869.811707,317
869.929016,311
870.046326,330
870.163635,309
870.280945,317
870.398254,308
870.515564,310
870.632812,327
870.750183,312
870.867432,307
870.984741,320
871.102051,309
871.219299,312
871.336609,300
871.453918,300
871.571106,301
871.688416,321
871.805664,310
871.922852,315
872.040222,303
872.157471,324
872.274719,309
872.391968,314
872.509155,315
872.626465,315
872.743652,305
872.860962,332
872.978149,308
873.095337,322
873.212646,324
873.329834,310
873.44696,309
873.564209,315
873.681396,312
873.798645,320
873.915894,304
874.03302,325
874.150208,307
874.267456,320
874.384583,313
874.501831,308
874.618958,310
874.736145,311
874.853333,321
874.970459,314
875.087646,302
875.204834,317
875.32196,303
875.439148,311
875.556274,316
875.673401,318
875.790527,294
875.907715,315
876.024841,312
876.141968,324
876.259094,318
876.376282,320
876.493347,324
876.610474,317
876.7276,306
876.844727,311
876.961853,322
877.078918,319
877.195984,302
877.313171,321
877.430237,302
877.547302,322
877.664368,323
877.781433,312
877.898499,315
878.015625,324
878.13269,309
878.249695,319
878.366821,314
878.483887,327
878.600952,306
878.717957,326
878.834961,301
878.952087,323
879.069092,309
879.186157,319
879.303162,325
879.420227,339
879.537231,316
879.654236,327
879.77124,309
879.888306,314
880.005249,321
880.122314,316
880.239319,318
880.356323,328
880.473328,319
880.590271,327
880.707275,316
880.824341,307
880.941284,317
881.058228,309
881.175232,298
881.292236,319
881.40918,317
881.526123,318
881.643066,313
881.760071,314
881.877014,315
881.993958,306
882.11084,317
882.227783,321
882.344727,317
882.46167,323
882.578613,314
882.695618,307
882.812439,307
882.929382,321
883.046326,326
883.163208,323
883.280151,321
883.397034,326
883.513916,312
883.630798,308
883.747742,308
883.864563,318
883.981506,311
884.098389,310
884.21521,308
884.332153,320
884.448975,313
884.565796,321
884.682678,308
884.7995,321
884.916443,307
885.033264,323
885.150085,309
885.266968,304
885.383789,306
885.500671,309
885.617493,317
885.734314,316
885.851196,308
885.967896,323
886.084717,312
886.201599,320
886.318359,312
886.435181,309
886.552002,299
886.668762,320
886.785645,314
886.902344,328
887.019165,313
887.135925,309
887.252747,304
887.369446,328
887.486267,319
887.603027,316
887.719788,319
887.836548,313
887.953247,307
888.070068,319
888.186829,311
888.303528,303
888.420288,315
888.536987,314
888.653687,311
888.770447,319
888.887146,318
889.003967,296
889.120667,312
889.237305,310
889.354065,318
889.470703,318
889.587463,319
889.704163,320
889.820862,320
889.937561,340
890.054199,313
890.170837,317
890.287598,310
890.404236,310
890.520874,312
890.637634,317
890.754211,328
890.87085,308
890.987549,309
891.104187,321
891.220886,325
891.337463,309
891.454102,313
891.57074,321
891.687378,318
891.804077,323
891.920654,305
892.037231,315
892.15387,313
892.270447,319
892.387085,316
892.503723,322
892.6203,309
892.736877,316
892.853516,311
892.970032,323
893.08667,319
893.203186,310
893.319763,298
893.43634,319
893.552917,311
893.669556,313
893.786011,324
893.902588,308
894.019165,318
894.135681,321
894.252197,313
894.368835,320
894.485291,303
894.601868,316
894.718384,318
894.8349,311
894.951355,321
895.067932,325
895.184448,299
895.300964,313
895.417419,315
895.533936,314
895.650452,304
895.766907,311
895.883423,324
895.999878,317
896.116333,311
896.232849,312
896.349304,306
896.465759,313
896.582214,314
896.698669,318
896.815125,321
896.931641,318
897.048035,307
897.164551,310
897.280884,304
897.397339,313
897.513794,312
897.630249,330
897.746582,298
897.863098,306
897.979431,319
898.095886,318
898.212341,310
898.328674,312
898.445129,328
898.561462,315
898.677795,325
898.794312,326
898.910645,315
899.026978,327
899.143433,312
899.259766,304
899.37616,307
899.492493,314
899.608765,310
899.725159,306
899.841553,312
899.957947,328
900.07428,307
900.190552,321
900.306946,309
900.423157,314
900.53949,306
900.655884,317
900.772156,303
900.888489,314
901.004822,313
901.121033,312
901.237366,312
901.353699,313
901.46991,305
901.586304,317
901.702515,290
901.818787,326
901.93512,311
902.051331,320
902.167603,325
902.283875,304
902.400085,313
902.516418,323
902.632629,305
902.74884,322
902.865112,323
902.981384,314
903.097595,306
903.213867,323
903.330017,326
903.446289,317
903.5625,313
903.67865,321
903.794922,321
903.911072,320
904.027344,317
904.143494,318
904.259705,316
904.375916,312
904.492065,320
904.608215,322
904.724426,309
904.840576,316
904.956726,309
905.072876,319
905.189087,320
905.305176,309
905.421387,307
905.537537,330
905.653687,331
905.769775,313
905.885925,323
906.002014,316
906.118164,310
906.234314,313
906.350403,323
906.466492,308
906.582642,316
906.69873,326
906.814758,310
906.930908,316
907.046936,311
907.163086,301
907.279175,311
907.395264,319
907.511353,322
907.62738,338
907.743408,322
907.859497,307
907.975525,305
908.091553,320
908.207703,315
908.32373,319
908.439758,319
908.555786,304
908.671814,309
908.787842,334
908.90387,315
909.019775,313
909.135864,311
909.251892,316
909.367859,313
909.483826,310
909.599854,300
909.715881,309
909.831848,331
909.947815,322
910.063782,320
910.179749,319
910.295776,316
910.411743,317
910.527649,317
910.643616,310
910.759583,308
910.875488,337
910.991455,312
911.107361,317
911.223267,286
911.339294,320
911.4552,306
911.571106,305
911.687073,328
911.802979,310
911.918823,299
912.034729,320
912.150635,309
912.266602,318
912.382446,302
912.498352,306
912.614197,307
912.730103,324
912.846008,310
