792.44574,321
792.56488,348
792.68396,403
792.80304,356
792.92218,344
793.041199,324
793.160339,351
793.279419,332
793.398499,336
793.517578,308
793.636658,330
793.755737,330
793.874817,348
793.993896,342
794.112976,338
794.232056,326
794.351074,328
794.470215,331
794.589233,339
794.708313,335
794.827393,334
794.946411,325
795.065552,333
795.18457,350
795.303589,329
795.422668,323
795.541687,344
795.660767,329
795.779846,333
795.898865,334
796.017883,332
796.136963,333
796.255981,329
796.375061,344
796.49408,329
796.613037,335
796.732117,322
796.851135,336
796.970154,335
797.089233,330
797.208191,326
797.327271,332
797.446228,344
797.565186,331
797.684265,332
797.803223,330
797.922241,344
798.04126,316
798.160278,332
798.279297,344
798.398315,324
798.517273,341
798.636292,348
798.75531,333
798.874268,321
798.993286,319
799.112244,326
799.231323,335
799.350281,329
799.469238,324
799.588257,332
799.707153,328
799.826111,330
799.945129,332
800.064087,331
800.183044,329
800.302063,324
800.421021,322
800.539978,321
800.658936,340
800.777893,323
800.896912,314
801.015747,338
801.134705,320
801.253723,340
801.37262,329
801.491638,332
801.610535,326
801.729492,335
801.84845,349
801.967407,320
802.086243,324
802.205261,330
802.324158,317
802.443115,336
802.562073,334
802.680969,319
802.799927,322
802.918762,313
803.037659,317
803.156677,337
803.275574,337
803.39447,331
803.513428,328
803.632263,336
803.751221,343
803.870117,334
803.989014,322
804.107971,337
804.226746,332
804.345642,340
804.4646,335
804.583496,328
804.702393,317
804.821228,337
804.940125,322
805.059021,328
805.177917,317
805.296814,334
805.415649,327
805.534546,336
805.653442,339
805.772278,333
805.891113,323
806.01001,341
806.128906,341
806.247742,329
806.366577,325
806.485413,336
806.604309,327
806.723145,325
806.84198,324
806.960876,330
807.079712,323
807.198486,334
807.317383,328
807.436218,333
807.554993,330
807.673889,334
807.792725,340
807.91156,334
808.030396,324
808.14917,330
808.268005,332
808.386841,338
808.505676,321
808.624451,331
808.743286,334
808.862122,337
808.980896,327
809.099731,330
809.218506,322
809.337341,332
809.456116,326
809.57489,338
809.693726,330
809.8125,328
809.931274,328
810.050049,320
810.168884,341
810.287659,342
810.406372,330
810.525269,339
810.643982,334
810.762756,334
810.881531,334
811.000305,323
811.11908,321
811.237854,328
811.356567,332
811.475403,324
811.594116,332
811.71283,346
811.831604,309
811.950378,351
812.069153,337
812.187927,330
812.30658,345
812.425415,332
812.544128,320
812.662781,331
812.781616,340
812.900269,331
813.019043,316
813.137756,325
813.256531,335
813.375244,338
813.493896,338
813.612671,338
813.731384,336
813.850037,328
813.96875,322
814.087524,344
814.206238,336
814.324951,347
814.443604,322
814.562256,325
814.68103,322
814.799683,340
814.918335,343
815.037109,335
815.155762,320
815.274475,337
815.393188,320
815.511841,337
815.630554,317
815.749146,318
815.867859,325
815.986572,338
816.105164,327
816.223877,343
816.342529,322
816.461182,334
816.579895,315
816.698486,326
816.817139,336
816.935791,355
817.054504,332
817.173096,340
817.291748,320
817.4104,335
817.529053,339
817.647644,347
817.766235,333
817.884949,321
818.00354,328
818.122192,327
818.240845,330
818.359436,325
818.478088,322
818.59668,338
818.715271,324
818.833923,319
818.952515,315
819.071106,325
819.189758,326
819.30835,317
819.426941,321
819.545532,317
819.664124,327
819.782715,328
819.901306,330
820.019897,331
820.138489,329
820.25708,329
820.375671,318
820.494202,322
820.612732,316
820.731384,312
820.849915,338
820.968506,321
821.087097,302
821.205627,318
821.324158,324
821.442749,324
821.561279,325
821.679871,324
821.798401,318
821.916931,320
822.035461,324
822.154053,323
822.272583,318
822.391174,321
822.509583,321
822.628174,334
822.746704,312
822.865234,305
822.983765,328
823.102295,328
823.220825,316
823.339294,328
823.457825,319
823.576355,315
823.694824,317
823.813354,323
823.931885,311
824.050354,322
824.168884,305
824.287354,319
824.405823,318
824.524353,317
824.642822,317
824.761353,326
824.879822,318
824.998291,316
825.116699,315
825.235291,318
825.353699,316
825.472168,320
825.590637,313
825.709106,324
825.827576,317
825.946045,329
826.064453,305
826.182983,323
826.301392,312
826.4198,321
826.53833,320
826.656738,316
826.775208,303
826.893677,309
827.012024,326
827.130493,307
827.248962,319
827.36731,310
827.485779,320
827.604248,314
827.722595,318
827.841064,324
827.959412,319
828.077942,330
828.196289,320
828.314636,324
828.433105,315
828.551514,321
828.669861,327
828.78833,309
828.906677,325
829.025085,315
829.143433,332
829.261841,322
829.38031,315
829.498657,320
829.617004,322
829.735413,321
829.85376,326
829.972107,318
830.090515,309
830.208862,318
830.327209,313
830.445557,320
830.563904,319
830.682312,312
830.800659,318
830.919006,333
831.037354,324
831.155701,305
831.274048,310
831.392395,308
831.51062,307
831.629028,315
831.747314,322
831.865662,317
831.984009,320
832.102356,338
832.220642,321
832.338928,307
832.457275,315
832.575623,324
832.693909,308
832.812134,304
832.930481,313
833.048828,314
833.167114,311
833.2854,325
833.403687,328
833.521973,315
833.640259,324
833.758545,310
833.876831,314
833.995056,317
834.113281,329
834.231628,318
834.349915,306
834.468201,322
834.586426,314
834.704651,297
834.822998,327
834.941162,331
835.059448,305
835.177673,310
835.295959,307
835.414246,323
835.53241,320
835.650635,323
835.768921,305
835.887146,322
836.005371,312
836.123596,324
836.241821,328
836.360046,329
836.478271,311
836.596497,326
836.714722,320
836.832886,316
836.95105,315
837.069336,320
837.1875,308
837.305725,316
837.423889,312
837.542053,326
837.660339,319
837.778503,326
837.896667,320
838.014832,334
838.132996,312
838.25116,332
838.369385,306
838.487488,325
838.605713,328
838.723877,334
838.84198,335
838.960205,306
839.078308,310
839.196472,331
839.314636,332
839.4328,314
839.550964,315
839.669067,313
839.787231,318
839.905396,329
840.023499,321
840.141602,317
840.259766,325
840.377869,316
840.495972,329
840.614136,325
840.732239,313
840.850342,315
840.968445,312
841.086548,321
841.204651,323
841.322754,324
841.440918,319
841.55896,319
841.677002,317
841.795166,306
841.913208,310
842.031311,312
842.149353,312
842.267456,321
842.385498,309
842.503601,311
842.621643,310
842.739746,317
842.857788,312
842.97583,310
843.093933,320
843.211975,319
843.330017,316
843.44812,319
843.566101,318
843.684204,318
843.802246,306
843.920227,321
844.038269,308
844.156311,321
844.274292,312
844.392395,316
844.510376,316
844.628357,317
844.74646,307
844.864441,323
844.982422,304
845.100403,338
845.218384,309
845.336426,303
845.454468,321
845.572449,310
845.69043,307
845.808411,324
845.926453,316
846.044373,319
846.162354,310
846.280396,310
846.398315,311
846.516296,323
846.634216,310
846.752197,312
846.870178,311
846.988098,307
847.106079,309
847.22406,314
847.34198,313
847.4599,317
847.577881,313
847.695801,310
847.813782,313
847.931641,324
848.049561,293
848.167603,309
848.285461,317
848.403381,321
848.521362,313
848.639221,325
848.75708,309
848.875,322
848.99292,313
849.110901,318
849.22876,315
849.34668,325
849.464539,313
849.582458,332
849.700317,320
849.818176,319
849.936096,312
850.053955,323
850.171875,325
850.289673,326
850.407593,320
850.525452,307
850.643311,322
850.761169,314
850.878967,315
850.996887,321
851.114746,304
851.232544,316
851.350403,328
851.468262,318
851.58606,314
851.703979,321
851.821777,315
851.939636,311
852.057434,320
852.175232,322
852.293091,307
852.410889,322
852.528687,321
852.646545,308
852.764343,311
852.88208,319
852.999939,314
853.117676,311
853.235535,322
853.353271,310
853.471069,321
853.588928,309
853.706604,311
853.824402,311
853.9422,321
854.059998,331
854.177734,306
854.295532,304
854.413269,309
854.531006,324
854.648804,309
854.766541,325
854.884277,322
855.002014,320
855.119751,312
855.237549,315
855.355225,298
855.473022,322
855.590698,292
855.708435,326
855.826172,308
855.943848,317
856.061646,318
856.179321,330
856.296997,303
856.414795,328
856.53241,314
856.650085,333
856.767822,317
856.885559,329
857.003174,318
857.120911,334
857.238586,312
857.356201,316
857.473938,328
857.591614,319
857.709351,319
857.826965,316
857.944641,318
858.062317,323
858.179993,317
858.297668,312
858.415283,330
858.532959,321
858.650574,321
858.768188,316
858.885803,307
859.003479,306
859.121094,323
859.23877,325
859.356384,318
859.473999,317
859.591675,314
859.709229,326
859.826843,311
859.944458,328
860.062012,311
860.179626,323
860.297302,306
860.414856,322
860.532471,308
860.650024,312
860.767639,324
860.885193,310
861.002808,301
861.120361,337
861.237976,319
861.35553,313
861.473022,308
861.590698,335
861.708191,305
861.825745,324
861.943298,319
862.060852,311
862.178406,312
862.295959,326
862.413513,319
862.531006,319
862.64856,315
862.766113,313
862.883667,319
863.00116,320
863.118713,325
863.236206,320
863.353699,314
863.471252,317
863.588745,313
863.706177,327
863.82373,329
863.941162,322
864.058716,316
864.176208,325
864.29364,312
864.411194,315
864.528687,303
864.646118,321
864.763611,315
864.881042,315
864.998535,327
865.116028,318
865.233459,313
865.350891,318
865.468384,315
865.585754,323
865.703308,320
865.820679,318
865.938171,319
866.055542,320
866.173035,316
866.290466,327
866.407837,324
866.52533,324
866.6427,323
866.760071,320
866.877563,330
866.994934,328
867.112305,316
867.229736,319
867.347107,306
867.464539,329
867.58197,319
867.699341,327
867.81665,328
867.934082,319
868.051453,314
868.168823,326
868.286194,319
868.403564,328
868.520935,308
868.638306,319
868.755676,315
868.872986,315
868.990295,315
869.107727,317
869.225037,335
869.342346,308
869.459717,304
869.577026,318
869.694336,312
869.811707,312
869.929016,298
870.046326,325
870.163635,324
870.280945,328
870.398254,309
870.515564,306
870.632812,316
870.750183,328
870.867432,317
870.984741,330
871.102051,301
871.219299,314
871.336609,325
871.453918,329
871.571106,325
871.688416,330
871.805664,315
871.922852,322
872.040222,314
872.157471,334
872.274719,314
872.391968,325
872.509155,315
872.626465,311
872.743652,324
872.860962,314
872.978149,300
873.095337,329
873.212646,307
873.329834,326
873.44696,309
873.564209,320
873.681396,313
873.798645,321
873.915894,319
874.03302,324
874.150208,307
874.267456,322
874.384583,315
874.501831,325
874.618958,320
874.736145,304
874.853333,313
874.970459,313
875.087646,318
875.204834,322
875.32196,323
875.439148,306
875.556274,317
875.673401,321
875.790527,306
875.907715,325
876.024841,329
876.141968,312
876.259094,306
876.376282,341
876.493347,302
876.610474,319
876.7276,311
876.844727,320
876.961853,329
877.078918,316
877.195984,320
877.313171,315
877.430237,319
877.547302,317
877.664368,320
877.781433,317
877.898499,317
878.015625,321
878.13269,309
878.249695,319
878.366821,316
878.483887,316
878.600952,308
878.717957,316
878.834961,306
878.952087,329
879.069092,311
879.186157,326
879.303162,317
879.420227,307
879.537231,315
879.654236,321
879.77124,310
879.888306,313
880.005249,316
880.122314,311
880.239319,315
880.356323,315
880.473328,311
880.590271,324
880.707275,309
880.824341,323
880.941284,327
881.058228,311
881.175232,304
881.292236,336
881.40918,312
881.526123,328
881.643066,304
881.760071,324
881.877014,322
881.993958,318
882.11084,307
882.227783,328
882.344727,303
882.46167,326
882.578613,316
882.695618,326
882.812439,309
882.929382,307
883.046326,317
883.163208,309
883.280151,309
883.397034,332
883.513916,311
883.630798,330
883.747742,314
883.864563,338
883.981506,328
884.098389,327
884.21521,338
884.332153,316
884.448975,310
884.565796,316
884.682678,316
884.7995,312
884.916443,305
885.033264,319
885.150085,310
885.266968,331
885.383789,313
885.500671,317
885.617493,323
885.734314,322
885.851196,327
885.967896,313
886.084717,307
886.201599,333
886.318359,313
886.435181,316
886.552002,311
886.668762,317
886.785645,315
886.902344,321
887.019165,313
887.135925,329
887.252747,324
887.369446,310
887.486267,314
887.603027,307
887.719788,308
887.836548,312
887.953247,312
888.070068,332
888.186829,317
888.303528,330
888.420288,309
888.536987,321
888.653687,330
888.770447,316
888.887146,326
889.003967,303
889.120667,319
889.237305,312
889.354065,311
889.470703,317
889.587463,322
889.704163,327
889.820862,310
889.937561,308
890.054199,308
890.170837,329
890.287598,330
890.404236,318
890.520874,323
890.637634,318
890.754211,320
890.87085,335
890.987549,323
891.104187,322
891.220886,327
891.337463,314
891.454102,318
891.57074,325
891.687378,311
891.804077,333
891.920654,314
892.037231,314
892.15387,328
892.270447,318
892.387085,320
892.503723,316
892.6203,324
892.736877,327
892.853516,303
892.970032,330
893.08667,320
893.203186,328
893.319763,335
893.43634,309
893.552917,312
893.669556,324
893.786011,311
893.902588,315
894.019165,305
894.135681,330
894.252197,325
894.368835,326
894.485291,322
894.601868,306
894.718384,307
894.8349,334
894.951355,317
895.067932,325
895.184448,312
895.300964,322
895.417419,309
895.533936,325
895.650452,325
895.766907,318
895.883423,323
895.999878,325
896.116333,311
896.232849,327
896.349304,332
896.465759,325
896.582214,318
896.698669,320
896.815125,298
896.931641,329
897.048035,320
897.164551,322
897.280884,323
897.397339,316
897.513794,320
897.630249,327
897.746582,316
897.863098,322
897.979431,323
898.095886,307
898.212341,318
898.328674,323
898.445129,306
898.561462,310
898.677795,322
898.794312,322
898.910645,315
899.026978,320
899.143433,320
899.259766,315
899.37616,316
899.492493,331
899.608765,318
899.725159,330
899.841553,310
899.957947,315
900.07428,307
900.190552,313
900.306946,322
900.423157,318
900.53949,313
900.655884,320
900.772156,311
900.888489,321
901.004822,324
901.121033,332
901.237366,323
901.353699,330
901.46991,319
901.586304,318
901.702515,316
901.818787,313
901.93512,315
902.051331,322
902.167603,304
902.283875,322
902.400085,295
902.516418,336
902.632629,324
902.74884,317
902.865112,329
902.981384,322
903.097595,309
903.213867,324
903.330017,319
903.446289,313
903.5625,316
903.67865,319
903.794922,311
903.911072,326
904.027344,312
904.143494,324
904.259705,313
904.375916,316
904.492065,312
904.608215,332
904.724426,303
904.840576,319
904.956726,307
905.072876,312
905.189087,309
905.305176,324
905.421387,323
905.537537,312
905.653687,320
905.769775,321
905.885925,316
906.002014,315
906.118164,313
906.234314,318
906.350403,315
906.466492,319
906.582642,322
906.69873,331
906.814758,315
906.930908,334
907.046936,318
907.163086,330
907.279175,310
907.395264,315
907.511353,327
907.62738,328
907.743408,330
907.859497,327
907.975525,309
908.091553,333
908.207703,322
908.32373,316
908.439758,315
908.555786,316
908.671814,329
908.787842,323
908.90387,326
909.019775,317
909.135864,320
909.251892,320
909.367859,306
909.483826,319
909.599854,323
909.715881,324
909.831848,313
909.947815,314
910.063782,321
910.179749,333
910.295776,316
910.411743,328
910.527649,312
910.643616,322
910.759583,314
910.875488,329
910.991455,318
911.107361,325
911.223267,310
911.339294,319
911.4552,311
911.571106,326
911.687073,318
911.802979,321
911.918823,321
912.034729,318
912.150635,320
912.266602,319
912.382446,321
912.498352,325
912.614197,317
912.730103,320
912.846008,310
792.44574,327
792.56488,354
792.68396,407
792.80304,380
792.92218,324
793.041199,327
793.160339,322
793.279419,330
793.398499,322
793.517578,307
793.636658,321
793.755737,345
793.874817,341
793.993896,342
794.112976,321
794.232056,335
794.351074,325
794.470215,319
794.589233,331
794.708313,322
794.827393,334
794.946411,328
795.065552,332
795.18457,324
795.303589,311
795.422668,343
795.541687,341
795.660767,322
795.779846,334
795.898865,332
796.017883,328
796.136963,328
796.255981,331
796.375061,328
796.49408,332
796.613037,327
796.732117,347
796.851135,333
796.970154,326
797.089233,320
797.208191,324
797.327271,331
797.446228,333
797.565186,320
797.684265,342
797.803223,333
797.922241,327
798.04126,323
798.160278,316
798.279297,324
798.398315,315
798.517273,331
798.636292,321
798.75531,322
798.874268,333
798.993286,325
799.112244,323
799.231323,332
799.350281,325
799.469238,330
799.588257,316
799.707153,333
799.826111,325
799.945129,334
800.064087,330
800.183044,340
800.302063,320
800.421021,326
800.539978,321
800.658936,320
800.777893,342
800.896912,324
801.015747,318
801.134705,325
801.253723,335
801.37262,325
801.491638,335
801.610535,338
801.729492,328
801.84845,326
801.967407,323
802.086243,331
802.205261,338
802.324158,334
802.443115,341
802.562073,331
802.680969,338
802.799927,337
802.918762,324
803.037659,335
803.156677,324
803.275574,324
803.39447,331
803.513428,335
803.632263,323
803.751221,352
803.870117,339
803.989014,327
804.107971,316
804.226746,325
804.345642,339
804.4646,338
804.583496,322
804.702393,337
804.821228,327
804.940125,346
805.059021,327
805.177917,333
805.296814,327
805.415649,324
805.534546,328
805.653442,328
805.772278,323
805.891113,329
806.01001,331
806.128906,324
806.247742,332
806.366577,328
806.485413,335
806.604309,325
806.723145,333
806.84198,327
806.960876,334
807.079712,334
807.198486,332
807.317383,328
807.436218,330
807.554993,329
807.673889,333
807.792725,326
807.91156,325
808.030396,333
808.14917,324
808.268005,336
808.386841,322
808.505676,329
808.624451,334
808.743286,337
808.862122,341
808.980896,335
809.099731,327
809.218506,332
809.337341,337
809.456116,336
809.57489,321
809.693726,315
809.8125,334
809.931274,334
810.050049,351
810.168884,332
810.287659,339
810.406372,340
810.525269,314
810.643982,335
810.762756,332
810.881531,326
811.000305,335
811.11908,332
811.237854,323
811.356567,324
811.475403,326
811.594116,322
811.71283,343
811.831604,342
811.950378,325
812.069153,342
812.187927,335
812.30658,333
812.425415,323
812.544128,330
812.662781,332
812.781616,336
812.900269,325
813.019043,330
813.137756,336
813.256531,333
813.375244,332
813.493896,323
813.612671,339
813.731384,339
813.850037,337
813.96875,331
814.087524,330
814.206238,310
814.324951,324
814.443604,340
814.562256,330
814.68103,320
814.799683,344
814.918335,328
815.037109,348
815.155762,329
815.274475,335
815.393188,322
815.511841,323
815.630554,328
815.749146,329
815.867859,339
815.986572,324
816.105164,327
816.223877,315
816.342529,329
816.461182,333
816.579895,326
816.698486,319
816.817139,338
816.935791,323
817.054504,346
817.173096,329
817.291748,332
817.4104,322
817.529053,323
817.647644,320
817.766235,325
817.884949,313
818.00354,347
818.122192,328
818.240845,311
818.359436,328
818.478088,333
818.59668,316
818.715271,323
818.833923,319
818.952515,312
819.071106,332
819.189758,316
819.30835,322
819.426941,322
819.545532,325
819.664124,321
819.782715,309
819.901306,323
820.019897,312
820.138489,324
820.25708,318
820.375671,322
820.494202,314
820.612732,318
820.731384,324
820.849915,314
820.968506,324
821.087097,315
821.205627,314
821.324158,325
821.442749,305
821.561279,331
821.679871,321
821.798401,317
821.916931,317
822.035461,317
822.154053,323
822.272583,320
822.391174,317
822.509583,325
822.628174,318
822.746704,310
822.865234,331
822.983765,307
823.102295,321
823.220825,330
823.339294,317
823.457825,335
823.576355,311
823.694824,324
823.813354,310
823.931885,315
824.050354,326
824.168884,321
824.287354,325
824.405823,317
824.524353,325
824.642822,323
824.761353,325
824.879822,325
824.998291,319
825.116699,324
825.235291,305
825.353699,317
825.472168,308
825.590637,330
825.709106,312
825.827576,325
825.946045,308
826.064453,329
826.182983,324
826.301392,318
826.4198,318
826.53833,321
826.656738,314
826.775208,311
826.893677,318
827.012024,311
827.130493,311
827.248962,329
827.36731,318
827.485779,326
827.604248,312
827.722595,329
827.841064,308
827.959412,325
828.077942,320
828.196289,316
828.314636,316
828.433105,316
828.551514,319
828.669861,318
828.78833,319
828.906677,321
829.025085,323
829.143433,308
829.261841,310
829.38031,333
829.498657,309
829.617004,317
829.735413,315
829.85376,317
829.972107,315
830.090515,324
830.208862,317
830.327209,309
830.445557,309
830.563904,320
830.682312,316
830.800659,312
830.919006,310
831.037354,323
831.155701,316
831.274048,313
831.392395,313
831.51062,316
831.629028,313
831.747314,310
831.865662,307
831.984009,323
832.102356,316
832.220642,320
832.338928,303
832.457275,312
832.575623,315
832.693909,329
832.812134,316
832.930481,320
833.048828,321
833.167114,311
833.2854,323
833.403687,328
833.521973,317
833.640259,316
833.758545,320
833.876831,315
833.995056,315
834.113281,318
834.231628,321
834.349915,310
834.468201,323
834.586426,313
834.704651,301
834.822998,321
834.941162,313
835.059448,310
835.177673,299
835.295959,306
835.414246,323
835.53241,309
835.650635,321
835.768921,313
835.887146,318
836.005371,305
836.123596,318
836.241821,320
836.360046,321
836.478271,308
836.596497,314
836.714722,320
836.832886,305
836.95105,310
837.069336,306
837.1875,309
837.305725,304
837.423889,312
837.542053,309
837.660339,327
837.778503,320
837.896667,304
838.014832,327
838.132996,324
838.25116,317
838.369385,324
838.487488,323
838.605713,325
838.723877,324
838.84198,317
838.960205,315
839.078308,319
839.196472,327
839.314636,315
839.4328,311
839.550964,313
839.669067,312
839.787231,314
839.905396,325
840.023499,325
840.141602,318
840.259766,322
840.377869,310
840.495972,324
840.614136,310
840.732239,320
840.850342,304
840.968445,327
841.086548,322
841.204651,312
841.322754,324
841.440918,306
841.55896,323
841.677002,326
841.795166,320
841.913208,322
842.031311,317
842.149353,314
842.267456,311
842.385498,323
842.503601,324
842.621643,314
842.739746,306
842.857788,312
842.97583,307
843.093933,332
843.211975,306
843.330017,313
843.44812,310
843.566101,311
843.684204,309
843.802246,325
843.920227,314
844.038269,324
844.156311,309
844.274292,329
844.392395,307
844.510376,309
844.628357,319
844.74646,304
844.864441,303
844.982422,312
845.100403,306
845.218384,315
845.336426,323
845.454468,317
845.572449,324
845.69043,326
845.808411,333
845.926453,320
846.044373,309
846.162354,323
846.280396,322
846.398315,313
846.516296,322
846.634216,303
846.752197,316
846.870178,313
846.988098,314
847.106079,325
847.22406,301
847.34198,318
847.4599,306
847.577881,326
847.695801,318
847.813782,322
847.931641,308
848.049561,306
848.167603,328
848.285461,318
848.403381,300
848.521362,314
848.639221,314
848.75708,306
848.875,321
848.99292,321
849.110901,316
849.22876,320
849.34668,317
849.464539,312
849.582458,326
849.700317,320
849.818176,311
849.936096,316
850.053955,316
850.171875,309
850.289673,318
850.407593,306
850.525452,330
850.643311,316
850.761169,314
850.878967,318
850.996887,319
851.114746,321
851.232544,300
851.350403,329
851.468262,313
851.58606,328
851.703979,316
851.821777,321
851.939636,321
852.057434,319
852.175232,319
852.293091,316
852.410889,315
852.528687,320
852.646545,309
852.764343,318
852.88208,317
852.999939,321
853.117676,323
853.235535,321
853.353271,305
853.471069,311
853.588928,311
853.706604,314
853.824402,324
853.9422,315
854.059998,311
854.177734,302
854.295532,318
854.413269,330
854.531006,315
854.648804,314
854.766541,320
854.884277,320
855.002014,314
855.119751,316
855.237549,312
855.355225,312
855.473022,319
855.590698,337
855.708435,306
855.826172,318
855.943848,337
856.061646,321
856.179321,310
856.296997,315
856.414795,316
856.53241,322
856.650085,320
856.767822,312
856.885559,305
857.003174,313
857.120911,314
857.238586,316
857.356201,309
857.473938,308
857.591614,330
857.709351,332
857.826965,320
857.944641,318
858.062317,329
858.179993,326
858.297668,310
858.415283,310
858.532959,312
858.650574,325
858.768188,327
858.885803,315
859.003479,313
859.121094,328
859.23877,309
859.356384,315
859.473999,314
859.591675,312
859.709229,322
859.826843,320
859.944458,305
860.062012,300
860.179626,330
860.297302,315
860.414856,316
860.532471,316
860.650024,333
860.767639,322
860.885193,312
861.002808,325
861.120361,316
861.237976,325
861.35553,319
861.473022,310
861.590698,310
861.708191,334
861.825745,325
861.943298,311
862.060852,317
862.178406,312
862.295959,314
862.413513,321
862.531006,307
862.64856,336
862.766113,309
862.883667,324
863.00116,302
863.118713,316
863.236206,318
863.353699,321
863.471252,312
863.588745,323
863.706177,315
863.82373,320
863.941162,310
864.058716,326
864.176208,315
864.29364,316
864.411194,321
864.528687,324
864.646118,305
864.763611,322
864.881042,314
864.998535,317
865.116028,308
865.233459,307
865.350891,323
865.468384,323
865.585754,325
865.703308,300
865.820679,318
865.938171,325
866.055542,309
866.173035,329
866.290466,310
866.407837,331
866.52533,301
866.6427,300
866.760071,318
866.877563,326
866.994934,330
867.112305,297
867.229736,311
867.347107,326
867.464539,310
867.58197,322
867.699341,325
867.81665,321
867.934082,307
868.051453,314
868.168823,321
868.286194,327
868.403564,309
868.520935,323
868.638306,315
868.755676,325
868.872986,322
868.990295,323
869.107727,317
869.225037,325
869.342346,319
869.459717,315
869.577026,315
869.694336,316
869.811707,300
869.929016,320
870.046326,309
870.163635,323
870.280945,318
870.398254,320
870.515564,310
870.632812,329
870.750183,313
870.867432,306
870.984741,315
871.102051,316
871.219299,325
871.336609,312
871.453918,307
871.571106,322
871.688416,310
871.805664,318
871.922852,308
872.040222,315
872.157471,320
872.274719,322
872.391968,320
872.509155,320
872.626465,338
872.743652,317
872.860962,317
872.978149,327
873.095337,313
873.212646,325
873.329834,308
873.44696,326
873.564209,311
873.681396,314
873.798645,316
873.915894,319
874.03302,316
874.150208,323
874.267456,301
874.384583,326
874.501831,318
874.618958,315
874.736145,309
874.853333,322
874.970459,318
875.087646,309
875.204834,321
875.32196,313
875.439148,314
875.556274,327
875.673401,294
875.790527,320
875.907715,320
876.024841,313
876.141968,312
876.259094,306
876.376282,313
876.493347,319
876.610474,309
876.7276,319
876.844727,318
876.961853,299
877.078918,318
877.195984,320
877.313171,319
877.430237,318
877.547302,321
877.664368,331
877.781433,317
877.898499,322
878.015625,311
878.13269,324
878.249695,312
878.366821,309
878.483887,329
878.600952,302
878.717957,324
878.834961,315
878.952087,318
879.069092,329
879.186157,318
879.303162,333
879.420227,321
879.537231,318
879.654236,314
879.77124,318
879.888306,332
880.005249,326
880.122314,302
880.239319,319
880.356323,321
880.473328,338
880.590271,321
880.707275,320
880.824341,310
880.941284,307
881.058228,321
881.175232,328
881.292236,307
881.40918,328
881.526123,311
881.643066,318
881.760071,335
881.877014,318
881.993958,314
882.11084,308
882.227783,322
882.344727,313
882.46167,304
882.578613,319
882.695618,315
882.812439,322
882.929382,317
883.046326,308
883.163208,319
883.280151,307
883.397034,308
883.513916,314
883.630798,320
883.747742,322
883.864563,319
883.981506,322
884.098389,307
884.21521,316
884.332153,310
884.448975,315
884.565796,319
884.682678,315
884.7995,313
884.916443,315
885.033264,305
885.150085,311
885.266968,308
885.383789,330
885.500671,323
885.617493,307
885.734314,312
885.851196,327
885.967896,312
886.084717,304
886.201599,318
886.318359,331
886.435181,313
886.552002,312
886.668762,314
886.785645,323
886.902344,318
887.019165,317
887.135925,307
887.252747,321
887.369446,322
887.486267,317
887.603027,317
887.719788,311
887.836548,317
887.953247,311
888.070068,319
888.186829,328
888.303528,318
888.420288,317
888.536987,327
888.653687,315
888.770447,324
888.887146,317
889.003967,301
889.120667,322
889.237305,313
889.354065,326
889.470703,313
889.587463,315
889.704163,316
889.820862,311
889.937561,311
890.054199,322
890.170837,307
890.287598,324
890.404236,332
890.520874,330
890.637634,329
890.754211,319
890.87085,323
890.987549,307
891.104187,331
891.220886,312
891.337463,314
891.454102,318
891.57074,325
891.687378,302
891.804077,304
891.920654,324
892.037231,314
892.15387,327
892.270447,320
892.387085,301
892.503723,321
892.6203,318
892.736877,323
892.853516,321
892.970032,309
893.08667,316
893.203186,314
893.319763,318
893.43634,307
893.552917,324
893.669556,321
893.786011,321
893.902588,310
894.019165,330
894.135681,322
894.252197,323
894.368835,308
894.485291,331
894.601868,311
894.718384,312
894.8349,318
894.951355,323
895.067932,317
895.184448,315
895.300964,320
895.417419,329
895.533936,321
895.650452,313
895.766907,324
895.883423,315
895.999878,318
896.116333,326
896.232849,310
896.349304,318
896.465759,330
896.582214,317
896.698669,304
896.815125,322
896.931641,305
897.048035,327
897.164551,313
897.280884,316
897.397339,313
897.513794,321
897.630249,319
897.746582,332
897.863098,318
897.979431,319
898.095886,329
898.212341,322
898.328674,332
898.445129,321
898.561462,305
898.677795,323
898.794312,316
898.910645,313
899.026978,322
899.143433,318
899.259766,324
899.37616,317
899.492493,332
899.608765,321
899.725159,316
899.841553,308
899.957947,297
900.07428,324
900.190552,333
900.306946,328
900.423157,320
900.53949,324
900.655884,318
900.772156,309
900.888489,318
901.004822,308
901.121033,311
901.237366,326
901.353699,308
901.46991,331
901.586304,310
901.702515,312
901.818787,314
901.93512,310
902.051331,309
902.167603,322
902.283875,318
902.400085,335
902.516418,318
902.632629,319
902.74884,316
902.865112,328
902.981384,329
903.097595,320
903.213867,323
903.330017,325
903.446289,316
903.5625,331
903.67865,314
903.794922,339
903.911072,323
904.027344,321
904.143494,323
904.259705,318
904.375916,299
904.492065,328
904.608215,316
904.724426,323
904.840576,304
904.956726,321
905.072876,326
905.189087,311
905.305176,311
905.421387,324
905.537537,320
905.653687,326
905.769775,316
905.885925,319
906.002014,334
906.118164,320
906.234314,323
906.350403,331
906.466492,327
906.582642,305
906.69873,315
906.814758,318
906.930908,307
907.046936,305
907.163086,313
907.279175,314
907.395264,316
907.511353,308
907.62738,320
907.743408,306
907.859497,327
907.975525,315
908.091553,317
908.207703,313
908.32373,305
908.439758,310
908.555786,316
908.671814,311
908.787842,322
908.90387,327
909.019775,324
909.135864,325
909.251892,305
909.367859,318
909.483826,318
909.599854,327
909.715881,322
909.831848,323
909.947815,319
910.063782,325
910.179749,317
910.295776,326
910.411743,301
910.527649,318
910.643616,318
910.759583,332
910.875488,314
910.991455,325
911.107361,330
911.223267,314
911.339294,312
911.4552,329
911.571106,309
911.687073,325
911.802979,320
911.918823,324
912.034729,312
912.150635,318
912.266602,313
912.382446,317
912.498352,316
912.614197,328
912.730103,335
912.846008,306
792.44574,317
792.56488,340
792.68396,389
792.80304,382
792.92218,319
793.041199,322
793.160339,338
793.279419,344
793.398499,321
793.517578,311
793.636658,328
793.755737,340
793.874817,338
793.993896,348
794.112976,330
794.232056,334
794.351074,327
794.470215,338
794.589233,329
794.708313,330
794.827393,334
794.946411,333
795.065552,356
795.18457,340
795.303589,328
795.422668,326
795.541687,336
795.660767,325
795.779846,325
795.898865,328
796.017883,313
796.136963,323
796.255981,332
796.375061,343
796.49408,333
796.613037,330
796.732117,332
796.851135,315
796.970154,332
797.089233,325
797.208191,324
797.327271,322
797.446228,327
797.565186,330
797.684265,314
797.803223,335
797.922241,326
798.04126,320
798.160278,326
798.279297,330
798.398315,324
798.517273,322
798.636292,314
798.75531,336
798.874268,323
798.993286,321
799.112244,312
799.231323,333
799.350281,326
799.469238,333
799.588257,323
799.707153,321
799.826111,326
799.945129,322
800.064087,326
800.183044,329
800.302063,335
800.421021,333
800.539978,328
800.658936,331
800.777893,321
800.896912,330
801.015747,334
801.134705,333
801.253723,336
801.37262,329
801.491638,332
801.610535,326
801.729492,328
801.84845,322
801.967407,328
802.086243,334
802.205261,322
802.324158,323
802.443115,332
802.562073,334
802.680969,327
802.799927,322
802.918762,324
803.037659,318
803.156677,327
803.275574,323
803.39447,320
803.513428,313
803.632263,326
803.751221,331
803.870117,321
803.989014,316
804.107971,326
804.226746,326
804.345642,340
804.4646,326
804.583496,329
804.702393,332
804.821228,331
804.940125,326
805.059021,333
805.177917,338
805.296814,331
805.415649,331
805.534546,326
805.653442,328
805.772278,328
805.891113,332
806.01001,322
806.128906,326
806.247742,321
806.366577,343
806.485413,319
806.604309,313
806.723145,321
806.84198,327
806.960876,324
807.079712,330
807.198486,324
807.317383,332
807.436218,343
807.554993,322
807.673889,320
807.792725,344
807.91156,328
808.030396,320
808.14917,321
808.268005,319
808.386841,325
808.505676,333
808.624451,334
808.743286,322
808.862122,343
808.980896,339
809.099731,337
809.218506,325
809.337341,325
809.456116,328
809.57489,329
809.693726,342
809.8125,331
809.931274,331
810.050049,333
810.168884,327
810.287659,336
810.406372,336
810.525269,344
810.643982,326
810.762756,323
810.881531,330
811.000305,333
811.11908,326
811.237854,322
811.356567,325
811.475403,324
811.594116,320
811.71283,332
811.831604,337
811.950378,337
812.069153,320
812.187927,336
812.30658,335
812.425415,331
812.544128,330
812.662781,340
812.781616,330
812.900269,334
813.019043,333
813.137756,313
813.256531,346
813.375244,338
813.493896,345
813.612671,330
813.731384,342
813.850037,336
813.96875,339
814.087524,344
814.206238,336
814.324951,336
814.443604,339
814.562256,333
814.68103,328
814.799683,340
814.918335,328
815.037109,324
815.155762,318
815.274475,327
815.393188,323
815.511841,328
815.630554,340
815.749146,333
815.867859,326
815.986572,324
816.105164,330
816.223877,338
816.342529,320
816.461182,327
816.579895,333
816.698486,320
816.817139,322
816.935791,324
817.054504,328
817.173096,332
817.291748,332
817.4104,319
817.529053,334
817.647644,326
817.766235,337
817.884949,327
818.00354,330
818.122192,321
818.240845,325
818.359436,333
818.478088,322
818.59668,333
818.715271,325
818.833923,320
818.952515,336
819.071106,315
819.189758,320
819.30835,328
819.426941,332
819.545532,323
819.664124,330
819.782715,309
819.901306,318
820.019897,315
820.138489,318
820.25708,326
820.375671,320
820.494202,308
820.612732,324
820.731384,317
820.849915,317
820.968506,337
821.087097,316
821.205627,312
821.324158,326
821.442749,317
821.561279,310
821.679871,324
821.798401,323
821.916931,329
822.035461,323
822.154053,317
822.272583,332
822.391174,320
822.509583,332
822.628174,317
822.746704,323
822.865234,322
822.983765,317
823.102295,319
823.220825,331
823.339294,320
823.457825,314
823.576355,330
823.694824,334
823.813354,319
823.931885,312
824.050354,304
824.168884,301
824.287354,320
824.405823,317
824.524353,310
824.642822,327
824.761353,310
824.879822,308
824.998291,327
825.116699,332
825.235291,319
825.353699,327
825.472168,316
825.590637,324
825.709106,326
825.827576,312
825.946045,314
826.064453,315
826.182983,305
826.301392,318
826.4198,309
826.53833,311
826.656738,317
826.775208,328
826.893677,318
827.012024,316
827.130493,319
827.248962,311
827.36731,319
827.485779,322
827.604248,314
827.722595,335
827.841064,308
827.959412,309
828.077942,309
828.196289,316
828.314636,317
828.433105,311
828.551514,328
828.669861,334
828.78833,321
828.906677,316
829.025085,325
829.143433,302
829.261841,317
829.38031,313
829.498657,305
829.617004,309
829.735413,315
829.85376,322
829.972107,326
830.090515,310
830.208862,326
830.327209,312
830.445557,310
830.563904,307
830.682312,329
830.800659,319
830.919006,304
831.037354,322
831.155701,324
831.274048,311
831.392395,324
831.51062,316
831.629028,320
831.747314,333
831.865662,332
831.984009,322
832.102356,308
832.220642,316
832.338928,311
832.457275,312
832.575623,319
832.693909,333
832.812134,323
832.930481,320
833.048828,317
833.167114,320
833.2854,306
833.403687,327
833.521973,311
833.640259,315
833.758545,320
833.876831,333
833.995056,300
834.113281,326
834.231628,322
834.349915,313
834.468201,316
834.586426,308
834.704651,307
834.822998,320
834.941162,322
835.059448,314
835.177673,317
835.295959,329
835.414246,306
835.53241,322
835.650635,304
835.768921,315
835.887146,316
836.005371,321
836.123596,323
836.241821,312
836.360046,310
836.478271,330
836.596497,318
836.714722,316
836.832886,313
836.95105,315
837.069336,311
837.1875,311
837.305725,330
837.423889,321
837.542053,326
837.660339,325
837.778503,307
837.896667,314
838.014832,316
838.132996,325
838.25116,318
838.369385,310
838.487488,314
838.605713,313
838.723877,316
838.84198,327
838.960205,322
839.078308,327
839.196472,311
839.314636,326
839.4328,313
839.550964,331
839.669067,322
839.787231,326
839.905396,310
840.023499,317
840.141602,322
840.259766,310
840.377869,319
840.495972,306
840.614136,328
840.732239,319
840.850342,296
840.968445,310
841.086548,301
841.204651,314
841.322754,314
841.440918,322
841.55896,316
841.677002,322
841.795166,315
841.913208,319
842.031311,329
842.149353,313
842.267456,321
842.385498,319
842.503601,323
842.621643,318
842.739746,300
842.857788,327
842.97583,312
843.093933,309
843.211975,305
843.330017,319
843.44812,315
843.566101,315
843.684204,316
843.802246,311
843.920227,326
844.038269,314
844.156311,312
844.274292,303
844.392395,321
844.510376,306
844.628357,309
844.74646,313
844.864441,320
844.982422,314
845.100403,301
845.218384,328
845.336426,304
845.454468,321
845.572449,314
845.69043,303
845.808411,325
845.926453,311
846.044373,320
846.162354,322
846.280396,303
846.398315,304
846.516296,318
846.634216,311
846.752197,320
846.870178,323
846.988098,318
847.106079,320
847.22406,326
847.34198,314
847.4599,319
847.577881,318
847.695801,317
847.813782,319
847.931641,317
848.049561,316
848.167603,322
848.285461,331
848.403381,316
848.521362,316
848.639221,311
848.75708,325
848.875,313
848.99292,316
849.110901,314
849.22876,314
849.34668,307
849.464539,316
849.582458,312
849.700317,326
849.818176,314
849.936096,313
850.053955,311
850.171875,326
850.289673,317
850.407593,312
850.525452,318
850.643311,316
850.761169,313
850.878967,312
850.996887,318
851.114746,315
851.232544,295
851.350403,312
851.468262,312
851.58606,305
851.703979,316
851.821777,307
851.939636,319
852.057434,317
852.175232,315
852.293091,319
852.410889,303
852.528687,324
852.646545,298
852.764343,305
852.88208,312
852.999939,303
853.117676,322
853.235535,317
853.353271,322
853.471069,316
853.588928,306
853.706604,327
853.824402,316
853.9422,316
854.059998,313
854.177734,317
854.295532,330
854.413269,336
854.531006,316
854.648804,314
854.766541,299
854.884277,315
855.002014,321
855.119751,330
855.237549,317
855.355225,327
855.473022,300
855.590698,321
855.708435,321
855.826172,308
855.943848,310
856.061646,323
856.179321,319
856.296997,300
856.414795,319
856.53241,312
856.650085,319
856.767822,316
856.885559,321
857.003174,332
857.120911,326
857.238586,323
857.356201,311
857.473938,314
857.591614,328
857.709351,305
857.826965,323
857.944641,309
858.062317,307
858.179993,325
858.297668,314
858.415283,312
858.532959,315
858.650574,316
858.768188,312
858.885803,311
859.003479,335
859.121094,316
859.23877,306
859.356384,317
859.473999,307
859.591675,314
859.709229,327
859.826843,323
859.944458,313
860.062012,317
860.179626,333
860.297302,321
860.414856,305
860.532471,315
860.650024,307
860.767639,318
860.885193,315
861.002808,315
861.120361,309
861.237976,323
861.35553,316
861.473022,316
861.590698,322
861.708191,332
861.825745,308
861.943298,310
862.060852,319
862.178406,314
862.295959,309
862.413513,319
862.531006,312
862.64856,327
862.766113,319
862.883667,321
863.00116,309
863.118713,327
863.236206,297
863.353699,319
863.471252,308
863.588745,324
863.706177,326
863.82373,310
863.941162,313
864.058716,316
864.176208,308
864.29364,314
864.411194,301
864.528687,325
864.646118,323
864.763611,317
864.881042,322
864.998535,321
865.116028,307
865.233459,309
865.350891,319
865.468384,320
865.585754,301
865.703308,312
865.820679,327
865.938171,325
866.055542,312
866.173035,325
866.290466,313
866.407837,323
866.52533,298
866.6427,317
866.760071,313
866.877563,317
866.994934,312
867.112305,313
867.229736,317
867.347107,313
867.464539,304
867.58197,315
867.699341,309
867.81665,320
867.934082,313
868.051453,316
868.168823,319
868.286194,329
868.403564,306
868.520935,306
868.638306,311
868.755676,301
868.872986,325
868.990295,323
869.107727,318
869.225037,311
869.342346,320
869.459717,319
869.577026,325
869.694336,319
869.811707,315
869.929016,320
870.046326,308
870.163635,329
870.280945,315
870.398254,310
870.515564,330
870.632812,314
870.750183,320
870.867432,313
870.984741,316
871.102051,317
871.219299,313
871.336609,319
871.453918,316
871.571106,322
871.688416,315
871.805664,325
871.922852,311
872.040222,308
872.157471,314
872.274719,315
872.391968,324
872.509155,320
872.626465,303
872.743652,324
872.860962,315
872.978149,314
873.095337,306
873.212646,318
873.329834,312
873.44696,319
873.564209,325
873.681396,313
873.798645,325
873.915894,315
874.03302,325
874.150208,302
874.267456,311
874.384583,321
874.501831,301
874.618958,309
874.736145,323
874.853333,314
874.970459,314
875.087646,310
875.204834,322
875.32196,331
875.439148,332
875.556274,314
875.673401,302
875.790527,325
875.907715,310
876.024841,312
876.141968,321
876.259094,304
876.376282,307
876.493347,326
876.610474,317
876.7276,321
876.844727,314
876.961853,342
877.078918,303
877.195984,310
877.313171,320
877.430237,320
877.547302,310
877.664368,312
877.781433,307
877.898499,329
878.015625,317
878.13269,314
878.249695,321
878.366821,307
878.483887,318
878.600952,321
878.717957,328
878.834961,315
878.952087,313
879.069092,318
879.186157,320
879.303162,319
879.420227,320
879.537231,331
879.654236,317
879.77124,304
879.888306,320
880.005249,325
880.122314,318
880.239319,312
880.356323,316
880.473328,322
880.590271,314
880.707275,318
880.824341,322
880.941284,328
881.058228,319
881.175232,317
881.292236,316
881.40918,309
881.526123,308
881.643066,307
881.760071,319
881.877014,317
881.993958,311
882.11084,309
882.227783,316
882.344727,322
882.46167,324
882.578613,322
882.695618,305
882.812439,332
882.929382,316
883.046326,314
883.163208,329
883.280151,307
883.397034,323
883.513916,317
883.630798,323
883.747742,310
883.864563,320
883.981506,317
884.098389,316
884.21521,315
884.332153,316
884.448975,320
884.565796,317
884.682678,311
884.7995,318
884.916443,307
885.033264,306
885.150085,300
885.266968,316
885.383789,312
885.500671,329
885.617493,312
885.734314,335
885.851196,305
885.967896,320
886.084717,311
886.201599,316
886.318359,326
886.435181,314
886.552002,328
886.668762,303
886.785645,316
886.902344,326
887.019165,317
887.135925,321
887.252747,323
887.369446,317
887.486267,319
887.603027,328
887.719788,321
887.836548,329
887.953247,327
888.070068,304
888.186829,318
888.303528,317
888.420288,319
888.536987,318
888.653687,318
888.770447,306
888.887146,316
889.003967,310
889.120667,313
889.237305,311
889.354065,321
889.470703,329
889.587463,320
889.704163,323
889.820862,308
889.937561,314
890.054199,330
890.170837,316
890.287598,336
890.404236,309
890.520874,333
890.637634,306
890.754211,311
890.87085,318
890.987549,309
891.104187,320
891.220886,316
891.337463,322
891.454102,322
891.57074,327
891.687378,325
891.804077,317
891.920654,327
892.037231,325
892.15387,314
892.270447,310
892.387085,312
892.503723,313
892.6203,312
892.736877,319
892.853516,312
892.970032,334
893.08667,322
893.203186,330
893.319763,317
893.43634,316
893.552917,315
893.669556,308
893.786011,304
893.902588,322
894.019165,319
894.135681,318
894.252197,310
894.368835,314
894.485291,323
894.601868,323
894.718384,314
894.8349,322
894.951355,313
895.067932,324
895.184448,325
895.300964,320
895.417419,314
895.533936,311
895.650452,332
895.766907,319
895.883423,322
895.999878,310
896.116333,314
896.232849,304
896.349304,319
896.465759,310
896.582214,318
896.698669,318
896.815125,317
896.931641,316
897.048035,326
897.164551,312
897.280884,310
897.397339,326
897.513794,313
897.630249,327
897.746582,315
897.863098,316
897.979431,322
898.095886,316
898.212341,340
898.328674,325
898.445129,306
898.561462,318
898.677795,292
898.794312,311
898.910645,328
899.026978,318
899.143433,317
899.259766,315
899.37616,320
899.492493,309
899.608765,324
899.725159,315
899.841553,315
899.957947,332
900.07428,307
900.190552,301
900.306946,321
900.423157,317
900.53949,322
900.655884,311
900.772156,332
900.888489,311
901.004822,315
901.121033,329
901.237366,323
901.353699,307
901.46991,323
901.586304,312
901.702515,312
901.818787,320
901.93512,307
902.051331,317
902.167603,313
902.283875,333
902.400085,310
902.516418,318
902.632629,310
902.74884,314
902.865112,329
902.981384,317
903.097595,303
903.213867,319
903.330017,311
903.446289,313
903.5625,319
903.67865,312
903.794922,314
903.911072,324
904.027344,323
904.143494,311
904.259705,312
904.375916,312
904.492065,322
904.608215,313
904.724426,315
904.840576,314
904.956726,315
905.072876,319
905.189087,327
905.305176,323
905.421387,325
905.537537,310
905.653687,309
905.769775,318
905.885925,317
906.002014,312
906.118164,324
906.234314,314
906.350403,318
906.466492,305
906.582642,322
906.69873,316
906.814758,324
906.930908,311
907.046936,301
907.163086,315
907.279175,332
907.395264,315
907.511353,310
907.62738,316
907.743408,318
907.859497,315
907.975525,313
908.091553,314
908.207703,337
908.32373,319
908.439758,321
908.555786,310
908.671814,329
908.787842,322
908.90387,315
909.019775,324
909.135864,316
909.251892,321
909.367859,323
909.483826,306
909.599854,318
909.715881,317
909.831848,311
909.947815,311
910.063782,307
910.179749,316
910.295776,327
910.411743,318
910.527649,314
910.643616,324
910.759583,323
910.875488,311
910.991455,321
911.107361,308
911.223267,324
911.339294,323
911.4552,307
911.571106,318
911.687073,326
911.802979,324
911.918823,322
912.034729,307
912.150635,303
912.266602,303
912.382446,320
912.498352,309
912.614197,320
912.730103,318
912.846008,330
