792.44574,320
792.56488,341
792.68396,413
792.80304,374
792.92218,333
793.041199,323
793.160339,324
793.279419,344
793.398499,340
793.517578,334
793.636658,329
793.755737,340
793.874817,344
793.993896,340
794.112976,351
794.232056,339
794.351074,331
794.470215,327
794.589233,338
794.708313,322
794.827393,344
794.946411,329
795.065552,346
795.18457,334
795.303589,334
795.422668,320
795.541687,335
795.660767,343
795.779846,341
795.898865,325
796.017883,344
796.136963,327
796.255981,344
796.375061,334
796.49408,337
796.613037,329
796.732117,333
796.851135,334
796.970154,331
797.089233,317
797.208191,333
797.327271,334
797.446228,326
797.565186,317
797.684265,328
797.803223,333
797.922241,338
798.04126,330
798.160278,325
798.279297,340
798.398315,333
798.517273,323
798.636292,329
798.75531,329
798.874268,325
798.993286,339
799.112244,333
799.231323,333
799.350281,327
799.469238,338
799.588257,326
799.707153,336
799.826111,325
799.945129,338
800.064087,338
800.183044,334
800.302063,338
800.421021,310
800.539978,322
800.658936,322
800.777893,330
800.896912,322
801.015747,349
801.134705,320
801.253723,339
801.37262,317
801.491638,327
801.610535,325
801.729492,311
801.84845,333
801.967407,330
802.086243,318
802.205261,313
802.324158,340
802.443115,329
802.562073,327
802.680969,332
802.799927,340
802.918762,318
803.037659,340
803.156677,325
803.275574,331
803.39447,319
803.513428,336
803.632263,342
803.751221,336
803.870117,324
803.989014,326
804.107971,326
804.226746,317
804.345642,341
804.4646,332
804.583496,335
804.702393,326
804.821228,327
804.940125,346
805.059021,336
805.177917,332
805.296814,332
805.415649,332
805.534546,322
805.653442,339
805.772278,332
805.891113,319
806.01001,342
806.128906,320
806.247742,332
806.366577,322
806.485413,333
806.604309,329
806.723145,339
806.84198,322
806.960876,343
807.079712,319
807.198486,333
807.317383,338
807.436218,330
807.554993,329
807.673889,329
807.792725,315
807.91156,341
808.030396,337
808.14917,332
808.268005,321
808.386841,326
808.505676,331
808.624451,328
808.743286,321
808.862122,329
808.980896,343
809.099731,323
809.218506,334
809.337341,331
809.456116,325
809.57489,328
809.693726,350
809.8125,338
809.931274,328
810.050049,339
810.168884,324
810.287659,340
810.406372,344
810.525269,341
810.643982,319
810.762756,320
810.881531,328
811.000305,350
811.11908,327
811.237854,341
811.356567,325
811.475403,335
811.594116,324
811.71283,337
811.831604,339
811.950378,332
812.069153,329
812.187927,342
812.30658,337
812.425415,338
812.544128,323
812.662781,339
812.781616,335
812.900269,330
813.019043,334
813.137756,338
813.256531,324
813.375244,353
813.493896,325
813.612671,344
813.731384,332
813.850037,334
813.96875,334
814.087524,343
814.206238,334
814.324951,350
814.443604,335
814.562256,342
814.68103,325
814.799683,339
814.918335,324
815.037109,325
815.155762,332
815.274475,332
815.393188,338
815.511841,328
815.630554,326
815.749146,328
815.867859,340
815.986572,327
816.105164,331
816.223877,335
816.342529,345
816.461182,334
816.579895,333
816.698486,325
816.817139,335
816.935791,333
817.054504,326
817.173096,338
817.291748,321
817.4104,335
817.529053,327
817.647644,323
817.766235,321
817.884949,327
818.00354,339
818.122192,325
818.240845,326
818.359436,327
818.478088,339
818.59668,330
818.715271,327
818.833923,321
818.952515,312
819.071106,320
819.189758,320
819.30835,325
819.426941,318
819.545532,327
819.664124,319
819.782715,323
819.901306,312
820.019897,324
820.138489,323
820.25708,328
820.375671,304
820.494202,316
820.612732,317
820.731384,319
820.849915,303
820.968506,320
821.087097,327
821.205627,326
821.324158,318
821.442749,324
821.561279,321
821.679871,318
821.798401,319
821.916931,313
822.035461,319
822.154053,320
822.272583,314
822.391174,324
822.509583,313
822.628174,320
822.746704,312
822.865234,323
822.983765,312
823.102295,321
823.220825,327
823.339294,310
823.457825,329
823.576355,325
823.694824,323
823.813354,318
823.931885,326
824.050354,321
824.168884,318
824.287354,324
824.405823,308
824.524353,303
824.642822,309
824.761353,330
824.879822,308
824.998291,321
825.116699,313
825.235291,319
825.353699,312
825.472168,315
825.590637,298
825.709106,328
825.827576,302
825.946045,324
826.064453,316
826.182983,324
826.301392,305
826.4198,329
826.53833,330
826.656738,310
826.775208,314
826.893677,334
827.012024,312
827.130493,311
827.248962,325
827.36731,316
827.485779,304
827.604248,324
827.722595,318
827.841064,310
827.959412,313
828.077942,321
828.196289,322
828.314636,337
828.433105,319
828.551514,312
828.669861,319
828.78833,315
828.906677,311
829.025085,335
829.143433,319
829.261841,306
829.38031,324
829.498657,325
829.617004,316
829.735413,318
829.85376,318
829.972107,330
830.090515,309
830.208862,316
830.327209,324
830.445557,324
830.563904,322
830.682312,313
830.800659,309
830.919006,304
831.037354,326
831.155701,321
831.274048,322
831.392395,320
831.51062,311
831.629028,302
831.747314,316
831.865662,312
831.984009,328
832.102356,329
832.220642,314
832.338928,322
832.457275,315
832.575623,317
832.693909,320
832.812134,337
832.930481,308
833.048828,320
833.167114,314
833.2854,320
833.403687,303
833.521973,325
833.640259,303
833.758545,315
833.876831,323
833.995056,322
834.113281,307
834.231628,322
834.349915,324
834.468201,310
834.586426,321
834.704651,324
834.822998,321
834.941162,321
835.059448,326
835.177673,331
835.295959,325
835.414246,323
835.53241,313
835.650635,322
835.768921,321
835.887146,327
836.005371,325
836.123596,316
836.241821,293
836.360046,335
836.478271,317
836.596497,313
836.714722,322
836.832886,321
836.95105,314
837.069336,319
837.1875,327
837.305725,315
837.423889,305
837.542053,323
837.660339,304
837.778503,328
837.896667,303
838.014832,322
838.132996,316
838.25116,327
838.369385,309
838.487488,315
838.605713,319
838.723877,318
838.84198,312
838.960205,321
839.078308,319
839.196472,320
839.314636,311
839.4328,314
839.550964,302
839.669067,321
839.787231,304
839.905396,322
840.023499,325
840.141602,324
840.259766,332
840.377869,318
840.495972,311
840.614136,337
840.732239,308
840.850342,330
840.968445,314
841.086548,318
841.204651,317
841.322754,330
841.440918,325
841.55896,322
841.677002,326
841.795166,314
841.913208,314
842.031311,332
842.149353,323
842.267456,323
842.385498,295
842.503601,313
842.621643,305
842.739746,296
842.857788,306
842.97583,326
843.093933,319
843.211975,322
843.330017,301
843.44812,328
843.566101,317
843.684204,319
843.802246,319
843.920227,322
844.038269,310
844.156311,320
844.274292,320
844.392395,319
844.510376,317
844.628357,318
844.74646,319
844.864441,317
844.982422,317
845.100403,322
845.218384,321
845.336426,310
845.454468,328
845.572449,314
845.69043,314
845.808411,331
845.926453,321
846.044373,315
846.162354,311
846.280396,314
846.398315,315
846.516296,329
846.634216,318
846.752197,326
846.870178,316
846.988098,327
847.106079,303
847.22406,294
847.34198,329
847.4599,325
847.577881,324
847.695801,321
847.813782,312
847.931641,312
848.049561,313
848.167603,320
848.285461,319
848.403381,310
848.521362,292
848.639221,308
848.75708,320
848.875,331
848.99292,312
849.110901,314
849.22876,326
849.34668,340
849.464539,307
849.582458,314
849.700317,309
849.818176,307
849.936096,303
850.053955,332
850.171875,312
850.289673,325
850.407593,307
850.525452,324
850.643311,324
850.761169,320
850.878967,313
850.996887,318
851.114746,319
851.232544,312
851.350403,313
851.468262,313
851.58606,316
851.703979,331
851.821777,317
851.939636,319
852.057434,309
852.175232,320
852.293091,310
852.410889,311
852.528687,320
852.646545,319
852.764343,314
852.88208,311
852.999939,297
853.117676,314
853.235535,312
853.353271,331
853.471069,315
853.588928,321
853.706604,313
853.824402,296
853.9422,322
854.059998,332
854.177734,312
854.295532,309
854.413269,324
854.531006,301
854.648804,320
854.766541,306
854.884277,316
855.002014,325
855.119751,307
855.237549,322
855.355225,318
855.473022,312
855.590698,305
855.708435,308
855.826172,318
855.943848,313
856.061646,316
856.179321,310
856.296997,313
856.414795,322
856.53241,310
856.650085,314
856.767822,310
856.885559,319
857.003174,327
857.120911,336
857.238586,312
857.356201,319
857.473938,310
857.591614,332
857.709351,324
857.826965,322
857.944641,307
858.062317,313
858.179993,314
858.297668,324
858.415283,304
858.532959,320
858.650574,306
858.768188,319
858.885803,320
859.003479,320
859.121094,313
859.23877,310
859.356384,317
859.473999,325
859.591675,319
859.709229,316
859.826843,324
859.944458,312
860.062012,313
860.179626,322
860.297302,303
860.414856,325
860.532471,309
860.650024,325
860.767639,311
860.885193,319
861.002808,315
861.120361,325
861.237976,314
861.35553,316
861.473022,314
861.590698,316
861.708191,312
861.825745,317
861.943298,312
862.060852,322
862.178406,312
862.295959,322
862.413513,308
862.531006,305
862.64856,307
862.766113,310
862.883667,324
863.00116,320
863.118713,319
863.236206,324
863.353699,312
863.471252,318
863.588745,325
863.706177,312
863.82373,332
863.941162,329
864.058716,317
864.176208,331
864.29364,320
864.411194,318
864.528687,323
864.646118,335
864.763611,322
864.881042,305
864.998535,307
865.116028,332
865.233459,313
865.350891,324
865.468384,308
865.585754,317
865.703308,320
865.820679,331
865.938171,311
866.055542,326
866.173035,326
866.290466,323
866.407837,316
866.52533,310
866.6427,327
866.760071,323
866.877563,318
866.994934,322
867.112305,325
867.229736,322
867.347107,322
867.464539,311
867.58197,316
867.699341,315
867.81665,314
867.934082,317
868.051453,315
868.168823,317
868.286194,314
868.403564,304
868.520935,300
868.638306,315
868.755676,322
868.872986,320
868.990295,304
869.107727,323
869.225037,294
869.342346,333
869.459717,319
869.577026,317
869.694336,317
869.811707,328
869.929016,330
870.046326,313
870.163635,313
870.280945,329
870.398254,296
870.515564,332
870.632812,312
870.750183,313
870.867432,321
870.984741,315
871.102051,322
871.219299,319
871.336609,329
871.453918,332
871.571106,315
871.688416,329
871.805664,327
871.922852,326
872.040222,320
872.157471,320
872.274719,331
872.391968,325
872.509155,323
872.626465,327
872.743652,312
872.860962,325
872.978149,310
873.095337,327
873.212646,319
873.329834,301
873.44696,326
873.564209,324
873.681396,320
873.798645,319
873.915894,317
874.03302,322
874.150208,324
874.267456,329
874.384583,317
874.501831,310
874.618958,316
874.736145,325
874.853333,311
874.970459,321
875.087646,315
875.204834,315
875.32196,318
875.439148,321
875.556274,324
875.673401,319
875.790527,330
875.907715,317
876.024841,329
876.141968,308
876.259094,316
876.376282,331
876.493347,307
876.610474,307
876.7276,314
876.844727,311
876.961853,309
877.078918,325
877.195984,300
877.313171,327
877.430237,325
877.547302,309
877.664368,317
877.781433,318
877.898499,319
878.015625,316
878.13269,315
878.249695,317
878.366821,301
878.483887,313
878.600952,312
878.717957,320
878.834961,320
878.952087,318
879.069092,309
879.186157,313
879.303162,312
879.420227,324
879.537231,313
879.654236,322
879.77124,299
879.888306,317
880.005249,319
880.122314,334
880.239319,318
880.356323,313
880.473328,304
880.590271,318
880.707275,320
880.824341,324
880.941284,308
881.058228,322
881.175232,313
881.292236,313
881.40918,319
881.526123,312
881.643066,319
881.760071,316
881.877014,317
881.993958,328
882.11084,308
882.227783,324
882.344727,311
882.46167,323
882.578613,324
882.695618,325
882.812439,311
882.929382,323
883.046326,312
883.163208,320
883.280151,303
883.397034,324
883.513916,318
883.630798,317
883.747742,330
883.864563,319
883.981506,303
884.098389,315
884.21521,314
884.332153,330
884.448975,321
884.565796,318
884.682678,322
884.7995,322
884.916443,321
885.033264,316
885.150085,313
885.266968,326
885.383789,326
885.500671,321
885.617493,316
885.734314,343
885.851196,314
885.967896,305
886.084717,317
886.201599,324
886.318359,312
886.435181,319
886.552002,323
886.668762,335
886.785645,313
886.902344,321
887.019165,314
887.135925,327
887.252747,313
887.369446,303
887.486267,318
887.603027,328
887.719788,317
887.836548,318
887.953247,309
888.070068,329
888.186829,312
888.303528,318
888.420288,329
888.536987,310
888.653687,315
888.770447,322
888.887146,315
889.003967,322
889.120667,312
889.237305,316
889.354065,327
889.470703,323
889.587463,315
889.704163,318
889.820862,317
889.937561,316
890.054199,318
890.170837,321
890.287598,306
890.404236,321
890.520874,312
890.637634,318
890.754211,319
890.87085,316
890.987549,323
891.104187,318
891.220886,320
891.337463,302
891.454102,312
891.57074,323
891.687378,314
891.804077,317
891.920654,323
892.037231,314
892.15387,316
892.270447,321
892.387085,319
892.503723,312
892.6203,326
892.736877,328
892.853516,315
892.970032,328
893.08667,317
893.203186,325
893.319763,309
893.43634,303
893.552917,310
893.669556,326
893.786011,315
893.902588,311
894.019165,312
894.135681,313
894.252197,310
894.368835,315
894.485291,315
894.601868,331
894.718384,327
894.8349,332
894.951355,316
895.067932,323
895.184448,318
895.300964,327
895.417419,320
895.533936,308
895.650452,326
895.766907,327
895.883423,312
895.999878,326
896.116333,314
896.232849,332
896.349304,323
896.465759,319
896.582214,305
896.698669,329
896.815125,321
896.931641,327
897.048035,303
897.164551,326
897.280884,320
897.397339,322
897.513794,313
897.630249,302
897.746582,316
897.863098,322
897.979431,317
898.095886,313
898.212341,324
898.328674,318
898.445129,314
898.561462,311
898.677795,325
898.794312,332
898.910645,312
899.026978,329
899.143433,300
899.259766,317
899.37616,318
899.492493,319
899.608765,321
899.725159,323
899.841553,312
899.957947,327
900.07428,319
900.190552,301
900.306946,316
900.423157,312
900.53949,307
900.655884,313
900.772156,322
900.888489,339
901.004822,310
901.121033,315
901.237366,311
901.353699,324
901.46991,322
901.586304,318
901.702515,326
901.818787,316
901.93512,329
902.051331,316
902.167603,320
902.283875,320
902.400085,311
902.516418,322
902.632629,307
902.74884,325
902.865112,308
902.981384,318
903.097595,311
903.213867,329
903.330017,307
903.446289,320
903.5625,321
903.67865,308
903.794922,326
903.911072,325
904.027344,320
904.143494,331
904.259705,311
904.375916,330
904.492065,319
904.608215,319
904.724426,317
904.840576,322
904.956726,315
905.072876,307
905.189087,312
905.305176,304
905.421387,315
905.537537,327
905.653687,321
905.769775,325
905.885925,316
906.002014,317
906.118164,315
906.234314,318
906.350403,310
906.466492,317
906.582642,326
906.69873,333
906.814758,315
906.930908,308
907.046936,324
907.163086,333
907.279175,316
907.395264,324
907.511353,315
907.62738,322
907.743408,320
907.859497,317
907.975525,314
908.091553,317
908.207703,319
908.32373,314
908.439758,320
908.555786,309
908.671814,307
908.787842,305
908.90387,316
909.019775,330
909.135864,307
909.251892,327
909.367859,308
909.483826,326
909.599854,307
909.715881,323
909.831848,310
909.947815,323
910.063782,304
910.179749,324
910.295776,317
910.411743,311
910.527649,310
910.643616,308
910.759583,307
910.875488,335
910.991455,318
911.107361,325
911.223267,313
911.339294,338
911.4552,308
911.571106,322
911.687073,329
911.802979,324
911.918823,330
912.034729,310
912.150635,319
912.266602,311
912.382446,314
912.498352,323
912.614197,305
912.730103,315
912.846008,319
792.44574,318
792.56488,361
792.68396,392
792.80304,393
792.92218,349
793.041199,316
793.160339,341
793.279419,334
793.398499,345
793.517578,315
793.636658,329
793.755737,331
793.874817,349
793.993896,359
794.112976,331
794.232056,334
794.351074,335
794.470215,328
794.589233,339
794.708313,315
794.827393,313
794.946411,332
795.065552,338
795.18457,347
795.303589,330
795.422668,329
795.541687,330
795.660767,331
795.779846,340
795.898865,333
796.017883,345
796.136963,330
796.255981,326
796.375061,335
796.49408,326
796.613037,315
796.732117,336
796.851135,336
796.970154,332
797.089233,343
797.208191,332
797.327271,330
797.446228,340
797.565186,331
797.684265,338
797.803223,323
797.922241,320
798.04126,331
798.160278,327
798.279297,337
798.398315,322
798.517273,334
798.636292,329
798.75531,327
798.874268,324
798.993286,332
799.112244,326
799.231323,321
799.350281,341
799.469238,327
799.588257,333
799.707153,336
799.826111,317
799.945129,332
800.064087,321
800.183044,332
800.302063,328
800.421021,330
800.539978,333
800.658936,331
800.777893,325
800.896912,323
801.015747,327
801.134705,336
801.253723,325
801.37262,334
801.491638,317
801.610535,317
801.729492,331
801.84845,330
801.967407,327
802.086243,331
802.205261,321
802.324158,334
802.443115,322
802.562073,325
802.680969,313
802.799927,323
802.918762,321
803.037659,330
803.156677,331
803.275574,326
803.39447,330
803.513428,332
803.632263,327
803.751221,324
803.870117,329
803.989014,336
804.107971,325
804.226746,336
804.345642,322
804.4646,331
804.583496,339
804.702393,332
804.821228,342
804.940125,329
805.059021,341
805.177917,337
805.296814,327
805.415649,334
805.534546,318
805.653442,333
805.772278,329
805.891113,327
806.01001,330
806.128906,335
806.247742,327
806.366577,318
806.485413,331
806.604309,336
806.723145,336
806.84198,317
806.960876,337
807.079712,326
807.198486,332
807.317383,317
807.436218,341
807.554993,338
807.673889,333
807.792725,317
807.91156,313
808.030396,329
808.14917,334
808.268005,339
808.386841,320
808.505676,322
808.624451,341
808.743286,320
808.862122,322
808.980896,323
809.099731,327
809.218506,335
809.337341,327
809.456116,354
809.57489,321
809.693726,329
809.8125,335
809.931274,316
810.050049,340
810.168884,343
810.287659,336
810.406372,346
810.525269,333
810.643982,326
810.762756,332
810.881531,349
811.000305,323
811.11908,331
811.237854,337
811.356567,330
811.475403,323
811.594116,323
811.71283,334
811.831604,321
811.950378,336
812.069153,325
812.187927,325
812.30658,350
812.425415,325
812.544128,345
812.662781,322
812.781616,314
812.900269,331
813.019043,320
813.137756,353
813.256531,335
813.375244,327
813.493896,332
813.612671,338
813.731384,333
813.850037,323
813.96875,330
814.087524,336
814.206238,331
814.324951,334
814.443604,321
814.562256,345
814.68103,336
814.799683,337
814.918335,328
815.037109,320
815.155762,330
815.274475,323
815.393188,334
815.511841,337
815.630554,310
815.749146,332
815.867859,331
815.986572,319
816.105164,336
816.223877,324
816.342529,334
816.461182,333
816.579895,326
816.698486,323
816.817139,330
816.935791,334
817.054504,347
817.173096,321
817.291748,329
817.4104,335
817.529053,317
817.647644,319
817.766235,316
817.884949,338
818.00354,321
818.122192,327
818.240845,336
818.359436,332
818.478088,318
818.59668,328
818.715271,315
818.833923,321
818.952515,309
819.071106,314
819.189758,313
819.30835,320
819.426941,329
819.545532,316
819.664124,312
819.782715,340
819.901306,329
820.019897,314
820.138489,318
820.25708,324
820.375671,322
820.494202,331
820.612732,315
820.731384,319
820.849915,319
820.968506,322
821.087097,313
821.205627,321
821.324158,310
821.442749,317
821.561279,320
821.679871,343
821.798401,326
821.916931,315
822.035461,319
822.154053,307
822.272583,314
822.391174,313
822.509583,326
822.628174,325
822.746704,308
822.865234,323
822.983765,319
823.102295,318
823.220825,315
823.339294,316
823.457825,317
823.576355,327
823.694824,333
823.813354,322
823.931885,317
824.050354,323
824.168884,319
824.287354,319
824.405823,315
824.524353,315
824.642822,316
824.761353,311
824.879822,318
824.998291,320
825.116699,322
825.235291,311
825.353699,324
825.472168,310
825.590637,312
825.709106,328
825.827576,321
825.946045,309
826.064453,305
826.182983,331
826.301392,309
826.4198,329
826.53833,316
826.656738,308
826.775208,319
826.893677,311
827.012024,322
827.130493,318
827.248962,316
827.36731,324
827.485779,316
827.604248,314
827.722595,313
827.841064,324
827.959412,304
828.077942,314
828.196289,325
828.314636,320
828.433105,324
828.551514,311
828.669861,305
828.78833,323
828.906677,330
829.025085,314
829.143433,329
829.261841,320
829.38031,314
829.498657,321
829.617004,310
829.735413,320
829.85376,312
829.972107,307
830.090515,307
830.208862,300
830.327209,316
830.445557,317
830.563904,313
830.682312,320
830.800659,323
830.919006,313
831.037354,306
831.155701,326
831.274048,311
831.392395,321
831.51062,318
831.629028,301
831.747314,317
831.865662,321
831.984009,319
832.102356,327
832.220642,312
832.338928,304
832.457275,319
832.575623,315
832.693909,333
832.812134,324
832.930481,309
833.048828,322
833.167114,318
833.2854,315
833.403687,308
833.521973,317
833.640259,320
833.758545,331
833.876831,299
833.995056,312
834.113281,319
834.231628,317
834.349915,312
834.468201,322
834.586426,315
834.704651,315
834.822998,324
834.941162,322
835.059448,312
835.177673,323
835.295959,332
835.414246,310
835.53241,312
835.650635,317
835.768921,308
835.887146,318
836.005371,310
836.123596,332
836.241821,324
836.360046,324
836.478271,315
836.596497,324
836.714722,318
836.832886,324
836.95105,322
837.069336,319
837.1875,314
837.305725,307
837.423889,319
837.542053,319
837.660339,316
837.778503,314
837.896667,318
838.014832,322
838.132996,325
838.25116,300
838.369385,326
838.487488,332
838.605713,309
838.723877,334
838.84198,324
838.960205,315
839.078308,321
839.196472,325
839.314636,326
839.4328,323
839.550964,327
839.669067,325
839.787231,321
839.905396,307
840.023499,310
840.141602,313
840.259766,317
840.377869,323
840.495972,310
840.614136,329
840.732239,328
840.850342,316
840.968445,322
841.086548,318
841.204651,324
841.322754,301
841.440918,319
841.55896,314
841.677002,324
841.795166,317
841.913208,331
842.031311,320
842.149353,314
842.267456,317
842.385498,322
842.503601,305
842.621643,319
842.739746,331
842.857788,320
842.97583,313
843.093933,313
843.211975,319
843.330017,313
843.44812,321
843.566101,323
843.684204,315
843.802246,319
843.920227,313
844.038269,327
844.156311,314
844.274292,310
844.392395,308
844.510376,320
844.628357,317
844.74646,312
844.864441,323
844.982422,308
845.100403,312
845.218384,312
845.336426,305
845.454468,309
845.572449,309
845.69043,322
845.808411,312
845.926453,325
846.044373,312
846.162354,328
846.280396,309
846.398315,313
846.516296,306
846.634216,323
846.752197,313
846.870178,312
846.988098,314
847.106079,320
847.22406,311
847.34198,321
847.4599,310
847.577881,315
847.695801,314
847.813782,316
847.931641,324
848.049561,300
848.167603,316
848.285461,311
848.403381,319
848.521362,314
848.639221,314
848.75708,323
848.875,320
848.99292,313
849.110901,327
849.22876,317
849.34668,321
849.464539,318
849.582458,320
849.700317,306
849.818176,306
849.936096,318
850.053955,304
850.171875,310
850.289673,326
850.407593,315
850.525452,305
850.643311,323
850.761169,311
850.878967,306
850.996887,325
851.114746,307
851.232544,304
851.350403,316
851.468262,307
851.58606,321
851.703979,308
851.821777,323
851.939636,321
852.057434,321
852.175232,316
852.293091,317
852.410889,309
852.528687,313
852.646545,312
852.764343,324
852.88208,308
852.999939,312
853.117676,302
853.235535,331
853.353271,315
853.471069,316
853.588928,304
853.706604,315
853.824402,321
853.9422,334
854.059998,317
854.177734,318
854.295532,315
854.413269,312
854.531006,319
854.648804,327
854.766541,316
854.884277,332
855.002014,316
855.119751,324
855.237549,322
855.355225,315
855.473022,312
855.590698,324
855.708435,319
855.826172,327
855.943848,304
856.061646,311
856.179321,314
856.296997,314
856.414795,316
856.53241,319
856.650085,306
856.767822,325
856.885559,320
857.003174,341
857.120911,327
857.238586,327
857.356201,316
857.473938,320
857.591614,315
857.709351,324
857.826965,310
857.944641,324
858.062317,320
858.179993,317
858.297668,314
858.415283,325
858.532959,320
858.650574,329
858.768188,320
858.885803,318
859.003479,311
859.121094,325
859.23877,311
859.356384,322
859.473999,320
859.591675,313
859.709229,318
859.826843,325
859.944458,300
860.062012,340
860.179626,317
860.297302,312
860.414856,324
860.532471,302
860.650024,330
860.767639,321
860.885193,318
861.002808,318
861.120361,316
861.237976,319
861.35553,302
861.473022,313
861.590698,313
861.708191,317
861.825745,319
861.943298,318
862.060852,315
862.178406,323
862.295959,318
862.413513,320
862.531006,327
862.64856,314
862.766113,312
862.883667,310
863.00116,318
863.118713,314
863.236206,317
863.353699,325
863.471252,314
863.588745,318
863.706177,307
863.82373,315
863.941162,313
864.058716,322
864.176208,332
864.29364,318
864.411194,308
864.528687,321
864.646118,326
864.763611,300
864.881042,328
864.998535,315
865.116028,312
865.233459,330
865.350891,309
865.468384,313
865.585754,312
865.703308,315
865.820679,312
865.938171,307
866.055542,322
866.173035,319
866.290466,321
866.407837,321
866.52533,323
866.6427,319
866.760071,309
866.877563,315
866.994934,314
867.112305,321
867.229736,322
867.347107,323
867.464539,331
867.58197,321
867.699341,326
867.81665,317
867.934082,311
868.051453,313
868.168823,310
868.286194,316
868.403564,323
868.520935,319
868.638306,314
868.755676,331
868.872986,306
868.990295,325
869.107727,329
869.225037,324
869.342346,318
869.459717,318
869.577026,309
869.694336,330
869.811707,316
869.929016,320
870.046326,320
870.163635,319
870.280945,326
870.398254,319
870.515564,313
870.632812,312
870.750183,312
870.867432,315
870.984741,313
871.102051,332
871.219299,319
871.336609,321
871.453918,318
871.571106,315
871.688416,321
871.805664,328
871.922852,315
872.040222,321
872.157471,311
872.274719,310
872.391968,309
872.509155,317
872.626465,317
872.743652,322
872.860962,311
872.978149,333
873.095337,312
873.212646,330
873.329834,318
873.44696,316
873.564209,302
873.681396,316
873.798645,322
873.915894,315
874.03302,309
874.150208,315
874.267456,320
874.384583,315
874.501831,318
874.618958,327
874.736145,323
874.853333,323
874.970459,321
875.087646,322
875.204834,311
875.32196,323
875.439148,324
875.556274,327
875.673401,315
875.790527,325
875.907715,330
876.024841,317
876.141968,316
876.259094,330
876.376282,305
876.493347,324
876.610474,323
876.7276,307
876.844727,317
876.961853,329
877.078918,311
877.195984,317
877.313171,319
877.430237,319
877.547302,323
877.664368,323
877.781433,308
877.898499,335
878.015625,329
878.13269,315
878.249695,323
878.366821,321
878.483887,324
878.600952,318
878.717957,319
878.834961,323
878.952087,311
879.069092,322
879.186157,311
879.303162,314
879.420227,306
879.537231,319
879.654236,320
879.77124,328
879.888306,310
880.005249,320
880.122314,311
880.239319,316
880.356323,321
880.473328,316
880.590271,312
880.707275,322
880.824341,317
880.941284,314
881.058228,312
881.175232,320
881.292236,321
881.40918,320
881.526123,319
881.643066,324
881.760071,313
881.877014,325
881.993958,301
882.11084,315
882.227783,311
882.344727,311
882.46167,312
882.578613,315
882.695618,312
882.812439,307
882.929382,323
883.046326,317
883.163208,325
883.280151,324
883.397034,326
883.513916,323
883.630798,321
883.747742,316
883.864563,313
883.981506,316
884.098389,304
884.21521,320
884.332153,307
884.448975,323
884.565796,323
884.682678,319
884.7995,318
884.916443,315
885.033264,316
885.150085,316
885.266968,311
885.383789,317
885.500671,317
885.617493,321
885.734314,308
885.851196,329
885.967896,310
886.084717,306
886.201599,323
886.318359,324
886.435181,320
886.552002,320
886.668762,316
886.785645,315
886.902344,317
887.019165,317
887.135925,321
887.252747,333
887.369446,315
887.486267,319
887.603027,301
887.719788,302
887.836548,330
887.953247,317
888.070068,317
888.186829,326
888.303528,316
888.420288,314
888.536987,334
888.653687,319
888.770447,314
888.887146,315
889.003967,315
889.120667,332
889.237305,298
889.354065,318
889.470703,321
889.587463,321
889.704163,327
889.820862,326
889.937561,317
890.054199,321
890.170837,304
890.287598,314
890.404236,321
890.520874,324
890.637634,315
890.754211,328
890.87085,319
890.987549,319
891.104187,303
891.220886,321
891.337463,301
891.454102,320
891.57074,324
891.687378,311
891.804077,317
891.920654,319
892.037231,313
892.15387,316
892.270447,306
892.387085,299
892.503723,321
892.6203,315
892.736877,312
892.853516,319
892.970032,326
893.08667,335
893.203186,319
893.319763,323
893.43634,313
893.552917,308
893.669556,301
893.786011,318
893.902588,315
894.019165,321
894.135681,325
894.252197,299
894.368835,313
894.485291,325
894.601868,309
894.718384,315
894.8349,311
894.951355,324
895.067932,313
895.184448,300
895.300964,317
895.417419,313
895.533936,319
895.650452,309
895.766907,317
895.883423,324
895.999878,321
896.116333,321
896.232849,320
896.349304,313
896.465759,304
896.582214,331
896.698669,305
896.815125,314
896.931641,309
897.048035,324
897.164551,313
897.280884,327
897.397339,324
897.513794,324
897.630249,312
897.746582,316
897.863098,322
897.979431,321
898.095886,326
898.212341,325
898.328674,326
898.445129,315
898.561462,308
898.677795,326
898.794312,314
898.910645,322
899.026978,318
899.143433,294
899.259766,309
899.37616,315
899.492493,334
899.608765,309
899.725159,310
899.841553,320
899.957947,307
900.07428,313
900.190552,319
900.306946,314
900.423157,313
900.53949,314
900.655884,324
900.772156,323
900.888489,329
901.004822,327
901.121033,324
901.237366,333
901.353699,318
901.46991,330
901.586304,324
901.702515,314
901.818787,332
901.93512,311
902.051331,315
902.167603,320
902.283875,316
902.400085,310
902.516418,334
902.632629,313
902.74884,323
902.865112,308
902.981384,327
903.097595,313
903.213867,308
903.330017,320
903.446289,313
903.5625,322
903.67865,310
903.794922,325
903.911072,326
904.027344,324
904.143494,326
904.259705,324
904.375916,317
904.492065,326
904.608215,305
904.724426,319
904.840576,318
904.956726,318
905.072876,327
905.189087,329
905.305176,309
905.421387,326
905.537537,326
905.653687,329
905.769775,319
905.885925,330
906.002014,316
906.118164,325
906.234314,320
906.350403,307
906.466492,320
906.582642,325
906.69873,314
906.814758,322
906.930908,321
907.046936,312
907.163086,311
907.279175,310
907.395264,324
907.511353,335
907.62738,326
907.743408,332
907.859497,305
907.975525,316
908.091553,314
908.207703,320
908.32373,323
908.439758,317
908.555786,312
908.671814,313
908.787842,322
908.90387,317
909.019775,319
909.135864,330
909.251892,321
909.367859,328
909.483826,307
909.599854,315
909.715881,319
909.831848,317
909.947815,287
910.063782,323
910.179749,314
910.295776,317
910.411743,319
910.527649,324
910.643616,311
910.759583,318
910.875488,324
910.991455,315
911.107361,322
911.223267,322
911.339294,315
911.4552,330
911.571106,317
911.687073,328
911.802979,305
911.918823,325
912.034729,312
912.150635,309
912.266602,323
912.382446,323
912.498352,308
912.614197,332
912.730103,315
912.846008,327
792.44574,321
792.56488,351
792.68396,387
792.80304,375
792.92218,346
793.041199,319
793.160339,326
793.279419,343
793.398499,324
793.517578,309
793.636658,330
793.755737,340
793.874817,359
793.993896,347
794.112976,332
794.232056,324
794.351074,325
794.470215,348
794.589233,336
794.708313,335
794.827393,317
794.946411,321
795.065552,343
795.18457,335
795.303589,332
795.422668,324
795.541687,324
795.660767,333
795.779846,327
795.898865,346
796.017883,322
796.136963,319
796.255981,323
796.375061,328
796.49408,324
796.613037,335
796.732117,334
796.851135,330
796.970154,322
797.089233,322
797.208191,333
797.327271,338
797.446228,327
797.565186,329
797.684265,325
797.803223,324
797.922241,331
798.04126,324
798.160278,338
798.279297,345
798.398315,342
798.517273,343
798.636292,341
798.75531,334
798.874268,337
798.993286,332
799.112244,330
799.231323,330
799.350281,330
799.469238,332
799.588257,332
799.707153,336
799.826111,327
799.945129,327
800.064087,322
800.183044,329
800.302063,327
800.421021,328
800.539978,311
800.658936,326
800.777893,329
800.896912,316
801.015747,332
801.134705,327
801.253723,321
801.37262,325
801.491638,314
801.610535,321
801.729492,326
801.84845,333
801.967407,328
802.086243,343
802.205261,330
802.324158,335
802.443115,321
802.562073,339
802.680969,335
802.799927,330
802.918762,322
803.037659,329
803.156677,329
803.275574,325
803.39447,339
803.513428,321
803.632263,335
803.751221,341
803.870117,331
803.989014,322
804.107971,330
804.226746,330
804.345642,334
804.4646,335
804.583496,339
804.702393,323
804.821228,329
804.940125,326
805.059021,321
805.177917,332
805.296814,325
805.415649,329
805.534546,340
805.653442,332
805.772278,340
805.891113,319
806.01001,332
806.128906,337
806.247742,331
806.366577,347
806.485413,336
806.604309,332
806.723145,324
806.84198,328
806.960876,333
807.079712,332
807.198486,335
807.317383,327
807.436218,335
807.554993,322
807.673889,323
807.792725,309
807.91156,333
808.030396,323
808.14917,319
808.268005,336
808.386841,328
808.505676,331
808.624451,335
808.743286,345
808.862122,332
808.980896,347
809.099731,325
809.218506,320
809.337341,338
809.456116,323
809.57489,332
809.693726,332
809.8125,332
809.931274,333
810.050049,328
810.168884,333
810.287659,319
810.406372,334
810.525269,327
810.643982,338
810.762756,332
810.881531,338
811.000305,324
811.11908,340
811.237854,330
811.356567,340
811.475403,325
811.594116,335
811.71283,335
811.831604,329
811.950378,324
812.069153,333
812.187927,330
812.30658,328
812.425415,340
812.544128,333
812.662781,337
812.781616,331
812.900269,336
813.019043,333
813.137756,312
813.256531,330
813.375244,338
813.493896,333
813.612671,321
813.731384,327
813.850037,323
813.96875,326
814.087524,325
814.206238,324
814.324951,338
814.443604,327
814.562256,339
814.68103,336
814.799683,325
814.918335,328
815.037109,333
815.155762,342
815.274475,340
815.393188,324
815.511841,332
815.630554,335
815.749146,350
815.867859,320
815.986572,336
816.105164,336
816.223877,328
816.342529,341
816.461182,335
816.579895,316
816.698486,325
816.817139,331
816.935791,334
817.054504,324
817.173096,327
817.291748,327
817.4104,325
817.529053,329
817.647644,336
817.766235,320
817.884949,342
818.00354,317
818.122192,331
818.240845,323
818.359436,318
818.478088,327
818.59668,323
818.715271,317
818.833923,317
818.952515,327
819.071106,312
819.189758,324
819.30835,323
819.426941,316
819.545532,303
819.664124,339
819.782715,314
819.901306,329
820.019897,322
820.138489,320
820.25708,304
820.375671,311
820.494202,328
820.612732,323
820.731384,319
820.849915,322
820.968506,324
821.087097,320
821.205627,310
821.324158,320
821.442749,329
821.561279,320
821.679871,314
821.798401,316
821.916931,320
822.035461,322
822.154053,322
822.272583,317
822.391174,325
822.509583,317
822.628174,322
822.746704,322
822.865234,319
822.983765,324
823.102295,315
823.220825,312
823.339294,322
823.457825,335
823.576355,318
823.694824,325
823.813354,322
823.931885,320
824.050354,328
824.168884,329
824.287354,315
824.405823,332
824.524353,325
824.642822,323
824.761353,320
824.879822,312
824.998291,317
825.116699,312
825.235291,320
825.353699,327
825.472168,324
825.590637,328
825.709106,308
825.827576,337
825.946045,324
826.064453,310
826.182983,312
826.301392,317
826.4198,316
826.53833,320
826.656738,318
826.775208,323
826.893677,322
827.012024,322
827.130493,316
827.248962,321
827.36731,317
827.485779,328
827.604248,328
827.722595,322
827.841064,321
827.959412,314
828.077942,314
828.196289,314
828.314636,319
828.433105,316
828.551514,325
828.669861,312
828.78833,326
828.906677,323
829.025085,315
829.143433,329
829.261841,318
829.38031,319
829.498657,324
829.617004,322
829.735413,315
829.85376,325
829.972107,321
830.090515,318
830.208862,325
830.327209,314
830.445557,311
830.563904,308
830.682312,317
830.800659,302
830.919006,315
831.037354,315
831.155701,316
831.274048,325
831.392395,315
831.51062,322
831.629028,316
831.747314,319
831.865662,302
831.984009,311
832.102356,315
832.220642,306
832.338928,319
832.457275,319
832.575623,316
832.693909,315
832.812134,310
832.930481,312
833.048828,310
833.167114,322
833.2854,324
833.403687,314
833.521973,311
833.640259,304
833.758545,320
833.876831,302
833.995056,307
834.113281,312
834.231628,319
834.349915,321
834.468201,311
834.586426,312
834.704651,318
834.822998,312
834.941162,314
835.059448,312
835.177673,319
835.295959,314
835.414246,325
835.53241,313
835.650635,314
835.768921,299
835.887146,312
836.005371,314
836.123596,318
836.241821,320
836.360046,317
836.478271,341
836.596497,316
836.714722,324
836.832886,330
836.95105,323
837.069336,328
837.1875,323
837.305725,319
837.423889,313
837.542053,321
837.660339,324
837.778503,310
837.896667,301
838.014832,327
838.132996,326
838.25116,325
838.369385,315
838.487488,315
838.605713,326
838.723877,320
838.84198,328
838.960205,314
839.078308,321
839.196472,329
839.314636,317
839.4328,318
839.550964,313
839.669067,319
839.787231,318
839.905396,315
840.023499,311
840.141602,312
840.259766,321
840.377869,337
840.495972,316
840.614136,321
840.732239,313
840.850342,308
840.968445,321
841.086548,317
841.204651,320
841.322754,318
841.440918,329
841.55896,316
841.677002,328
841.795166,319
841.913208,316
842.031311,319
842.149353,313
842.267456,305
842.385498,313
842.503601,327
842.621643,322
842.739746,321
842.857788,329
842.97583,305
843.093933,317
843.211975,319
843.330017,313
843.44812,319
843.566101,326
843.684204,307
843.802246,318
843.920227,318
844.038269,314
844.156311,321
844.274292,314
844.392395,313
844.510376,331
844.628357,303
844.74646,310
844.864441,319
844.982422,305
845.100403,328
845.218384,306
845.336426,316
845.454468,321
845.572449,316
845.69043,306
845.808411,317
845.926453,311
846.044373,324
846.162354,324
846.280396,307
846.398315,314
846.516296,316
846.634216,316
846.752197,315
846.870178,322
846.988098,318
847.106079,320
847.22406,326
847.34198,316
847.4599,310
847.577881,311
847.695801,309
847.813782,330
847.931641,310
848.049561,320
848.167603,320
848.285461,320
848.403381,314
848.521362,322
848.639221,332
848.75708,323
848.875,315
848.99292,321
849.110901,307
849.22876,312
849.34668,323
849.464539,315
849.582458,315
849.700317,313
849.818176,322
849.936096,315
850.053955,319
850.171875,325
850.289673,312
850.407593,338
850.525452,308
850.643311,323
850.761169,309
850.878967,327
850.996887,325
851.114746,312
851.232544,305
851.350403,316
851.468262,317
851.58606,316
851.703979,307
851.821777,321
851.939636,305
852.057434,321
852.175232,324
852.293091,324
852.410889,327
852.528687,323
852.646545,309
852.764343,332
852.88208,331
852.999939,318
853.117676,315
853.235535,315
853.353271,321
853.471069,316
853.588928,317
853.706604,323
853.824402,311
853.9422,313
854.059998,314
854.177734,313
854.295532,308
854.413269,327
854.531006,320
854.648804,321
854.766541,328
854.884277,320
855.002014,310
855.119751,319
855.237549,310
855.355225,309
855.473022,316
855.590698,309
855.708435,323
855.826172,330
855.943848,316
856.061646,321
856.179321,322
856.296997,336
856.414795,299
856.53241,321
856.650085,315
856.767822,325
856.885559,310
857.003174,321
857.120911,315
857.238586,319
857.356201,310
857.473938,325
857.591614,310
857.709351,314
857.826965,324
857.944641,320
858.062317,321
858.179993,312
858.297668,323
858.415283,317
858.532959,295
858.650574,308
858.768188,323
858.885803,317
859.003479,316
859.121094,311
859.23877,310
859.356384,325
859.473999,321
859.591675,309
859.709229,317
859.826843,318
859.944458,313
860.062012,313
860.179626,320
860.297302,313
860.414856,305
860.532471,310
860.650024,325
860.767639,301
860.885193,328
861.002808,300
861.120361,310
861.237976,318
861.35553,318
861.473022,304
861.590698,312
861.708191,322
861.825745,319
861.943298,308
862.060852,318
862.178406,328
862.295959,314
862.413513,335
862.531006,308
862.64856,339
862.766113,316
862.883667,315
863.00116,311
863.118713,315
863.236206,320
863.353699,324
863.471252,323
863.588745,317
863.706177,322
863.82373,325
863.941162,322
864.058716,326
864.176208,311
864.29364,320
864.411194,321
864.528687,319
864.646118,308
864.763611,313
864.881042,317
864.998535,316
865.116028,311
865.233459,311
865.350891,308
865.468384,327
865.585754,327
865.703308,319
865.820679,313
865.938171,324
866.055542,312
866.173035,325
866.290466,321
866.407837,308
866.52533,327
866.6427,307
866.760071,302
866.877563,316
866.994934,322
867.112305,314
867.229736,301
867.347107,305
867.464539,322
867.58197,318
867.699341,311
867.81665,319
867.934082,320
868.051453,313
868.168823,319
868.286194,307
868.403564,315
868.520935,318
868.638306,309
868.755676,314
868.872986,325
868.990295,332
869.107727,320
869.225037,310
869.342346,310
869.459717,331
869.577026,331
869.694336,315
869.811707,309
869.929016,307
870.046326,323
870.163635,308
870.280945,307
870.398254,316
870.515564,311
870.632812,333
870.750183,302
870.867432,307
870.984741,315
871.102051,312
871.219299,311
871.336609,313
871.453918,326
871.571106,322
871.688416,298
871.805664,325
871.922852,310
872.040222,325
872.157471,314
872.274719,319
872.391968,314
872.509155,325
872.626465,313
872.743652,316
872.860962,307
872.978149,323
873.095337,316
873.212646,328
873.329834,306
873.44696,331
873.564209,309
873.681396,330
873.798645,317
873.915894,310
874.03302,312
874.150208,315
874.267456,324
874.384583,313
874.501831,326
874.618958,317
874.736145,317
874.853333,325
874.970459,325
875.087646,325
875.204834,303
875.32196,331
875.439148,327
875.556274,320
875.673401,328
875.790527,312
875.907715,310
876.024841,311
876.141968,309
876.259094,316
876.376282,325
876.493347,330
876.610474,329
876.7276,315
876.844727,319
876.961853,325
877.078918,326
877.195984,321
877.313171,309
877.430237,308
877.547302,315
877.664368,329
877.781433,315
877.898499,336
878.015625,316
878.13269,313
878.249695,318
878.366821,326
878.483887,322
878.600952,299
878.717957,304
878.834961,337
878.952087,319
879.069092,305
879.186157,312
879.303162,318
879.420227,322
879.537231,304
879.654236,331
879.77124,325
879.888306,307
880.005249,325
880.122314,306
880.239319,320
880.356323,312
880.473328,322
880.590271,315
880.707275,337
880.824341,319
880.941284,320
881.058228,330
881.175232,321
881.292236,323
881.40918,299
881.526123,318
881.643066,311
881.760071,323
881.877014,313
881.993958,325
882.11084,320
882.227783,311
882.344727,327
882.46167,314
882.578613,315
882.695618,317
882.812439,312
882.929382,300
883.046326,338
883.163208,317
883.280151,324
883.397034,315
883.513916,331
883.630798,318
883.747742,320
883.864563,320
883.981506,318
884.098389,324
884.21521,329
884.332153,295
884.448975,316
884.565796,333
884.682678,318
884.7995,325
884.916443,313
885.033264,332
885.150085,329
885.266968,324
885.383789,334
885.500671,309
885.617493,329
885.734314,313
885.851196,330
885.967896,317
886.084717,323
886.201599,322
886.318359,315
886.435181,318
886.552002,323
886.668762,319
886.785645,325
886.902344,312
887.019165,327
887.135925,325
887.252747,319
887.369446,327
887.486267,314
887.603027,324
887.719788,328
887.836548,313
887.953247,315
888.070068,308
888.186829,321
888.303528,324
888.420288,324
888.536987,321
888.653687,316
888.770447,325
888.887146,308
889.003967,319
889.120667,321
889.237305,311
889.354065,322
889.470703,313
889.587463,321
889.704163,315
889.820862,327
889.937561,304
890.054199,328
890.170837,302
890.287598,321
890.404236,298
890.520874,322
890.637634,321
890.754211,313
890.87085,317
890.987549,324
891.104187,321
891.220886,316
891.337463,318
891.454102,320
891.57074,316
891.687378,325
891.804077,317
891.920654,328
892.037231,318
892.15387,331
892.270447,323
892.387085,317
892.503723,321
892.6203,316
892.736877,325
892.853516,327
892.970032,316
893.08667,326
893.203186,305
893.319763,315
893.43634,319
893.552917,311
893.669556,311
893.786011,305
893.902588,319
894.019165,319
894.135681,317
894.252197,315
894.368835,320
894.485291,334
894.601868,316
894.718384,329
894.8349,317
894.951355,325
895.067932,310
895.184448,331
895.300964,310
895.417419,321
895.533936,311
895.650452,311
895.766907,314
895.883423,315
895.999878,316
896.116333,323
896.232849,323
896.349304,320
896.465759,308
896.582214,310
896.698669,321
896.815125,320
896.931641,317
897.048035,327
897.164551,316
897.280884,315
897.397339,305
897.513794,340
897.630249,322
897.746582,309
897.863098,315
897.979431,329
898.095886,309
898.212341,325
898.328674,304
898.445129,323
898.561462,328
898.677795,316
898.794312,324
898.910645,324
899.026978,316
899.143433,320
899.259766,311
899.37616,318
899.492493,302
899.608765,315
899.725159,323
899.841553,321
899.957947,319
900.07428,307
900.190552,310
900.306946,315
900.423157,314
900.53949,327
900.655884,302
900.772156,307
900.888489,327
901.004822,316
901.121033,320
901.237366,320
901.353699,320
901.46991,311
901.586304,315
901.702515,310
901.818787,314
901.93512,313
902.051331,319
902.167603,323
902.283875,319
902.400085,327
902.516418,328
902.632629,315
902.74884,312
902.865112,323
902.981384,313
903.097595,314
903.213867,315
903.330017,325
903.446289,321
903.5625,310
903.67865,325
903.794922,316
903.911072,324
904.027344,320
904.143494,308
904.259705,321
904.375916,321
904.492065,325
904.608215,306
904.724426,331
904.840576,313
904.956726,319
905.072876,322
905.189087,321
905.305176,336
905.421387,327
905.537537,310
905.653687,311
905.769775,315
905.885925,320
906.002014,326
906.118164,322
906.234314,318
906.350403,323
906.466492,318
906.582642,331
906.69873,304
906.814758,316
906.930908,318
907.046936,314
907.163086,316
907.279175,312
907.395264,312
907.511353,320
907.62738,310
907.743408,317
907.859497,318
907.975525,313
908.091553,326
908.207703,317
908.32373,318
908.439758,315
908.555786,314
908.671814,312
908.787842,316
908.90387,318
909.019775,314
909.135864,329
909.251892,319
909.367859,304
909.483826,318
909.599854,311
909.715881,318
909.831848,330
909.947815,315
910.063782,338
910.179749,319
910.295776,318
910.411743,314
910.527649,332
910.643616,312
910.759583,323
910.875488,320
910.991455,315
911.107361,316
911.223267,332
911.339294,312
911.4552,322
911.571106,322
911.687073,307
911.802979,318
911.918823,336
912.034729,322
912.150635,312
912.266602,316
912.382446,319
912.498352,323
912.614197,325
912.730103,311
912.846008,319
