792.44574,298
792.56488,341
792.68396,395
792.80304,368
792.92218,332
793.041199,308
793.160339,320
793.279419,315
793.398499,325
793.517578,312
793.636658,307
793.755737,325
793.874817,326
793.993896,333
794.112976,325
794.232056,322
794.351074,310
794.470215,325
794.589233,322
794.708313,335
794.827393,321
794.946411,322
795.065552,319
795.18457,327
795.303589,331
795.422668,320
795.541687,312
795.660767,323
795.779846,322
795.898865,317
796.017883,326
796.136963,328
796.255981,312
796.375061,327
796.49408,327
796.613037,317
796.732117,336
796.851135,305
796.970154,318
797.089233,320
797.208191,316
797.327271,306
797.446228,323
797.565186,322
797.684265,338
797.803223,318
797.922241,314
798.04126,306
798.160278,331
798.279297,319
798.398315,321
798.517273,319
798.636292,329
798.75531,322
798.874268,325
798.993286,313
799.112244,323
799.231323,319
799.350281,324
799.469238,324
799.588257,310
799.707153,331
799.826111,318
799.945129,319
800.064087,313
800.183044,321
800.302063,320
800.421021,331
800.539978,328
800.658936,334
800.777893,320
800.896912,319
801.015747,329
801.134705,325
801.253723,315
801.37262,308
801.491638,312
801.610535,306
801.729492,323
801.84845,322
801.967407,315
802.086243,322
802.205261,321
802.324158,315
802.443115,332
802.562073,311
802.680969,326
802.799927,323
802.918762,327
803.037659,313
803.156677,316
803.275574,321
803.39447,326
803.513428,328
803.632263,335
803.751221,302
803.870117,328
803.989014,316
804.107971,318
804.226746,304
804.345642,322
804.4646,305
804.583496,341
804.702393,316
804.821228,306
804.940125,308
805.059021,304
805.177917,320
805.296814,325
805.415649,319
805.534546,317
805.653442,312
805.772278,317
805.891113,313
806.01001,328
806.128906,324
806.247742,311
806.366577,316
806.485413,327
806.604309,323
806.723145,305
806.84198,328
806.960876,326
807.079712,329
807.198486,323
807.317383,323
807.436218,322
807.554993,310
807.673889,323
807.792725,317
807.91156,316
808.030396,308
808.14917,312
808.268005,321
808.386841,324
808.505676,331
808.624451,325
808.743286,317
808.862122,326
808.980896,322
809.099731,308
809.218506,316
809.337341,316
809.456116,337
809.57489,309
809.693726,331
809.8125,316
809.931274,309
810.050049,322
810.168884,310
810.287659,328
810.406372,317
810.525269,320
810.643982,311
810.762756,320
810.881531,306
811.000305,317
811.11908,316
811.237854,310
811.356567,317
811.475403,312
811.594116,313
811.71283,308
811.831604,319
811.950378,330
812.069153,307
812.187927,317
812.30658,315
812.425415,311
812.544128,325
812.662781,306
812.781616,329
812.900269,310
813.019043,313
813.137756,324
813.256531,314
813.375244,329
813.493896,321
813.612671,320
813.731384,313
813.850037,327
813.96875,326
814.087524,312
814.206238,311
814.324951,308
814.443604,331
814.562256,304
814.68103,301
814.799683,318
814.918335,323
815.037109,306
815.155762,312
815.274475,307
815.393188,324
815.511841,324
815.630554,318
815.749146,315
815.867859,317
815.986572,326
816.105164,310
816.223877,323
816.342529,322
816.461182,312
816.579895,322
816.698486,324
816.817139,316
816.935791,320
817.054504,306
817.173096,328
817.291748,325
817.4104,316
817.529053,322
817.647644,328
817.766235,311
817.884949,325
818.00354,315
818.122192,324
818.240845,320
818.359436,312
818.478088,318
818.59668,331
818.715271,323
818.833923,316
818.952515,326
819.071106,317
819.189758,309
819.30835,335
819.426941,322
819.545532,319
819.664124,326
819.782715,328
819.901306,310
820.019897,317
820.138489,324
820.25708,309
820.375671,316
820.494202,329
820.612732,306
820.731384,319
820.849915,319
820.968506,317
821.087097,324
821.205627,317
821.324158,316
821.442749,319
821.561279,312
821.679871,328
821.798401,314
821.916931,321
822.035461,318
822.154053,318
822.272583,307
822.391174,318
822.509583,310
822.628174,310
822.746704,306
822.865234,323
822.983765,311
823.102295,318
823.220825,318
823.339294,303
823.457825,317
823.576355,316
823.694824,314
823.813354,322
823.931885,323
824.050354,315
824.168884,312
824.287354,325
824.405823,323
824.524353,314
824.642822,309
824.761353,317
824.879822,316
824.998291,315
825.116699,316
825.235291,319
825.353699,316
825.472168,316
825.590637,308
825.709106,317
825.827576,315
825.946045,314
826.064453,325
826.182983,313
826.301392,329
826.4198,325
826.53833,316
826.656738,330
826.775208,315
826.893677,300
827.012024,320
827.130493,320
827.248962,318
827.36731,303
827.485779,309
827.604248,316
827.722595,311
827.841064,317
827.959412,305
828.077942,322
828.196289,314
828.314636,310
828.433105,315
828.551514,317
828.669861,307
828.78833,327
828.906677,313
829.025085,312
829.143433,328
829.261841,320
829.38031,322
829.498657,318
829.617004,315
829.735413,328
829.85376,311
829.972107,313
830.090515,313
830.208862,322
830.327209,322
830.445557,315
830.563904,310
830.682312,321
830.800659,318
830.919006,322
831.037354,318
831.155701,326
831.274048,306
831.392395,322
831.51062,309
831.629028,316
831.747314,313
831.865662,306
831.984009,307
832.102356,325
832.220642,322
832.338928,327
832.457275,314
832.575623,326
832.693909,313
832.812134,314
832.930481,320
833.048828,310
833.167114,316
833.2854,316
833.403687,316
833.521973,321
833.640259,307
833.758545,316
833.876831,309
833.995056,304
834.113281,304
834.231628,312
834.349915,314
834.468201,322
834.586426,305
834.704651,315
834.822998,309
834.941162,315
835.059448,318
835.177673,307
835.295959,316
835.414246,324
835.53241,316
835.650635,320
835.768921,306
835.887146,322
836.005371,304
836.123596,326
836.241821,315
836.360046,297
836.478271,311
836.596497,309
836.714722,315
836.832886,311
836.95105,311
837.069336,315
837.1875,307
837.305725,313
837.423889,306
837.542053,327
837.660339,301
837.778503,314
837.896667,299
838.014832,320
838.132996,299
838.25116,305
838.369385,315
838.487488,313
838.605713,318
838.723877,310
838.84198,327
838.960205,316
839.078308,313
839.196472,304
839.314636,310
839.4328,326
839.550964,323
839.669067,309
839.787231,312
839.905396,323
840.023499,329
840.141602,323
840.259766,315
840.377869,316
840.495972,308
840.614136,322
840.732239,306
840.850342,327
840.968445,310
841.086548,304
841.204651,314
841.322754,319
841.440918,321
841.55896,332
841.677002,302
841.795166,321
841.913208,326
842.031311,326
842.149353,316
842.267456,301
842.385498,315
842.503601,324
842.621643,320
842.739746,315
842.857788,316
842.97583,317
843.093933,310
843.211975,320
843.330017,321
843.44812,317
843.566101,313
843.684204,314
843.802246,312
843.920227,341
844.038269,316
844.156311,323
844.274292,308
844.392395,321
844.510376,308
844.628357,317
844.74646,317
844.864441,308
844.982422,326
845.100403,328
845.218384,319
845.336426,317
845.454468,315
845.572449,301
845.69043,298
845.808411,310
845.926453,311
846.044373,308
846.162354,312
846.280396,317
846.398315,319
846.516296,318
846.634216,306
846.752197,326
846.870178,317
846.988098,314
847.106079,316
847.22406,311
847.34198,307
847.4599,319
847.577881,311
847.695801,308
847.813782,307
847.931641,335
848.049561,316
848.167603,318
848.285461,314
848.403381,319
848.521362,332
848.639221,311
848.75708,313
848.875,324
848.99292,305
849.110901,321
849.22876,320
849.34668,312
849.464539,319
849.582458,322
849.700317,312
849.818176,308
849.936096,327
850.053955,334
850.171875,301
850.289673,319
850.407593,319
850.525452,303
850.643311,321
850.761169,313
850.878967,335
850.996887,311
851.114746,318
851.232544,322
851.350403,311
851.468262,314
851.58606,312
851.703979,303
851.821777,312
851.939636,326
852.057434,315
852.175232,320
852.293091,316
852.410889,316
852.528687,315
852.646545,318
852.764343,312
852.88208,317
852.999939,313
853.117676,318
853.235535,311
853.353271,305
853.471069,297
853.588928,308
853.706604,312
853.824402,316
853.9422,325
854.059998,308
854.177734,320
854.295532,314
854.413269,321
854.531006,311
854.648804,313
854.766541,310
854.884277,306
855.002014,329
855.119751,310
855.237549,316
855.355225,313
855.473022,320
855.590698,311
855.708435,321
855.826172,306
855.943848,321
856.061646,301
856.179321,318
856.296997,313
856.414795,316
856.53241,325
856.650085,298
856.767822,319
856.885559,308
857.003174,316
857.120911,305
857.238586,321
857.356201,327
857.473938,313
857.591614,314
857.709351,320
857.826965,335
857.944641,315
858.062317,324
858.179993,323
858.297668,312
858.415283,304
858.532959,324
858.650574,325
858.768188,308
858.885803,314
859.003479,316
859.121094,306
859.23877,318
859.356384,311
859.473999,307
859.591675,318
859.709229,329
859.826843,314
859.944458,313
860.062012,322
860.179626,310
860.297302,331
860.414856,314
860.532471,307
860.650024,306
860.767639,314
860.885193,317
861.002808,322
861.120361,334
861.237976,318
861.35553,326
861.473022,329
861.590698,307
861.708191,304
861.825745,326
861.943298,308
862.060852,308
862.178406,311
862.295959,318
862.413513,306
862.531006,310
862.64856,314
862.766113,315
862.883667,305
863.00116,319
863.118713,310
863.236206,312
863.353699,310
863.471252,323
863.588745,312
863.706177,321
863.82373,313
863.941162,328
864.058716,306
864.176208,325
864.29364,308
864.411194,322
864.528687,322
864.646118,336
864.763611,324
864.881042,317
864.998535,308
865.116028,316
865.233459,309
865.350891,314
865.468384,315
865.585754,312
865.703308,312
865.820679,312
865.938171,306
866.055542,312
866.173035,316
866.290466,324
866.407837,301
866.52533,318
866.6427,315
866.760071,314
866.877563,320
866.994934,311
867.112305,323
867.229736,317
867.347107,317
867.464539,318
867.58197,305
867.699341,307
867.81665,307
867.934082,317
868.051453,319
868.168823,325
868.286194,325
868.403564,323
868.520935,321
868.638306,309
868.755676,310
868.872986,311
868.990295,312
869.107727,304
869.225037,314
869.342346,319
869.459717,301
869.577026,311
869.694336,321
869.811707,315
869.929016,310
870.046326,305
870.163635,305
870.280945,313
870.398254,327
870.515564,321
870.632812,312
870.750183,322
870.867432,307
870.984741,316
871.102051,315
871.219299,314
871.336609,311
871.453918,322
871.571106,310
871.688416,313
871.805664,319
871.922852,324
872.040222,311
872.157471,309
872.274719,304
872.391968,310
872.509155,298
872.626465,330
872.743652,320
872.860962,310
872.978149,326
873.095337,308
873.212646,319
873.329834,318
873.44696,324
873.564209,331
873.681396,315
873.798645,321
873.915894,320
874.03302,316
874.150208,307
874.267456,322
874.384583,323
874.501831,325
874.618958,313
874.736145,321
874.853333,302
874.970459,322
875.087646,316
875.204834,316
875.32196,324
875.439148,329
875.556274,317
875.673401,314
875.790527,311
875.907715,324
876.024841,303
876.141968,313
876.259094,320
876.376282,323
876.493347,301
876.610474,315
876.7276,314
876.844727,321
876.961853,318
877.078918,324
877.195984,308
877.313171,327
877.430237,314
877.547302,320
877.664368,320
877.781433,331
877.898499,312
878.015625,318
878.13269,300
878.249695,320
878.366821,307
878.483887,318
878.600952,308
878.717957,310
878.834961,311
878.952087,304
879.069092,327
879.186157,316
879.303162,304
879.420227,314
879.537231,294
879.654236,319
879.77124,317
879.888306,317
880.005249,305
880.122314,301
880.239319,310
880.356323,321
880.473328,304
880.590271,310
880.707275,304
880.824341,328
880.941284,314
881.058228,307
881.175232,317
881.292236,319
881.40918,323
881.526123,325
881.643066,310
881.760071,320
881.877014,314
881.993958,318
882.11084,303
882.227783,326
882.344727,303
882.46167,333
882.578613,313
882.695618,340
882.812439,304
882.929382,318
883.046326,320
883.163208,328
883.280151,313
883.397034,317
883.513916,312
883.630798,312
883.747742,305
883.864563,336
883.981506,314
884.098389,315
884.21521,307
884.332153,328
884.448975,316
884.565796,318
884.682678,304
884.7995,318
884.916443,323
885.033264,322
885.150085,314
885.266968,318
885.383789,305
885.500671,324
885.617493,312
885.734314,317
885.851196,319
885.967896,309
886.084717,318
886.201599,310
886.318359,303
886.435181,318
886.552002,309
886.668762,316
886.785645,303
886.902344,315
887.019165,304
887.135925,328
887.252747,321
887.369446,326
887.486267,309
887.603027,327
887.719788,315
887.836548,314
887.953247,306
888.070068,313
888.186829,316
888.303528,324
888.420288,316
888.536987,312
888.653687,299
888.770447,314
888.887146,326
889.003967,320
889.120667,304
889.237305,314
889.354065,310
889.470703,331
889.587463,303
889.704163,338
889.820862,320
889.937561,322
890.054199,319
890.170837,311
890.287598,318
890.404236,311
890.520874,318
890.637634,317
890.754211,301
890.87085,310
890.987549,317
891.104187,316
891.220886,311
891.337463,318
891.454102,319
891.57074,320
891.687378,305
891.804077,325
891.920654,314
892.037231,312
892.15387,312
892.270447,319
892.387085,312
892.503723,307
892.6203,327
892.736877,317
892.853516,319
892.970032,312
893.08667,315
893.203186,314
893.319763,310
893.43634,326
893.552917,307
893.669556,320
893.786011,310
893.902588,311
894.019165,332
894.135681,323
894.252197,299
894.368835,325
894.485291,315
894.601868,324
894.718384,331
894.8349,312
894.951355,297
895.067932,320
895.184448,315
895.300964,310
895.417419,315
895.533936,325
895.650452,314
895.766907,319
895.883423,309
895.999878,310
896.116333,328
896.232849,321
896.349304,315
896.465759,320
896.582214,306
896.698669,316
896.815125,309
896.931641,322
897.048035,321
897.164551,309
897.280884,318
897.397339,315
897.513794,312
897.630249,325
897.746582,313
897.863098,321
897.979431,312
898.095886,304
898.212341,321
898.328674,327
898.445129,306
898.561462,303
898.677795,315
898.794312,313
898.910645,319
899.026978,310
899.143433,311
899.259766,327
899.37616,317
899.492493,321
899.608765,325
899.725159,313
899.841553,332
899.957947,316
900.07428,335
900.190552,312
900.306946,295
900.423157,314
900.53949,305
900.655884,326
900.772156,317
900.888489,322
901.004822,313
901.121033,321
901.237366,318
901.353699,333
901.46991,324
901.586304,308
901.702515,313
901.818787,312
901.93512,321
902.051331,319
902.167603,305
902.283875,324
902.400085,319
902.516418,308
902.632629,311
902.74884,322
902.865112,308
902.981384,315
903.097595,312
903.213867,323
903.330017,323
903.446289,322
903.5625,317
903.67865,307
903.794922,325
903.911072,311
904.027344,314
904.143494,336
904.259705,317
904.375916,322
904.492065,320
904.608215,307
904.724426,313
904.840576,324
904.956726,317
905.072876,308
905.189087,305
905.305176,317
905.421387,306
905.537537,311
905.653687,317
905.769775,307
905.885925,320
906.002014,310
906.118164,313
906.234314,315
906.350403,309
906.466492,313
906.582642,315
906.69873,314
906.814758,323
906.930908,303
907.046936,315
907.163086,320
907.279175,329
907.395264,322
907.511353,319
907.62738,331
907.743408,312
907.859497,329
907.975525,326
908.091553,316
908.207703,307
908.32373,308
908.439758,312
908.555786,319
908.671814,324
908.787842,319
908.90387,319
909.019775,321
909.135864,309
909.251892,313
909.367859,293
909.483826,318
909.599854,304
909.715881,319
909.831848,316
909.947815,322
910.063782,305
910.179749,321
910.295776,315
910.411743,324
910.527649,314
910.643616,314
910.759583,323
910.875488,331
910.991455,322
911.107361,320
911.223267,312
911.339294,321
911.4552,308
911.571106,309
911.687073,314
911.802979,324
911.918823,311
912.034729,323
912.150635,309
912.266602,316
912.382446,320
912.498352,313
912.614197,303
912.730103,330
912.846008,320
792.44574,309
792.56488,342
792.68396,388
792.80304,363
792.92218,326
793.041199,315
793.160339,325
793.279419,333
793.398499,326
793.517578,310
793.636658,321
793.755737,329
793.874817,328
793.993896,332
794.112976,331
794.232056,311
794.351074,312
794.470215,318
794.589233,312
794.708313,316
794.827393,330
794.946411,315
795.065552,330
795.18457,329
795.303589,319
795.422668,327
795.541687,325
795.660767,328
795.779846,316
795.898865,317
796.017883,318
796.136963,331
796.255981,317
796.375061,323
796.49408,337
796.613037,338
796.732117,319
796.851135,327
796.970154,319
797.089233,320
797.208191,322
797.327271,318
797.446228,325
797.565186,325
797.684265,328
797.803223,322
797.922241,331
798.04126,318
798.160278,330
798.279297,321
798.398315,337
798.517273,311
798.636292,326
798.75531,313
798.874268,331
798.993286,308
799.112244,329
799.231323,322
799.350281,316
799.469238,303
799.588257,318
799.707153,317
799.826111,316
799.945129,325
800.064087,319
800.183044,321
800.302063,320
800.421021,318
800.539978,330
800.658936,328
800.777893,320
800.896912,304
801.015747,322
801.134705,318
801.253723,315
801.37262,312
801.491638,314
801.610535,320
801.729492,327
801.84845,312
801.967407,315
802.086243,322
802.205261,313
802.324158,315
802.443115,318
802.562073,316
802.680969,320
802.799927,330
802.918762,319
803.037659,318
803.156677,318
803.275574,320
803.39447,312
803.513428,312
803.632263,314
803.751221,316
803.870117,322
803.989014,327
804.107971,317
804.226746,320
804.345642,329
804.4646,313
804.583496,326
804.702393,296
804.821228,325
804.940125,321
805.059021,326
805.177917,316
805.296814,311
805.415649,327
805.534546,307
805.653442,326
805.772278,330
805.891113,322
806.01001,322
806.128906,323
806.247742,314
806.366577,328
806.485413,311
806.604309,323
806.723145,320
806.84198,327
806.960876,316
807.079712,315
807.198486,330
807.317383,316
807.436218,316
807.554993,319
807.673889,319
807.792725,331
807.91156,314
808.030396,314
808.14917,304
808.268005,307
808.386841,324
808.505676,322
808.624451,323
808.743286,310
808.862122,313
808.980896,316
809.099731,314
809.218506,323
809.337341,323
809.456116,319
809.57489,317
809.693726,324
809.8125,326
809.931274,311
810.050049,322
810.168884,324
810.287659,322
810.406372,324
810.525269,314
810.643982,308
810.762756,317
810.881531,320
811.000305,334
811.11908,329
811.237854,302
811.356567,310
811.475403,326
811.594116,325
811.71283,329
811.831604,311
811.950378,309
812.069153,307
812.187927,317
812.30658,327
812.425415,319
812.544128,320
812.662781,322
812.781616,305
812.900269,320
813.019043,322
813.137756,314
813.256531,306
813.375244,330
813.493896,295
813.612671,312
813.731384,320
813.850037,315
813.96875,323
814.087524,321
814.206238,325
814.324951,320
814.443604,326
814.562256,325
814.68103,316
814.799683,318
814.918335,326
815.037109,309
815.155762,316
815.274475,323
815.393188,309
815.511841,317
815.630554,319
815.749146,323
815.867859,293
815.986572,310
816.105164,302
816.223877,330
816.342529,323
816.461182,313
816.579895,299
816.698486,317
816.817139,323
816.935791,325
817.054504,310
817.173096,314
817.291748,329
817.4104,307
817.529053,324
817.647644,318
817.766235,312
817.884949,315
818.00354,319
818.122192,330
818.240845,309
818.359436,323
818.478088,307
818.59668,310
818.715271,319
818.833923,318
818.952515,327
819.071106,321
819.189758,322
819.30835,314
819.426941,315
819.545532,331
819.664124,316
819.782715,311
819.901306,326
820.019897,321
820.138489,300
820.25708,315
820.375671,303
820.494202,326
820.612732,315
820.731384,312
820.849915,331
820.968506,319
821.087097,314
821.205627,326
821.324158,321
821.442749,316
821.561279,299
821.679871,312
821.798401,324
821.916931,323
822.035461,308
822.154053,314
822.272583,323
822.391174,316
822.509583,321
822.628174,324
822.746704,313
822.865234,314
822.983765,310
823.102295,324
823.220825,312
823.339294,301
823.457825,312
823.576355,317
823.694824,296
823.813354,322
823.931885,315
824.050354,312
824.168884,321
824.287354,316
824.405823,323
824.524353,323
824.642822,317
824.761353,312
824.879822,322
824.998291,322
825.116699,324
825.235291,316
825.353699,319
825.472168,318
825.590637,315
825.709106,328
825.827576,312
825.946045,317
826.064453,315
826.182983,314
826.301392,316
826.4198,330
826.53833,311
826.656738,326
826.775208,319
826.893677,320
827.012024,308
827.130493,331
827.248962,303
827.36731,325
827.485779,315
827.604248,320
827.722595,311
827.841064,306
827.959412,310
828.077942,327
828.196289,323
828.314636,310
828.433105,312
828.551514,324
828.669861,310
828.78833,312
828.906677,308
829.025085,331
829.143433,300
829.261841,313
829.38031,311
829.498657,328
829.617004,308
829.735413,321
829.85376,297
829.972107,334
830.090515,312
830.208862,309
830.327209,312
830.445557,311
830.563904,327
830.682312,320
830.800659,321
830.919006,310
831.037354,309
831.155701,321
831.274048,304
831.392395,325
831.51062,314
831.629028,320
831.747314,311
831.865662,324
831.984009,304
832.102356,315
832.220642,329
832.338928,321
832.457275,310
832.575623,319
832.693909,317
832.812134,310
832.930481,315
833.048828,303
833.167114,317
833.2854,309
833.403687,320
833.521973,309
833.640259,328
833.758545,320
833.876831,310
833.995056,309
834.113281,318
834.231628,329
834.349915,311
834.468201,327
834.586426,321
834.704651,329
834.822998,319
834.941162,306
835.059448,299
835.177673,318
835.295959,316
835.414246,330
835.53241,319
835.650635,313
835.768921,310
835.887146,306
836.005371,313
836.123596,324
836.241821,310
836.360046,322
836.478271,322
836.596497,314
836.714722,313
836.832886,321
836.95105,315
837.069336,317
837.1875,316
837.305725,314
837.423889,311
837.542053,307
837.660339,316
837.778503,316
837.896667,304
838.014832,337
838.132996,309
838.25116,319
838.369385,303
838.487488,328
838.605713,303
838.723877,308
838.84198,305
838.960205,313
839.078308,314
839.196472,312
839.314636,323
839.4328,322
839.550964,321
839.669067,299
839.787231,311
839.905396,331
840.023499,326
840.141602,314
840.259766,315
840.377869,321
840.495972,309
840.614136,326
840.732239,305
840.850342,308
840.968445,326
841.086548,315
841.204651,314
841.322754,318
841.440918,304
841.55896,334
841.677002,305
841.795166,320
841.913208,321
842.031311,308
842.149353,312
842.267456,335
842.385498,309
842.503601,313
842.621643,298
842.739746,308
842.857788,332
842.97583,314
843.093933,312
843.211975,323
843.330017,321
843.44812,314
843.566101,309
843.684204,315
843.802246,321
843.920227,320
844.038269,306
844.156311,330
844.274292,297
844.392395,304
844.510376,316
844.628357,319
844.74646,323
844.864441,310
844.982422,303
845.100403,322
845.218384,302
845.336426,322
845.454468,319
845.572449,323
845.69043,298
845.808411,308
845.926453,313
846.044373,318
846.162354,315
846.280396,321
846.398315,318
846.516296,315
846.634216,308
846.752197,310
846.870178,311
846.988098,332
847.106079,310
847.22406,314
847.34198,317
847.4599,327
847.577881,305
847.695801,315
847.813782,326
847.931641,335
848.049561,314
848.167603,312
848.285461,313
848.403381,310
848.521362,316
848.639221,313
848.75708,311
848.875,319
848.99292,303
849.110901,318
849.22876,315
849.34668,314
849.464539,323
849.582458,313
849.700317,312
849.818176,307
849.936096,310
850.053955,308
850.171875,310
850.289673,308
850.407593,316
850.525452,312
850.643311,313
850.761169,323
850.878967,311
850.996887,325
851.114746,311
851.232544,329
851.350403,319
851.468262,302
851.58606,306
851.703979,319
851.821777,314
851.939636,323
852.057434,311
852.175232,320
852.293091,309
852.410889,321
852.528687,299
852.646545,306
852.764343,303
852.88208,306
852.999939,299
853.117676,306
853.235535,314
853.353271,324
853.471069,306
853.588928,313
853.706604,322
853.824402,321
853.9422,326
854.059998,318
854.177734,322
854.295532,328
854.413269,314
854.531006,324
854.648804,316
854.766541,311
854.884277,311
855.002014,322
855.119751,312
855.237549,318
855.355225,318
855.473022,308
855.590698,319
855.708435,330
855.826172,318
855.943848,310
856.061646,302
856.179321,325
856.296997,307
856.414795,308
856.53241,322
856.650085,330
856.767822,309
856.885559,333
857.003174,315
857.120911,331
857.238586,324
857.356201,333
857.473938,319
857.591614,316
857.709351,317
857.826965,318
857.944641,308
858.062317,333
858.179993,318
858.297668,324
858.415283,304
858.532959,325
858.650574,326
858.768188,326
858.885803,308
859.003479,318
859.121094,314
859.23877,307
859.356384,316
859.473999,324
859.591675,316
859.709229,314
859.826843,304
859.944458,313
860.062012,324
860.179626,324
860.297302,314
860.414856,316
860.532471,296
860.650024,314
860.767639,319
860.885193,313
861.002808,301
861.120361,326
861.237976,319
861.35553,322
861.473022,318
861.590698,318
861.708191,312
861.825745,318
861.943298,307
862.060852,311
862.178406,312
862.295959,314
862.413513,322
862.531006,313
862.64856,324
862.766113,317
862.883667,332
863.00116,326
863.118713,313
863.236206,322
863.353699,319
863.471252,315
863.588745,322
863.706177,318
863.82373,323
863.941162,310
864.058716,313
864.176208,307
864.29364,310
864.411194,323
864.528687,316
864.646118,313
864.763611,305
864.881042,321
864.998535,319
865.116028,319
865.233459,306
865.350891,314
865.468384,309
865.585754,308
865.703308,299
865.820679,323
865.938171,323
866.055542,318
866.173035,307
866.290466,330
866.407837,302
866.52533,315
866.6427,314
866.760071,301
866.877563,333
866.994934,315
867.112305,327
867.229736,312
867.347107,321
867.464539,324
867.58197,323
867.699341,304
867.81665,315
867.934082,313
868.051453,306
868.168823,314
868.286194,315
868.403564,324
868.520935,302
868.638306,333
868.755676,314
868.872986,327
868.990295,308
869.107727,324
869.225037,308
869.342346,330
869.459717,307
869.577026,323
869.694336,317
869.811707,319
869.929016,301
870.046326,321
870.163635,315
870.280945,313
870.398254,328
870.515564,302
870.632812,311
870.750183,327
870.867432,315
870.984741,323
871.102051,316
871.219299,319
871.336609,322
871.453918,323
871.571106,304
871.688416,310
871.805664,304
871.922852,322
872.040222,306
872.157471,317
872.274719,316
872.391968,326
872.509155,308
872.626465,314
872.743652,316
872.860962,325
872.978149,306
873.095337,314
873.212646,321
873.329834,309
873.44696,308
873.564209,319
873.681396,320
873.798645,321
873.915894,311
874.03302,315
874.150208,318
874.267456,317
874.384583,327
874.501831,317
874.618958,313
874.736145,317
874.853333,304
874.970459,318
875.087646,315
875.204834,313
875.32196,309
875.439148,316
875.556274,311
875.673401,322
875.790527,324
875.907715,320
876.024841,315
876.141968,317
876.259094,317
876.376282,324
876.493347,316
876.610474,321
876.7276,296
876.844727,328
876.961853,303
877.078918,315
877.195984,318
877.313171,311
877.430237,299
877.547302,318
877.664368,309
877.781433,313
877.898499,310
878.015625,323
878.13269,310
878.249695,319
878.366821,314
878.483887,306
878.600952,311
878.717957,323
878.834961,304
878.952087,317
879.069092,310
879.186157,327
879.303162,311
879.420227,323
879.537231,322
879.654236,317
879.77124,316
879.888306,321
880.005249,323
880.122314,327
880.239319,312
880.356323,314
880.473328,317
880.590271,327
880.707275,314
880.824341,315
880.941284,305
881.058228,314
881.175232,309
881.292236,314
881.40918,310
881.526123,321
881.643066,298
881.760071,322
881.877014,312
881.993958,309
882.11084,301
882.227783,320
882.344727,313
882.46167,320
882.578613,316
882.695618,316
882.812439,299
882.929382,325
883.046326,321
883.163208,315
883.280151,313
883.397034,320
883.513916,322
883.630798,317
883.747742,310
883.864563,313
883.981506,313
884.098389,312
884.21521,312
884.332153,321
884.448975,309
884.565796,308
884.682678,313
884.7995,328
884.916443,314
885.033264,310
885.150085,311
885.266968,325
885.383789,306
885.500671,335
885.617493,304
885.734314,314
885.851196,311
885.967896,307
886.084717,301
886.201599,310
886.318359,327
886.435181,310
886.552002,319
886.668762,314
886.785645,309
886.902344,312
887.019165,311
887.135925,320
887.252747,310
887.369446,316
887.486267,315
887.603027,316
887.719788,324
887.836548,308
887.953247,312
888.070068,312
888.186829,312
888.303528,318
888.420288,309
888.536987,311
888.653687,321
888.770447,336
888.887146,323
889.003967,311
889.120667,307
889.237305,303
889.354065,323
889.470703,314
889.587463,310
889.704163,321
889.820862,309
889.937561,313
890.054199,322
890.170837,305
890.287598,317
890.404236,316
890.520874,317
890.637634,309
890.754211,310
890.87085,325
890.987549,297
891.104187,325
891.220886,320
891.337463,336
891.454102,322
891.57074,316
891.687378,301
891.804077,311
891.920654,310
892.037231,317
892.15387,309
892.270447,332
892.387085,306
892.503723,327
892.6203,309
892.736877,309
892.853516,328
892.970032,311
893.08667,314
893.203186,320
893.319763,316
893.43634,314
893.552917,314
893.669556,318
893.786011,317
893.902588,326
894.019165,315
894.135681,313
894.252197,309
894.368835,325
894.485291,309
894.601868,314
894.718384,324
894.8349,316
894.951355,306
895.067932,325
895.184448,296
895.300964,320
895.417419,313
895.533936,313
895.650452,310
895.766907,329
895.883423,301
895.999878,309
896.116333,314
896.232849,315
896.349304,313
896.465759,326
896.582214,309
896.698669,316
896.815125,309
896.931641,311
897.048035,319
897.164551,310
897.280884,312
897.397339,311
897.513794,315
897.630249,314
897.746582,308
897.863098,318
897.979431,305
898.095886,332
898.212341,317
898.328674,330
898.445129,312
898.561462,329
898.677795,303
898.794312,315
898.910645,312
899.026978,323
899.143433,300
899.259766,325
899.37616,317
899.492493,316
899.608765,317
899.725159,310
899.841553,308
899.957947,328
900.07428,320
900.190552,320
900.306946,314
900.423157,320
900.53949,315
900.655884,302
900.772156,304
900.888489,316
901.004822,322
901.121033,330
901.237366,312
901.353699,321
901.46991,311
901.586304,320
901.702515,306
901.818787,329
901.93512,327
902.051331,311
902.167603,324
902.283875,319
902.400085,325
902.516418,319
902.632629,318
902.74884,334
902.865112,323
902.981384,328
903.097595,317
903.213867,299
903.330017,310
903.446289,310
903.5625,304
903.67865,321
903.794922,315
903.911072,322
904.027344,312
904.143494,321
904.259705,319
904.375916,301
904.492065,316
904.608215,328
904.724426,307
904.840576,314
904.956726,303
905.072876,325
905.189087,315
905.305176,321
905.421387,318
905.537537,304
905.653687,318
905.769775,320
905.885925,307
906.002014,319
906.118164,312
906.234314,328
906.350403,323
906.466492,326
906.582642,306
906.69873,321
906.814758,320
906.930908,320
907.046936,311
907.163086,325
907.279175,313
907.395264,318
907.511353,312
907.62738,310
907.743408,317
907.859497,327
907.975525,307
908.091553,334
908.207703,310
908.32373,319
908.439758,324
908.555786,316
908.671814,316
908.787842,312
908.90387,310
909.019775,310
909.135864,322
909.251892,317
909.367859,325
909.483826,315
909.599854,311
909.715881,315
909.831848,311
909.947815,314
910.063782,309
910.179749,312
910.295776,317
910.411743,323
910.527649,313
910.643616,322
910.759583,315
910.875488,312
910.991455,320
911.107361,311
911.223267,310
911.339294,318
911.4552,315
911.571106,331
911.687073,319
911.802979,315
911.918823,317
912.034729,326
912.150635,327
912.266602,314
912.382446,317
912.498352,315
912.614197,307
912.730103,315
912.846008,312
792.44574,305
792.56488,339
792.68396,396
792.80304,385
792.92218,338
793.041199,312
793.160339,294
793.279419,332
793.398499,328
793.517578,310
793.636658,310
793.755737,317
793.874817,333
793.993896,340
794.112976,335
794.232056,328
794.351074,316
794.470215,325
794.589233,320
794.708313,328
794.827393,311
794.946411,307
795.065552,331
795.18457,314
795.303589,324
795.422668,330
795.541687,315
795.660767,316
795.779846,326
795.898865,324
796.017883,326
796.136963,325
796.255981,305
796.375061,317
796.49408,327
796.613037,336
796.732117,311
796.851135,326
796.970154,318
797.089233,314
797.208191,307
797.327271,326
797.446228,325
797.565186,309
797.684265,331
797.803223,317
797.922241,327
798.04126,315
798.160278,320
798.279297,318
798.398315,317
798.517273,314
798.636292,317
798.75531,327
798.874268,323
798.993286,320
799.112244,311
799.231323,324
799.350281,324
799.469238,322
799.588257,319
799.707153,332
799.826111,327
799.945129,315
800.064087,308
800.183044,331
800.302063,317
800.421021,315
800.539978,326
800.658936,322
800.777893,308
800.896912,321
801.015747,309
801.134705,320
801.253723,320
801.37262,333
801.491638,321
801.610535,316
801.729492,324
801.84845,330
801.967407,329
802.086243,317
802.205261,329
802.324158,316
802.443115,321
802.562073,308
802.680969,324
802.799927,303
802.918762,331
803.037659,317
803.156677,312
803.275574,331
803.39447,315
803.513428,314
803.632263,319
803.751221,314
803.870117,321
803.989014,317
804.107971,314
804.226746,314
804.345642,319
804.4646,323
804.583496,316
804.702393,306
804.821228,317
804.940125,332
805.059021,323
805.177917,325
805.296814,318
805.415649,316
805.534546,321
805.653442,308
805.772278,327
805.891113,310
806.01001,323
806.128906,311
806.247742,318
806.366577,312
806.485413,323
806.604309,322
806.723145,323
806.84198,327
806.960876,311
807.079712,332
807.198486,310
807.317383,324
807.436218,317
807.554993,313
807.673889,320
807.792725,328
807.91156,324
808.030396,316
808.14917,321
808.268005,315
808.386841,315
808.505676,313
808.624451,318
808.743286,321
808.862122,320
808.980896,303
809.099731,323
809.218506,311
809.337341,314
809.456116,323
809.57489,326
809.693726,308
809.8125,316
809.931274,301
810.050049,318
810.168884,331
810.287659,315
810.406372,317
810.525269,323
810.643982,329
810.762756,315
810.881531,319
811.000305,314
811.11908,317
811.237854,310
811.356567,311
811.475403,329
811.594116,307
811.71283,315
811.831604,325
811.950378,335
812.069153,335
812.187927,313
812.30658,313
812.425415,318
812.544128,326
812.662781,315
812.781616,313
812.900269,320
813.019043,329
813.137756,310
813.256531,327
813.375244,321
813.493896,315
813.612671,306
813.731384,325
813.850037,320
813.96875,311
814.087524,314
814.206238,321
814.324951,318
814.443604,306
814.562256,325
814.68103,312
814.799683,323
814.918335,315
815.037109,321
815.155762,308
815.274475,315
815.393188,324
815.511841,313
815.630554,316
815.749146,311
815.867859,326
815.986572,316
816.105164,330
816.223877,312
816.342529,317
816.461182,327
816.579895,319
816.698486,327
816.817139,324
816.935791,322
817.054504,319
817.173096,311
817.291748,320
817.4104,313
817.529053,325
817.647644,306
817.766235,311
817.884949,333
818.00354,322
818.122192,331
818.240845,313
818.359436,304
818.478088,325
818.59668,334
818.715271,309
818.833923,322
818.952515,317
819.071106,327
819.189758,314
819.30835,320
819.426941,323
819.545532,302
819.664124,324
819.782715,329
819.901306,318
820.019897,323
820.138489,321
820.25708,319
820.375671,320
820.494202,321
820.612732,316
820.731384,311
820.849915,315
820.968506,322
821.087097,313
821.205627,318
821.324158,314
821.442749,322
821.561279,314
821.679871,310
821.798401,312
821.916931,317
822.035461,322
822.154053,317
822.272583,305
822.391174,321
822.509583,312
822.628174,303
822.746704,334
822.865234,311
822.983765,313
823.102295,319
823.220825,313
823.339294,333
823.457825,300
823.576355,324
823.694824,319
823.813354,315
823.931885,307
824.050354,320
824.168884,321
824.287354,318
824.405823,320
824.524353,306
824.642822,320
824.761353,309
824.879822,320
824.998291,320
825.116699,306
825.235291,314
825.353699,329
825.472168,312
825.590637,326
825.709106,317
825.827576,330
825.946045,310
826.064453,318
826.182983,316
826.301392,322
826.4198,303
826.53833,308
826.656738,307
826.775208,321
826.893677,315
827.012024,316
827.130493,307
827.248962,321
827.36731,325
827.485779,303
827.604248,301
827.722595,314
827.841064,321
827.959412,325
828.077942,318
828.196289,315
828.314636,308
828.433105,319
828.551514,332
828.669861,326
828.78833,314
828.906677,310
829.025085,315
829.143433,323
829.261841,321
829.38031,309
829.498657,309
829.617004,319
829.735413,307
829.85376,318
829.972107,313
830.090515,316
830.208862,321
830.327209,318
830.445557,316
830.563904,303
830.682312,316
830.800659,315
830.919006,309
831.037354,308
831.155701,315
831.274048,308
831.392395,300
831.51062,306
831.629028,310
831.747314,337
831.865662,323
831.984009,309
832.102356,312
832.220642,327
832.338928,307
832.457275,324
832.575623,312
832.693909,323
832.812134,317
832.930481,335
833.048828,318
833.167114,305
833.2854,318
833.403687,313
833.521973,305
833.640259,316
833.758545,316
833.876831,311
833.995056,308
834.113281,312
834.231628,321
834.349915,313
834.468201,313
834.586426,326
834.704651,319
834.822998,309
834.941162,312
835.059448,312
835.177673,311
835.295959,309
835.414246,306
835.53241,301
835.650635,330
835.768921,321
835.887146,301
836.005371,326
836.123596,303
836.241821,319
836.360046,325
836.478271,311
836.596497,309
836.714722,314
836.832886,313
836.95105,323
837.069336,316
837.1875,317
837.305725,304
837.423889,317
837.542053,308
837.660339,306
837.778503,318
837.896667,330
838.014832,309
838.132996,319
838.25116,314
838.369385,314
838.487488,314
838.605713,317
838.723877,326
838.84198,318
838.960205,317
839.078308,316
839.196472,315
839.314636,314
839.4328,310
839.550964,320
839.669067,317
839.787231,322
839.905396,323
840.023499,327
840.141602,308
840.259766,322
840.377869,302
840.495972,337
840.614136,314
840.732239,317
840.850342,302
840.968445,323
841.086548,313
841.204651,325
841.322754,314
841.440918,315
841.55896,327
841.677002,327
841.795166,310
841.913208,312
842.031311,322
842.149353,318
842.267456,320
842.385498,325
842.503601,299
842.621643,302
842.739746,301
842.857788,316
842.97583,316
843.093933,319
843.211975,311
843.330017,328
843.44812,307
843.566101,324
843.684204,307
843.802246,310
843.920227,303
844.038269,306
844.156311,306
844.274292,320
844.392395,322
844.510376,315
844.628357,310
844.74646,310
844.864441,318
844.982422,307
845.100403,313
845.218384,309
845.336426,303
845.454468,326
845.572449,317
845.69043,318
845.808411,309
845.926453,299
846.044373,315
846.162354,318
846.280396,318
846.398315,314
846.516296,313
846.634216,307
846.752197,316
846.870178,321
846.988098,324
847.106079,321
847.22406,318
847.34198,316
847.4599,313
847.577881,324
847.695801,298
847.813782,321
847.931641,316
848.049561,325
848.167603,318
848.285461,294
848.403381,320
848.521362,311
848.639221,303
848.75708,318
848.875,321
848.99292,335
849.110901,294
849.22876,330
849.34668,322
849.464539,302
849.582458,316
849.700317,332
849.818176,326
849.936096,305
850.053955,317
850.171875,325
850.289673,313
850.407593,314
850.525452,322
850.643311,314
850.761169,306
850.878967,316
850.996887,318
851.114746,313
851.232544,320
851.350403,323
851.468262,316
851.58606,319
851.703979,312
851.821777,311
851.939636,316
852.057434,303
852.175232,311
852.293091,317
852.410889,302
852.528687,325
852.646545,318
852.764343,321
852.88208,309
852.999939,321
853.117676,301
853.235535,306
853.353271,316
853.471069,304
853.588928,299
853.706604,315
853.824402,315
853.9422,300
854.059998,323
854.177734,316
854.295532,316
854.413269,319
854.531006,314
854.648804,319
854.766541,312
854.884277,320
855.002014,313
855.119751,308
855.237549,302
855.355225,307
855.473022,322
855.590698,314
855.708435,321
855.826172,312
855.943848,314
856.061646,332
856.179321,307
856.296997,314
856.414795,323
856.53241,319
856.650085,313
856.767822,319
856.885559,313
857.003174,314
857.120911,305
857.238586,308
857.356201,316
857.473938,309
857.591614,316
857.709351,317
857.826965,327
857.944641,318
858.062317,314
858.179993,337
858.297668,304
858.415283,318
858.532959,322
858.650574,328
858.768188,311
858.885803,311
859.003479,320
859.121094,323
859.23877,316
859.356384,332
859.473999,311
859.591675,327
859.709229,315
859.826843,311
859.944458,313
860.062012,306
860.179626,305
860.297302,301
860.414856,311
860.532471,326
860.650024,322
860.767639,326
860.885193,323
861.002808,309
861.120361,308
861.237976,308
861.35553,305
861.473022,310
861.590698,311
861.708191,324
861.825745,307
861.943298,329
862.060852,322
862.178406,312
862.295959,307
862.413513,311
862.531006,314
862.64856,304
862.766113,319
862.883667,309
863.00116,311
863.118713,315
863.236206,316
863.353699,314
863.471252,313
863.588745,318
863.706177,318
863.82373,322
863.941162,309
864.058716,312
864.176208,304
864.29364,316
864.411194,326
864.528687,325
864.646118,317
864.763611,312
864.881042,314
864.998535,303
865.116028,327
865.233459,333
865.350891,308
865.468384,327
865.585754,315
865.703308,326
865.820679,329
865.938171,320
866.055542,315
866.173035,315
866.290466,317
866.407837,318
866.52533,310
866.6427,307
866.760071,315
866.877563,326
866.994934,325
867.112305,324
867.229736,317
867.347107,307
867.464539,312
867.58197,322
867.699341,326
867.81665,311
867.934082,307
868.051453,316
868.168823,306
868.286194,315
868.403564,319
868.520935,314
868.638306,308
868.755676,315
868.872986,311
868.990295,319
869.107727,309
869.225037,317
869.342346,312
869.459717,323
869.577026,304
869.694336,304
869.811707,331
869.929016,321
870.046326,316
870.163635,313
870.280945,312
870.398254,322
870.515564,319
870.632812,310
870.750183,309
870.867432,315
870.984741,316
871.102051,321
871.219299,308
871.336609,300
871.453918,305
871.571106,305
871.688416,318
871.805664,311
871.922852,311
872.040222,307
872.157471,323
872.274719,324
872.391968,304
872.509155,317
872.626465,315
872.743652,305
872.860962,309
872.978149,310
873.095337,324
873.212646,308
873.329834,317
873.44696,322
873.564209,310
873.681396,326
873.798645,318
873.915894,314
874.03302,306
874.150208,316
874.267456,306
874.384583,315
874.501831,326
874.618958,317
874.736145,303
874.853333,316
874.970459,319
875.087646,322
875.204834,317
875.32196,319
875.439148,319
875.556274,315
875.673401,312
875.790527,315
875.907715,311
876.024841,315
876.141968,310
876.259094,322
876.376282,319
876.493347,313
876.610474,314
876.7276,316
876.844727,335
876.961853,328
877.078918,316
877.195984,322
877.313171,312
877.430237,312
877.547302,311
877.664368,329
877.781433,313
877.898499,323
878.015625,312
878.13269,311
878.249695,312
878.366821,320
878.483887,306
878.600952,331
878.717957,311
878.834961,312
878.952087,313
879.069092,309
879.186157,315
879.303162,307
879.420227,314
879.537231,312
879.654236,316
879.77124,328
879.888306,318
880.005249,310
880.122314,324
880.239319,305
880.356323,320
880.473328,316
880.590271,327
880.707275,313
880.824341,309
880.941284,314
881.058228,309
881.175232,314
881.292236,303
881.40918,335
881.526123,318
881.643066,322
881.760071,308
881.877014,314
881.993958,312
882.11084,317
882.227783,320
882.344727,304
882.46167,322
882.578613,313
882.695618,318
882.812439,334
882.929382,317
883.046326,324
883.163208,317
883.280151,319
883.397034,306
883.513916,325
883.630798,307
883.747742,313
883.864563,302
883.981506,331
884.098389,311
884.21521,312
884.332153,306
884.448975,321
884.565796,313
884.682678,324
884.7995,319
884.916443,322
885.033264,308
885.150085,311
885.266968,309
885.383789,313
885.500671,309
885.617493,312
885.734314,310
885.851196,302
885.967896,316
886.084717,308
886.201599,320
886.318359,313
886.435181,313
886.552002,325
886.668762,313
886.785645,320
886.902344,323
887.019165,317
887.135925,320
887.252747,324
887.369446,327
887.486267,308
887.603027,307
887.719788,306
887.836548,314
887.953247,314
888.070068,299
888.186829,312
888.303528,322
888.420288,314
888.536987,304
888.653687,319
888.770447,304
888.887146,320
889.003967,309
889.120667,331
889.237305,317
889.354065,320
889.470703,315
889.587463,311
889.704163,310
889.820862,315
889.937561,302
890.054199,326
890.170837,312
890.287598,315
890.404236,311
890.520874,314
890.637634,309
890.754211,314
890.87085,326
890.987549,325
891.104187,310
891.220886,317
891.337463,319
891.454102,307
891.57074,320
891.687378,333
891.804077,306
891.920654,317
892.037231,307
892.15387,316
892.270447,319
892.387085,312
892.503723,309
892.6203,326
892.736877,304
892.853516,314
892.970032,326
893.08667,325
893.203186,309
893.319763,327
893.43634,307
893.552917,323
893.669556,315
893.786011,324
893.902588,303
894.019165,305
894.135681,318
894.252197,317
894.368835,310
894.485291,323
894.601868,319
894.718384,309
894.8349,332
894.951355,323
895.067932,305
895.184448,314
895.300964,318
895.417419,311
895.533936,312
895.650452,326
895.766907,316
895.883423,324
895.999878,307
896.116333,311
896.232849,313
896.349304,317
896.465759,313
896.582214,305
896.698669,299
896.815125,323
896.931641,301
897.048035,324
897.164551,318
897.280884,322
897.397339,310
897.513794,315
897.630249,312
897.746582,311
897.863098,318
897.979431,328
898.095886,314
898.212341,316
898.328674,319
898.445129,323
898.561462,311
898.677795,310
898.794312,324
898.910645,317
899.026978,322
899.143433,311
899.259766,319
899.37616,324
899.492493,319
899.608765,318
899.725159,299
899.841553,318
899.957947,315
900.07428,326
900.190552,318
900.306946,307
900.423157,305
900.53949,320
900.655884,312
900.772156,326
900.888489,313
901.004822,308
901.121033,306
901.237366,324
901.353699,310
901.46991,321
901.586304,306
901.702515,310
901.818787,305
901.93512,326
902.051331,326
902.167603,330
902.283875,309
902.400085,313
902.516418,321
902.632629,328
902.74884,305
902.865112,317
902.981384,310
903.097595,324
903.213867,332
903.330017,325
903.446289,326
903.5625,330
903.67865,322
903.794922,325
903.911072,307
904.027344,318
904.143494,316
904.259705,320
904.375916,314
904.492065,320
904.608215,309
904.724426,294
904.840576,321
904.956726,318
905.072876,310
905.189087,321
905.305176,319
905.421387,315
905.537537,323
905.653687,308
905.769775,310
905.885925,326
906.002014,313
906.118164,327
906.234314,304
906.350403,323
906.466492,318
906.582642,304
906.69873,307
906.814758,322
906.930908,313
907.046936,328
907.163086,331
907.279175,329
907.395264,317
907.511353,324
907.62738,312
907.743408,327
907.859497,316
907.975525,301
908.091553,308
908.207703,304
908.32373,304
908.439758,326
908.555786,305
908.671814,321
908.787842,316
908.90387,312
909.019775,321
909.135864,310
909.251892,323
909.367859,317
909.483826,309
909.599854,329
909.715881,307
909.831848,320
909.947815,308
910.063782,317
910.179749,316
910.295776,318
910.411743,320
910.527649,327
910.643616,315
910.759583,325
910.875488,316
910.991455,319
911.107361,318
911.223267,332
911.339294,316
911.4552,304
911.571106,309
911.687073,320
911.802979,326
911.918823,313
912.034729,314
912.150635,307
912.266602,321
912.382446,317
912.498352,298
912.614197,321
912.730103,321
912.846008,317
