792.44574,319
792.56488,347
792.68396,400
792.80304,385
792.92218,335
793.041199,318
793.160339,323
793.279419,335
793.398499,330
793.517578,308
793.636658,321
793.755737,325
793.874817,363
793.993896,333
794.112976,351
794.232056,334
794.351074,331
794.470215,331
794.589233,328
794.708313,326
794.827393,329
794.946411,335
795.065552,345
795.18457,331
795.303589,335
795.422668,332
795.541687,332
795.660767,324
795.779846,334
795.898865,325
796.017883,328
796.136963,323
796.255981,332
796.375061,335
796.49408,324
796.613037,341
796.732117,336
796.851135,333
796.970154,336
797.089233,317
797.208191,319
797.327271,338
797.446228,338
797.565186,328
797.684265,333
797.803223,331
797.922241,326
798.04126,328
798.160278,331
798.279297,339
798.398315,335
798.517273,328
798.636292,321
798.75531,340
798.874268,316
798.993286,337
799.112244,322
799.231323,323
799.350281,323
799.469238,330
799.588257,326
799.707153,336
799.826111,328
799.945129,334
800.064087,326
800.183044,322
800.302063,337
800.421021,326
800.539978,321
800.658936,328
800.777893,323
800.896912,331
801.015747,328
801.134705,331
801.253723,336
801.37262,320
801.491638,324
801.610535,333
801.729492,323
801.84845,331
801.967407,338
802.086243,323
802.205261,325
802.324158,319
802.443115,329
802.562073,315
802.680969,336
802.799927,340
802.918762,328
803.037659,328
803.156677,338
803.275574,330
803.39447,347
803.513428,327
803.632263,340
803.751221,338
803.870117,334
803.989014,333
804.107971,343
804.226746,327
804.345642,338
804.4646,336
804.583496,337
804.702393,332
804.821228,327
804.940125,327
805.059021,336
805.177917,331
805.296814,340
805.415649,325
805.534546,334
805.653442,334
805.772278,334
805.891113,324
806.01001,334
806.128906,328
806.247742,338
806.366577,331
806.485413,326
806.604309,334
806.723145,331
806.84198,333
806.960876,327
807.079712,318
807.198486,328
807.317383,335
807.436218,334
807.554993,325
807.673889,351
807.792725,319
807.91156,341
808.030396,333
808.14917,328
808.268005,336
808.386841,325
808.505676,334
808.624451,341
808.743286,334
808.862122,337
808.980896,336
809.099731,320
809.218506,325
809.337341,338
809.456116,337
809.57489,336
809.693726,329
809.8125,339
809.931274,314
810.050049,335
810.168884,340
810.287659,329
810.406372,321
810.525269,342
810.643982,347
810.762756,323
810.881531,327
811.000305,340
811.11908,329
811.237854,340
811.356567,332
811.475403,341
811.594116,331
811.71283,336
811.831604,332
811.950378,331
812.069153,335
812.187927,330
812.30658,333
812.425415,329
812.544128,321
812.662781,329
812.781616,338
812.900269,341
813.019043,324
813.137756,343
813.256531,333
813.375244,327
813.493896,322
813.612671,321
813.731384,337
813.850037,320
813.96875,332
814.087524,349
814.206238,327
814.324951,335
814.443604,336
814.562256,334
814.68103,334
814.799683,337
814.918335,332
815.037109,325
815.155762,318
815.274475,335
815.393188,345
815.511841,346
815.630554,309
815.749146,331
815.867859,327
815.986572,352
816.105164,325
816.223877,335
816.342529,334
816.461182,334
816.579895,326
816.698486,339
816.817139,322
816.935791,331
817.054504,336
817.173096,327
817.291748,341
817.4104,330
817.529053,315
817.647644,336
817.766235,330
817.884949,335
818.00354,316
818.122192,334
818.240845,326
818.359436,340
818.478088,324
818.59668,323
818.715271,336
818.833923,330
818.952515,327
819.071106,320
819.189758,321
819.30835,329
819.426941,318
819.545532,325
819.664124,318
819.782715,337
819.901306,312
820.019897,324
820.138489,311
820.25708,310
820.375671,313
820.494202,306
820.612732,323
820.731384,324
820.849915,322
820.968506,323
821.087097,316
821.205627,329
821.324158,319
821.442749,329
821.561279,318
821.679871,316
821.798401,317
821.916931,327
822.035461,318
822.154053,311
822.272583,315
822.391174,310
822.509583,330
822.628174,330
822.746704,310
822.865234,332
822.983765,307
823.102295,331
823.220825,306
823.339294,313
823.457825,310
823.576355,326
823.694824,324
823.813354,330
823.931885,317
824.050354,328
824.168884,327
824.287354,323
824.405823,315
824.524353,323
824.642822,323
824.761353,319
824.879822,318
824.998291,320
825.116699,311
825.235291,316
825.353699,299
825.472168,331
825.590637,311
825.709106,319
825.827576,308
825.946045,310
826.064453,327
826.182983,323
826.301392,321
826.4198,330
826.53833,306
826.656738,320
826.775208,312
826.893677,315
827.012024,310
827.130493,326
827.248962,316
827.36731,326
827.485779,319
827.604248,313
827.722595,312
827.841064,310
827.959412,327
828.077942,317
828.196289,311
828.314636,309
828.433105,325
828.551514,327
828.669861,314
828.78833,338
828.906677,317
829.025085,318
829.143433,324
829.261841,319
829.38031,317
829.498657,340
829.617004,325
829.735413,304
829.85376,309
829.972107,317
830.090515,315
830.208862,316
830.327209,316
830.445557,314
830.563904,322
830.682312,309
830.800659,320
830.919006,328
831.037354,315
831.155701,317
831.274048,317
831.392395,328
831.51062,326
831.629028,326
831.747314,310
831.865662,316
831.984009,318
832.102356,323
832.220642,319
832.338928,306
832.457275,308
832.575623,320
832.693909,316
832.812134,313
832.930481,300
833.048828,313
833.167114,325
833.2854,323
833.403687,317
833.521973,310
833.640259,311
833.758545,319
833.876831,314
833.995056,324
834.113281,301
834.231628,321
834.349915,320
834.468201,314
834.586426,316
834.704651,309
834.822998,326
834.941162,315
835.059448,316
835.177673,314
835.295959,304
835.414246,331
835.53241,318
835.650635,325
835.768921,301
835.887146,330
836.005371,327
836.123596,317
836.241821,306
836.360046,318
836.478271,326
836.596497,325
836.714722,320
836.832886,341
836.95105,309
837.069336,316
837.1875,322
837.305725,316
837.423889,318
837.542053,316
837.660339,315
837.778503,314
837.896667,325
838.014832,310
838.132996,320
838.25116,322
838.369385,318
838.487488,320
838.605713,314
838.723877,310
838.84198,307
838.960205,319
839.078308,315
839.196472,310
839.314636,325
839.4328,333
839.550964,316
839.669067,307
839.787231,315
839.905396,315
840.023499,313
840.141602,321
840.259766,327
840.377869,319
840.495972,310
840.614136,324
840.732239,326
840.850342,308
840.968445,314
841.086548,326
841.204651,325
841.322754,321
841.440918,318
841.55896,314
841.677002,322
841.795166,322
841.913208,317
842.031311,327
842.149353,309
842.267456,319
842.385498,318
842.503601,316
842.621643,313
842.739746,314
842.857788,311
842.97583,317
843.093933,313
843.211975,335
843.330017,305
843.44812,311
843.566101,312
843.684204,302
843.802246,314
843.920227,315
844.038269,319
844.156311,317
844.274292,324
844.392395,309
844.510376,321
844.628357,316
844.74646,293
844.864441,332
844.982422,312
845.100403,311
845.218384,306
845.336426,327
845.454468,314
845.572449,328
845.69043,299
845.808411,319
845.926453,316
846.044373,322
846.162354,319
846.280396,327
846.398315,314
846.516296,314
846.634216,309
846.752197,323
846.870178,316
846.988098,312
847.106079,319
847.22406,319
847.34198,315
847.4599,336
847.577881,314
847.695801,310
847.813782,311
847.931641,316
848.049561,312
848.167603,313
848.285461,312
848.403381,319
848.521362,325
848.639221,319
848.75708,313
848.875,317
848.99292,322
849.110901,324
849.22876,316
849.34668,322
849.464539,307
849.582458,316
849.700317,318
849.818176,307
849.936096,328
850.053955,324
850.171875,305
850.289673,310
850.407593,314
850.525452,317
850.643311,324
850.761169,311
850.878967,320
850.996887,316
851.114746,305
851.232544,319
851.350403,321
851.468262,316
851.58606,322
851.703979,315
851.821777,305
851.939636,302
852.057434,301
852.175232,319
852.293091,304
852.410889,317
852.528687,310
852.646545,323
852.764343,312
852.88208,320
852.999939,317
853.117676,331
853.235535,316
853.353271,319
853.471069,324
853.588928,305
853.706604,305
853.824402,315
853.9422,307
854.059998,325
854.177734,327
854.295532,319
854.413269,318
854.531006,315
854.648804,307
854.766541,315
854.884277,306
855.002014,312
855.119751,316
855.237549,314
855.355225,311
855.473022,323
855.590698,312
855.708435,313
855.826172,321
855.943848,324
856.061646,315
856.179321,325
856.296997,310
856.414795,312
856.53241,311
856.650085,315
856.767822,319
856.885559,313
857.003174,325
857.120911,327
857.238586,316
857.356201,327
857.473938,319
857.591614,330
857.709351,321
857.826965,322
857.944641,317
858.062317,317
858.179993,316
858.297668,319
858.415283,321
858.532959,329
858.650574,320
858.768188,326
858.885803,305
859.003479,316
859.121094,322
859.23877,322
859.356384,319
859.473999,318
859.591675,320
859.709229,323
859.826843,308
859.944458,315
860.062012,315
860.179626,321
860.297302,307
860.414856,315
860.532471,302
860.650024,322
860.767639,312
860.885193,322
861.002808,322
861.120361,322
861.237976,299
861.35553,317
861.473022,319
861.590698,332
861.708191,317
861.825745,324
861.943298,312
862.060852,337
862.178406,293
862.295959,333
862.413513,311
862.531006,307
862.64856,327
862.766113,322
862.883667,313
863.00116,327
863.118713,315
863.236206,319
863.353699,301
863.471252,322
863.588745,307
863.706177,316
863.82373,299
863.941162,322
864.058716,302
864.176208,324
864.29364,323
864.411194,325
864.528687,313
864.646118,327
864.763611,319
864.881042,327
864.998535,312
865.116028,325
865.233459,311
865.350891,319
865.468384,314
865.585754,328
865.703308,309
865.820679,312
865.938171,323
866.055542,320
866.173035,324
866.290466,311
866.407837,298
866.52533,328
866.6427,305
866.760071,320
866.877563,322
866.994934,322
867.112305,327
867.229736,326
867.347107,315
867.464539,324
867.58197,316
867.699341,328
867.81665,312
867.934082,330
868.051453,312
868.168823,322
868.286194,315
868.403564,332
868.520935,308
868.638306,309
868.755676,311
868.872986,322
868.990295,305
869.107727,316
869.225037,320
869.342346,320
869.459717,304
869.577026,335
869.694336,306
869.811707,320
869.929016,317
870.046326,326
870.163635,324
870.280945,316
870.398254,310
870.515564,326
870.632812,311
870.750183,316
870.867432,327
870.984741,328
871.102051,313
871.219299,331
871.336609,312
871.453918,328
871.571106,313
871.688416,326
871.805664,327
871.922852,332
872.040222,317
872.157471,314
872.274719,306
872.391968,326
872.509155,328
872.626465,326
872.743652,322
872.860962,322
872.978149,322
873.095337,329
873.212646,321
873.329834,314
873.44696,313
873.564209,311
873.681396,311
873.798645,318
873.915894,313
874.03302,326
874.150208,314
874.267456,320
874.384583,318
874.501831,316
874.618958,307
874.736145,306
874.853333,310
874.970459,327
875.087646,323
875.204834,324
875.32196,304
875.439148,315
875.556274,321
875.673401,326
875.790527,312
875.907715,314
876.024841,320
876.141968,328
876.259094,315
876.376282,318
876.493347,307
876.610474,326
876.7276,315
876.844727,317
876.961853,323
877.078918,325
877.195984,317
877.313171,317
877.430237,312
877.547302,327
877.664368,309
877.781433,318
877.898499,317
878.015625,322
878.13269,320
878.249695,328
878.366821,309
878.483887,308
878.600952,315
878.717957,325
878.834961,314
878.952087,313
879.069092,322
879.186157,324
879.303162,324
879.420227,317
879.537231,313
879.654236,319
879.77124,316
879.888306,303
880.005249,320
880.122314,312
880.239319,319
880.356323,323
880.473328,318
880.590271,324
880.707275,321
880.824341,323
880.941284,331
881.058228,330
881.175232,312
881.292236,314
881.40918,309
881.526123,322
881.643066,318
881.760071,327
881.877014,316
881.993958,327
882.11084,306
882.227783,302
882.344727,328
882.46167,313
882.578613,308
882.695618,305
882.812439,306
882.929382,317
883.046326,314
883.163208,309
883.280151,299
883.397034,326
883.513916,319
883.630798,308
883.747742,319
883.864563,331
883.981506,322
884.098389,306
884.21521,339
884.332153,328
884.448975,321
884.565796,318
884.682678,310
884.7995,318
884.916443,322
885.033264,324
885.150085,306
885.266968,319
885.383789,308
885.500671,313
885.617493,316
885.734314,314
885.851196,308
885.967896,305
886.084717,324
886.201599,333
886.318359,319
886.435181,317
886.552002,304
886.668762,315
886.785645,310
886.902344,320
887.019165,318
887.135925,325
887.252747,316
887.369446,320
887.486267,314
887.603027,305
887.719788,311
887.836548,325
887.953247,318
888.070068,316
888.186829,310
888.303528,316
888.420288,314
888.536987,326
888.653687,308
888.770447,316
888.887146,310
889.003967,327
889.120667,315
889.237305,320
889.354065,312
889.470703,320
889.587463,316
889.704163,312
889.820862,318
889.937561,307
890.054199,298
890.170837,316
890.287598,311
890.404236,325
890.520874,315
890.637634,332
890.754211,323
890.87085,317
890.987549,311
891.104187,327
891.220886,309
891.337463,316
891.454102,317
891.57074,310
891.687378,315
891.804077,319
891.920654,322
892.037231,325
892.15387,309
892.270447,322
892.387085,315
892.503723,313
892.6203,314
892.736877,318
892.853516,310
892.970032,322
893.08667,319
893.203186,342
893.319763,311
893.43634,320
893.552917,318
893.669556,328
893.786011,323
893.902588,313
894.019165,319
894.135681,334
894.252197,319
894.368835,319
894.485291,322
894.601868,321
894.718384,302
894.8349,316
894.951355,317
895.067932,327
895.184448,312
895.300964,323
895.417419,316
895.533936,323
895.650452,306
895.766907,313
895.883423,306
895.999878,315
896.116333,330
896.232849,326
896.349304,300
896.465759,329
896.582214,325
896.698669,313
896.815125,326
896.931641,312
897.048035,315
897.164551,328
897.280884,326
897.397339,326
897.513794,313
897.630249,313
897.746582,321
897.863098,334
897.979431,308
898.095886,315
898.212341,310
898.328674,318
898.445129,316
898.561462,319
898.677795,314
898.794312,322
898.910645,324
899.026978,323
899.143433,314
899.259766,321
899.37616,308
899.492493,323
899.608765,320
899.725159,312
899.841553,320
899.957947,324
900.07428,311
900.190552,323
900.306946,317
900.423157,314
900.53949,309
900.655884,323
900.772156,310
900.888489,313
901.004822,316
901.121033,319
901.237366,324
901.353699,322
901.46991,318
901.586304,327
901.702515,316
901.818787,323
901.93512,297
902.051331,330
902.167603,318
902.283875,320
902.400085,326
902.516418,314
902.632629,312
902.74884,324
902.865112,321
902.981384,312
903.097595,321
903.213867,320
903.330017,309
903.446289,318
903.5625,310
903.67865,310
903.794922,326
903.911072,333
904.027344,310
904.143494,329
904.259705,324
904.375916,316
904.492065,309
904.608215,321
904.724426,323
904.840576,318
904.956726,309
905.072876,322
905.189087,321
905.305176,320
905.421387,316
905.537537,306
905.653687,324
905.769775,344
905.885925,320
906.002014,305
906.118164,307
906.234314,323
906.350403,306
906.466492,329
906.582642,309
906.69873,324
906.814758,307
906.930908,319
907.046936,315
907.163086,318
907.279175,326
907.395264,333
907.511353,313
907.62738,329
907.743408,332
907.859497,322
907.975525,320
908.091553,329
908.207703,315
908.32373,340
908.439758,311
908.555786,318
908.671814,317
908.787842,312
908.90387,310
909.019775,298
909.135864,320
909.251892,327
909.367859,316
909.483826,315
909.599854,321
909.715881,304
909.831848,315
909.947815,328
910.063782,322
910.179749,327
910.295776,318
910.411743,315
910.527649,310
910.643616,311
910.759583,318
910.875488,320
910.991455,317
911.107361,309
911.223267,318
911.339294,311
911.4552,308
911.571106,328
911.687073,317
911.802979,327
911.918823,322
912.034729,331
912.150635,304
912.266602,342
912.382446,329
912.498352,324
912.614197,319
912.730103,318
912.846008,313
792.44574,309
792.56488,355
792.68396,393
792.80304,386
792.92218,342
793.041199,323
793.160339,324
793.279419,350
793.398499,329
793.517578,321
793.636658,317
793.755737,345
793.874817,353
793.993896,330
794.112976,338
794.232056,318
794.351074,328
794.470215,331
794.589233,339
794.708313,330
794.827393,328
794.946411,339
795.065552,343
795.18457,342
795.303589,324
795.422668,326
795.541687,334
795.660767,329
795.779846,330
795.898865,321
796.017883,322
796.136963,334
796.255981,317
796.375061,329
796.49408,325
796.613037,328
796.732117,330
796.851135,326
796.970154,325
797.089233,328
797.208191,331
797.327271,329
797.446228,328
797.565186,330
797.684265,338
797.803223,329
797.922241,340
798.04126,340
798.160278,333
798.279297,339
798.398315,336
798.517273,347
798.636292,324
798.75531,339
798.874268,327
798.993286,313
799.112244,346
799.231323,332
799.350281,324
799.469238,327
799.588257,330
799.707153,339
799.826111,319
799.945129,331
800.064087,315
800.183044,329
800.302063,329
800.421021,330
800.539978,347
800.658936,333
800.777893,330
800.896912,333
801.015747,328
801.134705,334
801.253723,336
801.37262,355
801.491638,332
801.610535,336
801.729492,349
801.84845,319
801.967407,328
802.086243,319
802.205261,331
802.324158,326
802.443115,339
802.562073,323
802.680969,351
802.799927,323
802.918762,345
803.037659,318
803.156677,332
803.275574,339
803.39447,339
803.513428,336
803.632263,319
803.751221,323
803.870117,338
803.989014,328
804.107971,341
804.226746,310
804.345642,338
804.4646,318
804.583496,334
804.702393,348
804.821228,332
804.940125,321
805.059021,352
805.177917,332
805.296814,332
805.415649,328
805.534546,323
805.653442,313
805.772278,333
805.891113,332
806.01001,329
806.128906,324
806.247742,327
806.366577,332
806.485413,318
806.604309,330
806.723145,323
806.84198,326
806.960876,321
807.079712,336
807.198486,334
807.317383,326
807.436218,335
807.554993,337
807.673889,331
807.792725,329
807.91156,340
808.030396,325
808.14917,329
808.268005,338
808.386841,335
808.505676,329
808.624451,333
808.743286,329
808.862122,324
808.980896,335
809.099731,330
809.218506,346
809.337341,336
809.456116,322
809.57489,322
809.693726,335
809.8125,333
809.931274,321
810.050049,334
810.168884,325
810.287659,335
810.406372,329
810.525269,345
810.643982,340
810.762756,336
810.881531,335
811.000305,315
811.11908,343
811.237854,336
811.356567,339
811.475403,331
811.594116,318
811.71283,343
811.831604,334
811.950378,344
812.069153,333
812.187927,341
812.30658,326
812.425415,343
812.544128,334
812.662781,334
812.781616,336
812.900269,342
813.019043,347
813.137756,317
813.256531,330
813.375244,335
813.493896,322
813.612671,325
813.731384,341
813.850037,325
813.96875,337
814.087524,334
814.206238,335
814.324951,338
814.443604,328
814.562256,326
814.68103,320
814.799683,343
814.918335,327
815.037109,327
815.155762,351
815.274475,337
815.393188,341
815.511841,343
815.630554,339
815.749146,335
815.867859,332
815.986572,322
816.105164,334
816.223877,325
816.342529,340
816.461182,328
816.579895,335
816.698486,332
816.817139,321
816.935791,344
817.054504,332
817.173096,330
817.291748,341
817.4104,334
817.529053,335
817.647644,320
817.766235,335
817.884949,324
818.00354,330
818.122192,324
818.240845,333
818.359436,331
818.478088,326
818.59668,323
818.715271,325
818.833923,319
818.952515,330
819.071106,321
819.189758,314
819.30835,319
819.426941,327
819.545532,317
819.664124,326
819.782715,332
819.901306,328
820.019897,324
820.138489,325
820.25708,328
820.375671,327
820.494202,315
820.612732,313
820.731384,317
820.849915,334
820.968506,323
821.087097,316
821.205627,335
821.324158,335
821.442749,312
821.561279,332
821.679871,314
821.798401,315
821.916931,311
822.035461,321
822.154053,324
822.272583,332
822.391174,308
822.509583,330
822.628174,316
822.746704,344
822.865234,316
822.983765,308
823.102295,313
823.220825,324
823.339294,314
823.457825,317
823.576355,334
823.694824,314
823.813354,317
823.931885,328
824.050354,332
824.168884,312
824.287354,316
824.405823,330
824.524353,314
824.642822,320
824.761353,305
824.879822,320
824.998291,327
825.116699,325
825.235291,324
825.353699,340
825.472168,318
825.590637,326
825.709106,311
825.827576,309
825.946045,325
826.064453,320
826.182983,325
826.301392,314
826.4198,323
826.53833,317
826.656738,329
826.775208,317
826.893677,321
827.012024,323
827.130493,316
827.248962,325
827.36731,315
827.485779,312
827.604248,315
827.722595,320
827.841064,332
827.959412,320
828.077942,322
828.196289,319
828.314636,321
828.433105,318
828.551514,313
828.669861,323
828.78833,311
828.906677,313
829.025085,317
829.143433,334
829.261841,316
829.38031,313
829.498657,316
829.617004,315
829.735413,317
829.85376,323
829.972107,330
830.090515,326
830.208862,327
830.327209,323
830.445557,301
830.563904,322
830.682312,303
830.800659,327
830.919006,321
831.037354,312
831.155701,315
831.274048,331
831.392395,323
831.51062,318
831.629028,326
831.747314,319
831.865662,323
831.984009,304
832.102356,313
832.220642,306
832.338928,310
832.457275,318
832.575623,326
832.693909,322
832.812134,310
832.930481,308
833.048828,321
833.167114,319
833.2854,325
833.403687,304
833.521973,317
833.640259,314
833.758545,322
833.876831,316
833.995056,323
834.113281,327
834.231628,312
834.349915,308
834.468201,316
834.586426,315
834.704651,322
834.822998,334
834.941162,304
835.059448,321
835.177673,312
835.295959,317
835.414246,320
835.53241,323
835.650635,308
835.768921,328
835.887146,319
836.005371,320
836.123596,325
836.241821,303
836.360046,312
836.478271,327
836.596497,326
836.714722,323
836.832886,311
836.95105,316
837.069336,317
837.1875,319
837.305725,318
837.423889,319
837.542053,320
837.660339,316
837.778503,321
837.896667,325
838.014832,323
838.132996,316
838.25116,316
838.369385,327
838.487488,328
838.605713,319
838.723877,309
838.84198,324
838.960205,305
839.078308,326
839.196472,324
839.314636,326
839.4328,316
839.550964,322
839.669067,324
839.787231,315
839.905396,315
840.023499,320
840.141602,316
840.259766,320
840.377869,314
840.495972,317
840.614136,317
840.732239,315
840.850342,312
840.968445,329
841.086548,320
841.204651,318
841.322754,314
841.440918,319
841.55896,316
841.677002,313
841.795166,298
841.913208,308
842.031311,327
842.149353,332
842.267456,312
842.385498,340
842.503601,313
842.621643,336
842.739746,308
842.857788,305
842.97583,319
843.093933,318
843.211975,316
843.330017,312
843.44812,324
843.566101,322
843.684204,311
843.802246,319
843.920227,317
844.038269,308
844.156311,330
844.274292,317
844.392395,315
844.510376,317
844.628357,319
844.74646,321
844.864441,318
844.982422,329
845.100403,311
845.218384,318
845.336426,316
845.454468,318
845.572449,323
845.69043,322
845.808411,313
845.926453,310
846.044373,333
846.162354,334
846.280396,308
846.398315,320
846.516296,310
846.634216,314
846.752197,322
846.870178,327
846.988098,330
847.106079,312
847.22406,312
847.34198,325
847.4599,335
847.577881,310
847.695801,325
847.813782,319
847.931641,321
848.049561,321
848.167603,309
848.285461,320
848.403381,321
848.521362,331
848.639221,329
848.75708,321
848.875,329
848.99292,326
849.110901,315
849.22876,322
849.34668,324
849.464539,312
849.582458,323
849.700317,314
849.818176,310
849.936096,314
850.053955,302
850.171875,305
850.289673,324
850.407593,312
850.525452,313
850.643311,333
850.761169,318
850.878967,333
850.996887,310
851.114746,318
851.232544,318
851.350403,328
851.468262,321
851.58606,329
851.703979,305
851.821777,317
851.939636,321
852.057434,314
852.175232,315
852.293091,315
852.410889,321
852.528687,310
852.646545,319
852.764343,325
852.88208,318
852.999939,333
853.117676,311
853.235535,311
853.353271,328
853.471069,325
853.588928,318
853.706604,320
853.824402,325
853.9422,309
854.059998,323
854.177734,313
854.295532,316
854.413269,317
854.531006,319
854.648804,315
854.766541,327
854.884277,315
855.002014,328
855.119751,307
855.237549,319
855.355225,320
855.473022,310
855.590698,306
855.708435,315
855.826172,301
855.943848,305
856.061646,318
856.179321,326
856.296997,309
856.414795,321
856.53241,325
856.650085,307
856.767822,322
856.885559,320
857.003174,321
857.120911,327
857.238586,317
857.356201,312
857.473938,317
857.591614,325
857.709351,314
857.826965,331
857.944641,319
858.062317,320
858.179993,321
858.297668,316
858.415283,318
858.532959,306
858.650574,313
858.768188,318
858.885803,316
859.003479,319
859.121094,317
859.23877,321
859.356384,334
859.473999,312
859.591675,330
859.709229,328
859.826843,323
859.944458,318
860.062012,316
860.179626,316
860.297302,317
860.414856,320
860.532471,323
860.650024,314
860.767639,312
860.885193,324
861.002808,308
861.120361,315
861.237976,322
861.35553,308
861.473022,322
861.590698,324
861.708191,321
861.825745,317
861.943298,323
862.060852,318
862.178406,309
862.295959,321
862.413513,311
862.531006,318
862.64856,324
862.766113,311
862.883667,329
863.00116,331
863.118713,339
863.236206,315
863.353699,311
863.471252,325
863.588745,317
863.706177,324
863.82373,323
863.941162,315
864.058716,319
864.176208,316
864.29364,322
864.411194,313
864.528687,327
864.646118,308
864.763611,312
864.881042,313
864.998535,316
865.116028,307
865.233459,315
865.350891,314
865.468384,336
865.585754,317
865.703308,320
865.820679,309
865.938171,318
866.055542,314
866.173035,308
866.290466,327
866.407837,312
866.52533,312
866.6427,322
866.760071,313
866.877563,324
866.994934,315
867.112305,319
867.229736,312
867.347107,329
867.464539,324
867.58197,322
867.699341,321
867.81665,329
867.934082,321
868.051453,312
868.168823,305
868.286194,317
868.403564,325
868.520935,328
868.638306,321
868.755676,303
868.872986,321
868.990295,307
869.107727,308
869.225037,319
869.342346,317
869.459717,326
869.577026,321
869.694336,329
869.811707,316
869.929016,315
870.046326,333
870.163635,320
870.280945,315
870.398254,325
870.515564,321
870.632812,322
870.750183,316
870.867432,330
870.984741,315
871.102051,314
871.219299,316
871.336609,313
871.453918,325
871.571106,327
871.688416,303
871.805664,323
871.922852,323
872.040222,328
872.157471,308
872.274719,335
872.391968,312
872.509155,308
872.626465,308
872.743652,322
872.860962,316
872.978149,326
873.095337,308
873.212646,324
873.329834,323
873.44696,309
873.564209,319
873.681396,330
873.798645,323
873.915894,322
874.03302,300
874.150208,327
874.267456,318
874.384583,318
874.501831,313
874.618958,331
874.736145,317
874.853333,322
874.970459,317
875.087646,310
875.204834,315
875.32196,326
875.439148,319
875.556274,313
875.673401,320
875.790527,322
875.907715,310
876.024841,323
876.141968,306
876.259094,312
876.376282,314
876.493347,326
876.610474,305
876.7276,330
876.844727,304
876.961853,326
877.078918,315
877.195984,315
877.313171,333
877.430237,328
877.547302,297
877.664368,339
877.781433,319
877.898499,307
878.015625,307
878.13269,324
878.249695,319
878.366821,335
878.483887,313
878.600952,300
878.717957,301
878.834961,315
878.952087,315
879.069092,315
879.186157,312
879.303162,312
879.420227,317
879.537231,329
879.654236,309
879.77124,319
879.888306,317
880.005249,329
880.122314,325
880.239319,321
880.356323,321
880.473328,319
880.590271,306
880.707275,319
880.824341,324
880.941284,323
881.058228,316
881.175232,315
881.292236,318
881.40918,318
881.526123,318
881.643066,320
881.760071,318
881.877014,320
881.993958,309
882.11084,305
882.227783,322
882.344727,310
882.46167,320
882.578613,312
882.695618,312
882.812439,311
882.929382,319
883.046326,314
883.163208,324
883.280151,316
883.397034,321
883.513916,321
883.630798,313
883.747742,332
883.864563,319
883.981506,316
884.098389,320
884.21521,313
884.332153,324
884.448975,300
884.565796,300
884.682678,328
884.7995,323
884.916443,313
885.033264,328
885.150085,311
885.266968,311
885.383789,312
885.500671,325
885.617493,327
885.734314,321
885.851196,330
885.967896,327
886.084717,324
886.201599,317
886.318359,316
886.435181,315
886.552002,325
886.668762,326
886.785645,308
886.902344,311
887.019165,325
887.135925,309
887.252747,317
887.369446,313
887.486267,316
887.603027,324
887.719788,324
887.836548,318
887.953247,315
888.070068,326
888.186829,313
888.303528,326
888.420288,318
888.536987,320
888.653687,311
888.770447,313
888.887146,327
889.003967,325
889.120667,334
889.237305,322
889.354065,316
889.470703,320
889.587463,318
889.704163,328
889.820862,313
889.937561,313
890.054199,329
890.170837,324
890.287598,324
890.404236,311
890.520874,315
890.637634,314
890.754211,319
890.87085,304
890.987549,320
891.104187,327
891.220886,329
891.337463,302
891.454102,316
891.57074,306
891.687378,324
891.804077,325
891.920654,323
892.037231,326
892.15387,321
892.270447,324
892.387085,322
892.503723,319
892.6203,321
892.736877,321
892.853516,325
892.970032,316
893.08667,322
893.203186,312
893.319763,312
893.43634,337
893.552917,322
893.669556,322
893.786011,334
893.902588,313
894.019165,327
894.135681,310
894.252197,298
894.368835,315
894.485291,313
894.601868,321
894.718384,313
894.8349,327
894.951355,317
895.067932,313
895.184448,324
895.300964,301
895.417419,316
895.533936,319
895.650452,318
895.766907,318
895.883423,314
895.999878,314
896.116333,330
896.232849,309
896.349304,319
896.465759,315
896.582214,315
896.698669,311
896.815125,319
896.931641,321
897.048035,305
897.164551,319
897.280884,315
897.397339,326
897.513794,322
897.630249,324
897.746582,334
897.863098,316
897.979431,321
898.095886,332
898.212341,322
898.328674,320
898.445129,327
898.561462,317
898.677795,325
898.794312,325
898.910645,326
899.026978,326
899.143433,324
899.259766,317
899.37616,312
899.492493,313
899.608765,335
899.725159,326
899.841553,311
899.957947,328
900.07428,318
900.190552,324
900.306946,316
900.423157,325
900.53949,308
900.655884,315
900.772156,315
900.888489,317
901.004822,328
901.121033,318
901.237366,338
901.353699,314
901.46991,321
901.586304,312
901.702515,320
901.818787,318
901.93512,329
902.051331,318
902.167603,321
902.283875,317
902.400085,328
902.516418,325
902.632629,324
902.74884,321
902.865112,324
902.981384,317
903.097595,319
903.213867,316
903.330017,313
903.446289,313
903.5625,327
903.67865,311
903.794922,322
903.911072,330
904.027344,311
904.143494,315
904.259705,322
904.375916,317
904.492065,324
904.608215,307
904.724426,331
904.840576,325
904.956726,316
905.072876,326
905.189087,327
905.305176,316
905.421387,325
905.537537,312
905.653687,314
905.769775,312
905.885925,334
906.002014,316
906.118164,308
906.234314,331
906.350403,308
906.466492,327
906.582642,318
906.69873,317
906.814758,323
906.930908,312
907.046936,314
907.163086,322
907.279175,318
907.395264,307
907.511353,316
907.62738,316
907.743408,326
907.859497,318
907.975525,319
908.091553,318
908.207703,319
908.32373,332
908.439758,331
908.555786,312
908.671814,320
908.787842,324
908.90387,317
909.019775,312
909.135864,317
909.251892,301
909.367859,321
909.483826,309
909.599854,316
909.715881,328
909.831848,309
909.947815,324
910.063782,327
910.179749,312
910.295776,323
910.411743,313
910.527649,331
910.643616,327
910.759583,310
910.875488,327
910.991455,327
911.107361,318
911.223267,333
911.339294,320
911.4552,326
911.571106,315
911.687073,331
911.802979,329
911.918823,327
912.034729,326
912.150635,327
912.266602,304
912.382446,315
912.498352,307
912.614197,318
912.730103,319
912.846008,320
792.44574,305
792.56488,365
792.68396,388
792.80304,387
792.92218,334
793.041199,333
793.160339,309
793.279419,337
793.398499,324
793.517578,301
793.636658,326
793.755737,328
793.874817,343
793.993896,341
794.112976,340
794.232056,325
794.351074,331
794.470215,328
794.589233,330
794.708313,324
794.827393,316
794.946411,345
795.065552,335
795.18457,333
795.303589,327
795.422668,343
795.541687,328
795.660767,338
795.779846,330
795.898865,330
796.017883,331
796.136963,315
796.255981,330
796.375061,327
796.49408,333
796.613037,313
796.732117,330
796.851135,334
796.970154,333
797.089233,333
797.208191,327
797.327271,326
797.446228,333
797.565186,332
797.684265,327
797.803223,334
797.922241,317
798.04126,331
798.160278,328
798.279297,318
798.398315,316
798.517273,333
798.636292,328
798.75531,337
798.874268,352
798.993286,326
799.112244,341
799.231323,321
799.350281,320
799.469238,318
799.588257,320
799.707153,333
799.826111,327
799.945129,339
800.064087,329
800.183044,333
800.302063,333
800.421021,319
800.539978,333
800.658936,342
800.777893,330
800.896912,324
801.015747,330
801.134705,336
801.253723,324
801.37262,328
801.491638,330
801.610535,328
801.729492,326
801.84845,323
801.967407,343
802.086243,311
802.205261,336
802.324158,327
802.443115,339
802.562073,314
802.680969,341
802.799927,301
802.918762,346
803.037659,339
803.156677,322
803.275574,334
803.39447,344
803.513428,321
803.632263,326
803.751221,335
803.870117,333
803.989014,336
804.107971,326
804.226746,329
804.345642,322
804.4646,323
804.583496,338
804.702393,334
804.821228,322
804.940125,322
805.059021,319
805.177917,330
805.296814,318
805.415649,325
805.534546,316
805.653442,333
805.772278,329
805.891113,326
806.01001,344
806.128906,335
806.247742,336
806.366577,326
806.485413,331
806.604309,342
806.723145,328
806.84198,325
806.960876,331
807.079712,344
807.198486,338
807.317383,331
807.436218,336
807.554993,326
807.673889,337
807.792725,334
807.91156,320
808.030396,328
808.14917,339
808.268005,339
808.386841,324
808.505676,332
808.624451,328
808.743286,329
808.862122,327
808.980896,330
809.099731,321
809.218506,329
809.337341,322
809.456116,335
809.57489,335
809.693726,319
809.8125,329
809.931274,336
810.050049,333
810.168884,335
810.287659,326
810.406372,334
810.525269,331
810.643982,335
810.762756,328
810.881531,314
811.000305,330
811.11908,341
811.237854,324
811.356567,337
811.475403,331
811.594116,343
811.71283,333
811.831604,336
811.950378,335
812.069153,340
812.187927,328
812.30658,332
812.425415,335
812.544128,324
812.662781,335
812.781616,326
812.900269,326
813.019043,326
813.137756,341
813.256531,327
813.375244,344
813.493896,334
813.612671,349
813.731384,332
813.850037,326
813.96875,324
814.087524,323
814.206238,341
814.324951,327
814.443604,332
814.562256,337
814.68103,340
814.799683,334
814.918335,330
815.037109,320
815.155762,344
815.274475,313
815.393188,340
815.511841,332
815.630554,337
815.749146,335
815.867859,333
815.986572,320
816.105164,334
816.223877,318
816.342529,332
816.461182,329
816.579895,321
816.698486,326
816.817139,339
816.935791,324
817.054504,338
817.173096,320
817.291748,333
817.4104,334
817.529053,329
817.647644,319
817.766235,325
817.884949,333
818.00354,316
818.122192,319
818.240845,326
818.359436,316
818.478088,340
818.59668,323
818.715271,324
818.833923,322
818.952515,323
819.071106,315
819.189758,320
819.30835,308
819.426941,315
819.545532,327
819.664124,324
819.782715,316
819.901306,333
820.019897,320
820.138489,325
820.25708,322
820.375671,330
820.494202,313
820.612732,323
820.731384,330
820.849915,323
820.968506,305
821.087097,315
821.205627,312
821.324158,319
821.442749,319
821.561279,320
821.679871,303
821.798401,324
821.916931,322
822.035461,318
822.154053,322
822.272583,331
822.391174,318
822.509583,325
822.628174,299
822.746704,320
822.865234,307
822.983765,317
823.102295,318
823.220825,329
823.339294,321
823.457825,322
823.576355,318
823.694824,323
823.813354,317
823.931885,321
824.050354,324
824.168884,317
824.287354,320
824.405823,331
824.524353,320
824.642822,316
824.761353,309
824.879822,333
824.998291,317
825.116699,319
825.235291,321
825.353699,321
825.472168,319
825.590637,318
825.709106,312
825.827576,320
825.946045,313
826.064453,330
826.182983,306
826.301392,322
826.4198,312
826.53833,310
826.656738,335
826.775208,310
826.893677,311
827.012024,318
827.130493,317
827.248962,315
827.36731,313
827.485779,320
827.604248,320
827.722595,304
827.841064,324
827.959412,311
828.077942,319
828.196289,329
828.314636,316
828.433105,318
828.551514,311
828.669861,315
828.78833,310
828.906677,312
829.025085,316
829.143433,320
829.261841,316
829.38031,305
829.498657,304
829.617004,309
829.735413,334
829.85376,317
829.972107,311
830.090515,325
830.208862,313
830.327209,312
830.445557,327
830.563904,317
830.682312,315
830.800659,325
830.919006,313
831.037354,314
831.155701,330
831.274048,306
831.392395,314
831.51062,317
831.629028,319
831.747314,322
831.865662,318
831.984009,324
832.102356,317
832.220642,316
832.338928,305
832.457275,314
832.575623,322
832.693909,319
832.812134,321
832.930481,320
833.048828,301
833.167114,309
833.2854,309
833.403687,313
833.521973,305
833.640259,313
833.758545,323
833.876831,310
833.995056,317
834.113281,335
834.231628,319
834.349915,320
834.468201,315
834.586426,311
834.704651,327
834.822998,315
834.941162,308
835.059448,312
835.177673,309
835.295959,318
835.414246,315
835.53241,332
835.650635,325
835.768921,316
835.887146,310
836.005371,325
836.123596,316
836.241821,314
836.360046,315
836.478271,321
836.596497,328
836.714722,326
836.832886,306
836.95105,324
837.069336,312
837.1875,308
837.305725,322
837.423889,325
837.542053,306
837.660339,319
837.778503,321
837.896667,312
838.014832,314
838.132996,312
838.25116,317
838.369385,309
838.487488,322
838.605713,317
838.723877,324
838.84198,316
838.960205,312
839.078308,313
839.196472,323
839.314636,302
839.4328,323
839.550964,324
839.669067,331
839.787231,322
839.905396,304
840.023499,305
840.141602,316
840.259766,307
840.377869,322
840.495972,308
840.614136,313
840.732239,313
840.850342,319
840.968445,324
841.086548,310
841.204651,335
841.322754,326
841.440918,315
841.55896,313
841.677002,317
841.795166,322
841.913208,320
842.031311,309
842.149353,302
842.267456,326
842.385498,309
842.503601,311
842.621643,317
842.739746,313
842.857788,316
842.97583,314
843.093933,315
843.211975,323
843.330017,322
843.44812,324
843.566101,321
843.684204,313
843.802246,317
843.920227,314
844.038269,313
844.156311,317
844.274292,313
844.392395,309
844.510376,315
844.628357,315
844.74646,318
844.864441,317
844.982422,312
845.100403,316
845.218384,324
845.336426,304
845.454468,314
845.572449,328
845.69043,313
845.808411,315
845.926453,307
846.044373,322
846.162354,332
846.280396,309
846.398315,332
846.516296,306
846.634216,311
846.752197,310
846.870178,304
846.988098,311
847.106079,313
847.22406,321
847.34198,324
847.4599,306
847.577881,311
847.695801,326
847.813782,306
847.931641,311
848.049561,322
848.167603,314
848.285461,305
848.403381,316
848.521362,318
848.639221,308
848.75708,309
848.875,326
848.99292,313
849.110901,317
849.22876,326
849.34668,301
849.464539,316
849.582458,312
849.700317,321
849.818176,308
849.936096,300
850.053955,315
850.171875,330
850.289673,313
850.407593,324
850.525452,301
850.643311,336
850.761169,303
850.878967,314
850.996887,318
851.114746,313
851.232544,328
851.350403,311
851.468262,316
851.58606,323
851.703979,309
851.821777,305
851.939636,310
852.057434,305
852.175232,305
852.293091,323
852.410889,306
852.528687,310
852.646545,312
852.764343,325
852.88208,310
852.999939,304
853.117676,330
853.235535,305
853.353271,313
853.471069,330
853.588928,314
853.706604,316
853.824402,318
853.9422,306
854.059998,329
854.177734,324
854.295532,318
854.413269,313
854.531006,325
854.648804,322
854.766541,311
854.884277,308
855.002014,322
855.119751,327
855.237549,323
855.355225,306
855.473022,317
855.590698,325
855.708435,323
855.826172,327
855.943848,316
856.061646,314
856.179321,308
856.296997,308
856.414795,304
856.53241,313
856.650085,305
856.767822,314
856.885559,320
857.003174,312
857.120911,305
857.238586,315
857.356201,311
857.473938,329
857.591614,329
857.709351,321
857.826965,312
857.944641,326
858.062317,304
858.179993,320
858.297668,324
858.415283,316
858.532959,314
858.650574,314
858.768188,313
858.885803,318
859.003479,317
859.121094,316
859.23877,316
859.356384,323
859.473999,322
859.591675,336
859.709229,316
859.826843,328
859.944458,313
860.062012,322
860.179626,324
860.297302,314
860.414856,309
860.532471,307
860.650024,322
860.767639,328
860.885193,316
861.002808,315
861.120361,315
861.237976,313
861.35553,303
861.473022,325
861.590698,308
861.708191,317
861.825745,303
861.943298,306
862.060852,314
862.178406,323
862.295959,314
862.413513,322
862.531006,312
862.64856,317
862.766113,310
862.883667,318
863.00116,318
863.118713,328
863.236206,323
863.353699,327
863.471252,296
863.588745,307
863.706177,307
863.82373,318
863.941162,323
864.058716,316
864.176208,321
864.29364,306
864.411194,297
864.528687,326
864.646118,303
864.763611,296
864.881042,317
864.998535,330
865.116028,314
865.233459,315
865.350891,323
865.468384,310
865.585754,307
865.703308,323
865.820679,320
865.938171,316
866.055542,315
866.173035,322
866.290466,316
866.407837,323
866.52533,315
866.6427,322
866.760071,311
866.877563,319
866.994934,309
867.112305,322
867.229736,317
867.347107,312
867.464539,326
867.58197,322
867.699341,321
867.81665,320
867.934082,317
868.051453,321
868.168823,317
868.286194,325
868.403564,314
868.520935,315
868.638306,312
868.755676,317
868.872986,308
868.990295,310
869.107727,316
869.225037,313
869.342346,310
869.459717,318
869.577026,314
869.694336,323
869.811707,315
869.929016,323
870.046326,315
870.163635,323
870.280945,320
870.398254,318
870.515564,314
870.632812,320
870.750183,319
870.867432,320
870.984741,319
871.102051,325
871.219299,304
871.336609,319
871.453918,315
871.571106,327
871.688416,307
871.805664,314
871.922852,317
872.040222,315
872.157471,316
872.274719,326
872.391968,313
872.509155,318
872.626465,323
872.743652,309
872.860962,310
872.978149,336
873.095337,322
873.212646,318
873.329834,292
873.44696,312
873.564209,309
873.681396,319
873.798645,321
873.915894,312
874.03302,312
874.150208,318
874.267456,317
874.384583,329
874.501831,317
874.618958,319
874.736145,313
874.853333,315
874.970459,318
875.087646,318
875.204834,323
875.32196,319
875.439148,332
875.556274,315
875.673401,311
875.790527,313
875.907715,322
876.024841,313
876.141968,310
876.259094,319
876.376282,321
876.493347,321
876.610474,309
876.7276,316
876.844727,322
876.961853,317
877.078918,314
877.195984,322
877.313171,319
877.430237,326
877.547302,317
877.664368,318
877.781433,318
877.898499,325
878.015625,315
878.13269,313
878.249695,301
878.366821,315
878.483887,317
878.600952,312
878.717957,317
878.834961,327
878.952087,320
879.069092,317
879.186157,327
879.303162,327
879.420227,312
879.537231,319
879.654236,324
879.77124,313
879.888306,318
880.005249,312
880.122314,319
880.239319,327
880.356323,317
880.473328,319
880.590271,310
880.707275,312
880.824341,318
880.941284,316
881.058228,300
881.175232,323
881.292236,331
881.40918,306
881.526123,320
881.643066,320
881.760071,307
881.877014,317
881.993958,323
882.11084,320
882.227783,318
882.344727,317
882.46167,319
882.578613,314
882.695618,316
882.812439,310
882.929382,313
883.046326,331
883.163208,317
883.280151,311
883.397034,306
883.513916,315
883.630798,308
883.747742,304
883.864563,316
883.981506,303
884.098389,326
884.21521,319
884.332153,319
884.448975,312
884.565796,308
884.682678,320
884.7995,313
884.916443,323
885.033264,311
885.150085,325
885.266968,314
885.383789,319
885.500671,316
885.617493,322
885.734314,314
885.851196,327
885.967896,307
886.084717,321
886.201599,303
886.318359,307
886.435181,314
886.552002,320
886.668762,320
886.785645,306
886.902344,309
887.019165,302
887.135925,312
887.252747,321
887.369446,312
887.486267,305
887.603027,308
887.719788,312
887.836548,306
887.953247,321
888.070068,308
888.186829,318
888.303528,310
888.420288,312
888.536987,297
888.653687,328
888.770447,314
888.887146,321
889.003967,325
889.120667,319
889.237305,311
889.354065,324
889.470703,312
889.587463,322
889.704163,324
889.820862,312
889.937561,322
890.054199,308
890.170837,320
890.287598,315
890.404236,312
890.520874,307
890.637634,306
890.754211,315
890.87085,325
890.987549,310
891.104187,327
891.220886,324
891.337463,317
891.454102,314
891.57074,300
891.687378,321
891.804077,308
891.920654,323
892.037231,332
892.15387,322
892.270447,325
892.387085,312
892.503723,326
892.6203,316
892.736877,310
892.853516,327
892.970032,317
893.08667,322
893.203186,332
893.319763,313
893.43634,318
893.552917,330
893.669556,319
893.786011,307
893.902588,307
894.019165,320
894.135681,303
894.252197,326
894.368835,321
894.485291,318
894.601868,321
894.718384,321
894.8349,320
894.951355,319
895.067932,314
895.184448,323
895.300964,322
895.417419,321
895.533936,312
895.650452,310
895.766907,316
895.883423,319
895.999878,326
896.116333,321
896.232849,305
896.349304,325
896.465759,326
896.582214,325
896.698669,321
896.815125,323
896.931641,312
897.048035,324
897.164551,322
897.280884,327
897.397339,323
897.513794,317
897.630249,311
897.746582,342
897.863098,318
897.979431,316
898.095886,323
898.212341,319
898.328674,308
898.445129,322
898.561462,309
898.677795,318
898.794312,314
898.910645,315
899.026978,315
899.143433,316
899.259766,309
899.37616,318
899.492493,303
899.608765,316
899.725159,321
899.841553,325
899.957947,310
900.07428,330
900.190552,303
900.306946,321
900.423157,320
900.53949,310
900.655884,315
900.772156,316
900.888489,315
901.004822,321
901.121033,304
901.237366,327
901.353699,318
901.46991,333
901.586304,312
901.702515,318
901.818787,322
901.93512,315
902.051331,315
902.167603,334
902.283875,307
902.400085,314
902.516418,315
902.632629,312
902.74884,316
902.865112,324
902.981384,309
903.097595,316
903.213867,305
903.330017,318
903.446289,307
903.5625,310
903.67865,334
903.794922,315
903.911072,314
904.027344,314
904.143494,320
904.259705,303
904.375916,318
904.492065,321
904.608215,322
904.724426,313
904.840576,310
904.956726,312
905.072876,318
905.189087,333
905.305176,319
905.421387,336
905.537537,321
905.653687,308
905.769775,313
905.885925,332
906.002014,317
906.118164,322
906.234314,308
906.350403,314
906.466492,326
906.582642,312
906.69873,316
906.814758,326
906.930908,313
907.046936,320
907.163086,323
907.279175,318
907.395264,322
907.511353,322
907.62738,308
907.743408,315
907.859497,323
907.975525,322
908.091553,313
908.207703,330
908.32373,327
908.439758,323
908.555786,320
908.671814,314
908.787842,319
908.90387,328
909.019775,319
909.135864,314
909.251892,295
909.367859,314
909.483826,320
909.599854,318
909.715881,323
909.831848,318
909.947815,335
910.063782,312
910.179749,299
910.295776,323
910.411743,319
910.527649,325
910.643616,312
910.759583,318
910.875488,317
910.991455,327
911.107361,316
911.223267,319
911.339294,309
911.4552,317
911.571106,319
911.687073,323
911.802979,332
911.918823,314
912.034729,311
912.150635,319
912.266602,323
912.382446,304
912.498352,320
912.614197,325
912.730103,319
912.846008,327
