792.44574,331
792.56488,376
792.68396,413
792.80304,385
792.92218,362
793.041199,329
793.160339,334
793.279419,364
793.398499,347
793.517578,322
793.636658,325
793.755737,340
793.874817,366
793.993896,339
794.112976,357
794.232056,339
794.351074,343
794.470215,345
794.589233,334
794.708313,323
794.827393,337
794.946411,321
795.065552,351
795.18457,345
795.303589,334
795.422668,325
795.541687,326
795.660767,342
795.779846,327
795.898865,346
796.017883,344
796.136963,328
796.255981,338
796.375061,322
796.49408,338
796.613037,318
796.732117,353
796.851135,332
796.970154,335
797.089233,317
797.208191,334
797.327271,327
797.446228,326
797.565186,331
797.684265,332
797.803223,332
797.922241,346
798.04126,326
798.160278,335
798.279297,332
798.398315,337
798.517273,332
798.636292,324
798.75531,348
798.874268,331
798.993286,317
799.112244,334
799.231323,323
799.350281,318
799.469238,320
799.588257,324
799.707153,320
799.826111,327
799.945129,331
800.064087,341
800.183044,314
800.302063,343
800.421021,323
800.539978,315
800.658936,349
800.777893,332
800.896912,336
801.015747,323
801.134705,327
801.253723,318
801.37262,323
801.491638,339
801.610535,317
801.729492,337
801.84845,329
801.967407,322
802.086243,333
802.205261,323
802.324158,310
802.443115,332
802.562073,308
802.680969,332
802.799927,332
802.918762,328
803.037659,340
803.156677,327
803.275574,323
803.39447,320
803.513428,335
803.632263,335
803.751221,327
803.870117,328
803.989014,311
804.107971,323
804.226746,332
804.345642,329
804.4646,323
804.583496,319
804.702393,324
804.821228,329
804.940125,323
805.059021,323
805.177917,332
805.296814,335
805.415649,330
805.534546,323
805.653442,333
805.772278,338
805.891113,313
806.01001,336
806.128906,311
806.247742,335
806.366577,323
806.485413,335
806.604309,328
806.723145,337
806.84198,319
806.960876,318
807.079712,330
807.198486,330
807.317383,329
807.436218,334
807.554993,319
807.673889,324
807.792725,334
807.91156,332
808.030396,316
808.14917,335
808.268005,304
808.386841,315
808.505676,313
808.624451,329
808.743286,311
808.862122,316
808.980896,316
809.099731,329
809.218506,325
809.337341,327
809.456116,319
809.57489,330
809.693726,336
809.8125,339
809.931274,320
810.050049,334
810.168884,339
810.287659,323
810.406372,318
810.525269,332
810.643982,320
810.762756,338
810.881531,320
811.000305,323
811.11908,327
811.237854,327
811.356567,310
811.475403,330
811.594116,334
811.71283,334
811.831604,325
811.950378,328
812.069153,316
812.187927,340
812.30658,335
812.425415,319
812.544128,325
812.662781,327
812.781616,319
812.900269,334
813.019043,308
813.137756,332
813.256531,321
813.375244,324
813.493896,329
813.612671,327
813.731384,330
813.850037,327
813.96875,340
814.087524,343
814.206238,320
814.324951,325
814.443604,310
814.562256,333
814.68103,328
814.799683,323
814.918335,323
815.037109,325
815.155762,324
815.274475,327
815.393188,322
815.511841,313
815.630554,320
815.749146,329
815.867859,336
815.986572,324
816.105164,327
816.223877,326
816.342529,325
816.461182,330
816.579895,327
816.698486,318
816.817139,323
816.935791,331
817.054504,326
817.173096,318
817.291748,327
817.4104,328
817.529053,326
817.647644,326
817.766235,320
817.884949,314
818.00354,326
818.122192,336
818.240845,317
818.359436,340
818.478088,329
818.59668,328
818.715271,322
818.833923,335
818.952515,325
819.071106,332
819.189758,321
819.30835,339
819.426941,310
819.545532,331
819.664124,321
819.782715,316
819.901306,330
820.019897,326
820.138489,326
820.25708,319
820.375671,336
820.494202,324
820.612732,325
820.731384,318
820.849915,323
820.968506,311
821.087097,328
821.205627,331
821.324158,305
821.442749,320
821.561279,313
821.679871,328
821.798401,316
821.916931,326
822.035461,314
822.154053,327
822.272583,325
822.391174,326
822.509583,319
822.628174,327
822.746704,316
822.865234,316
822.983765,338
823.102295,314
823.220825,326
823.339294,318
823.457825,312
823.576355,327
823.694824,311
823.813354,318
823.931885,317
824.050354,322
824.168884,338
824.287354,321
824.405823,316
824.524353,328
824.642822,324
824.761353,306
824.879822,309
824.998291,325
825.116699,302
825.235291,324
825.353699,325
825.472168,308
825.590637,316
825.709106,331
825.827576,312
825.946045,312
826.064453,327
826.182983,312
826.301392,332
826.4198,334
826.53833,311
826.656738,329
826.775208,332
826.893677,316
827.012024,328
827.130493,307
827.248962,329
827.36731,312
827.485779,312
827.604248,329
827.722595,299
827.841064,330
827.959412,317
828.077942,318
828.196289,324
828.314636,320
828.433105,301
828.551514,334
828.669861,323
828.78833,317
828.906677,325
829.025085,320
829.143433,315
829.261841,325
829.38031,308
829.498657,319
829.617004,311
829.735413,316
829.85376,314
829.972107,313
830.090515,314
830.208862,317
830.327209,331
830.445557,327
830.563904,321
830.682312,322
830.800659,310
830.919006,333
831.037354,323
831.155701,321
831.274048,321
831.392395,322
831.51062,328
831.629028,313
831.747314,325
831.865662,325
831.984009,312
832.102356,331
832.220642,318
832.338928,317
832.457275,320
832.575623,313
832.693909,310
832.812134,321
832.930481,325
833.048828,323
833.167114,317
833.2854,313
833.403687,307
833.521973,330
833.640259,317
833.758545,323
833.876831,324
833.995056,322
834.113281,316
834.231628,326
834.349915,320
834.468201,324
834.586426,323
834.704651,326
834.822998,324
834.941162,321
835.059448,316
835.177673,321
835.295959,330
835.414246,335
835.53241,316
835.650635,320
835.768921,321
835.887146,319
836.005371,319
836.123596,321
836.241821,314
836.360046,317
836.478271,332
836.596497,333
836.714722,309
836.832886,324
836.95105,323
837.069336,323
837.1875,310
837.305725,326
837.423889,313
837.542053,317
837.660339,337
837.778503,323
837.896667,325
838.014832,321
838.132996,313
838.25116,318
838.369385,316
838.487488,331
838.605713,309
838.723877,326
838.84198,326
838.960205,327
839.078308,323
839.196472,311
839.314636,307
839.4328,318
839.550964,330
839.669067,316
839.787231,300
839.905396,321
840.023499,312
840.141602,323
840.259766,314
840.377869,323
840.495972,326
840.614136,325
840.732239,321
840.850342,319
840.968445,326
841.086548,319
841.204651,326
841.322754,323
841.440918,319
841.55896,318
841.677002,313
841.795166,325
841.913208,318
842.031311,328
842.149353,325
842.267456,321
842.385498,313
842.503601,329
842.621643,303
842.739746,325
842.857788,312
842.97583,335
843.093933,328
843.211975,326
843.330017,309
843.44812,319
843.566101,317
843.684204,316
843.802246,309
843.920227,319
844.038269,312
844.156311,325
844.274292,316
844.392395,324
844.510376,325
844.628357,320
844.74646,319
844.864441,333
844.982422,322
845.100403,324
845.218384,317
845.336426,319
845.454468,319
845.572449,310
845.69043,314
845.808411,325
845.926453,311
846.044373,329
846.162354,315
846.280396,326
846.398315,326
846.516296,328
846.634216,311
846.752197,318
846.870178,318
846.988098,318
847.106079,330
847.22406,313
847.34198,315
847.4599,329
847.577881,309
847.695801,338
847.813782,325
847.931641,312
848.049561,317
848.167603,329
848.285461,324
848.403381,321
848.521362,326
848.639221,322
848.75708,323
848.875,321
848.99292,320
849.110901,327
849.22876,319
849.34668,330
849.464539,324
849.582458,329
849.700317,313
849.818176,323
849.936096,314
850.053955,339
850.171875,329
850.289673,316
850.407593,318
850.525452,306
850.643311,331
850.761169,317
850.878967,318
850.996887,321
851.114746,331
851.232544,320
851.350403,320
851.468262,329
851.58606,320
851.703979,328
851.821777,326
851.939636,317
852.057434,321
852.175232,314
852.293091,317
852.410889,321
852.528687,319
852.646545,328
852.764343,308
852.88208,329
852.999939,321
853.117676,320
853.235535,320
853.353271,330
853.471069,314
853.588928,324
853.706604,317
853.824402,316
853.9422,311
854.059998,332
854.177734,317
854.295532,324
854.413269,324
854.531006,326
854.648804,327
854.766541,318
854.884277,347
855.002014,319
855.119751,323
855.237549,308
855.355225,322
855.473022,320
855.590698,317
855.708435,327
855.826172,312
855.943848,348
856.061646,309
856.179321,316
856.296997,319
856.414795,327
856.53241,321
856.650085,317
856.767822,315
856.885559,325
857.003174,321
857.120911,325
857.238586,311
857.356201,321
857.473938,317
857.591614,306
857.709351,316
857.826965,315
857.944641,322
858.062317,333
858.179993,317
858.297668,319
858.415283,311
858.532959,327
858.650574,328
858.768188,319
858.885803,325
859.003479,323
859.121094,310
859.23877,323
859.356384,312
859.473999,330
859.591675,319
859.709229,331
859.826843,321
859.944458,319
860.062012,317
860.179626,327
860.297302,329
860.414856,313
860.532471,299
860.650024,319
860.767639,320
860.885193,313
861.002808,321
861.120361,315
861.237976,320
861.35553,325
861.473022,326
861.590698,316
861.708191,314
861.825745,330
861.943298,322
862.060852,321
862.178406,317
862.295959,321
862.413513,312
862.531006,323
862.64856,306
862.766113,321
862.883667,322
863.00116,324
863.118713,326
863.236206,314
863.353699,315
863.471252,319
863.588745,307
863.706177,326
863.82373,306
863.941162,324
864.058716,321
864.176208,317
864.29364,325
864.411194,325
864.528687,306
864.646118,326
864.763611,312
864.881042,326
864.998535,320
865.116028,318
865.233459,308
865.350891,320
865.468384,310
865.585754,323
865.703308,323
865.820679,327
865.938171,324
866.055542,326
866.173035,312
866.290466,326
866.407837,310
866.52533,336
866.6427,321
866.760071,325
866.877563,308
866.994934,316
867.112305,316
867.229736,324
867.347107,315
867.464539,312
867.58197,308
867.699341,327
867.81665,314
867.934082,322
868.051453,319
868.168823,318
868.286194,317
868.403564,323
868.520935,293
868.638306,319
868.755676,317
868.872986,326
868.990295,321
869.107727,332
869.225037,318
869.342346,306
869.459717,327
869.577026,329
869.694336,322
869.811707,314
869.929016,322
870.046326,335
870.163635,311
870.280945,324
870.398254,324
870.515564,316
870.632812,314
870.750183,328
870.867432,320
870.984741,316
871.102051,319
871.219299,324
871.336609,312
871.453918,323
871.571106,315
871.688416,319
871.805664,319
871.922852,323
872.040222,325
872.157471,314
872.274719,312
872.391968,324
872.509155,321
872.626465,333
872.743652,317
872.860962,327
872.978149,312
873.095337,309
873.212646,329
873.329834,322
873.44696,321
873.564209,332
873.681396,327
873.798645,329
873.915894,311
874.03302,319
874.150208,302
874.267456,313
874.384583,319
874.501831,323
874.618958,309
874.736145,325
874.853333,304
874.970459,311
875.087646,321
875.204834,330
875.32196,316
875.439148,318
875.556274,306
875.673401,334
875.790527,314
875.907715,319
876.024841,341
876.141968,316
876.259094,317
876.376282,324
876.493347,323
876.610474,320
876.7276,306
876.844727,319
876.961853,314
877.078918,311
877.195984,317
877.313171,314
877.430237,318
877.547302,317
877.664368,323
877.781433,322
877.898499,307
878.015625,329
878.13269,317
878.249695,321
878.366821,326
878.483887,326
878.600952,306
878.717957,314
878.834961,325
878.952087,331
879.069092,314
879.186157,322
879.303162,322
879.420227,322
879.537231,322
879.654236,315
879.77124,317
879.888306,322
880.005249,311
880.122314,317
880.239319,324
880.356323,319
880.473328,320
880.590271,322
880.707275,309
880.824341,323
880.941284,312
881.058228,303
881.175232,321
881.292236,334
881.40918,311
881.526123,317
881.643066,331
881.760071,318
881.877014,313
881.993958,324
882.11084,317
882.227783,325
882.344727,314
882.46167,318
882.578613,322
882.695618,326
882.812439,319
882.929382,324
883.046326,319
883.163208,315
883.280151,300
883.397034,320
883.513916,321
883.630798,320
883.747742,323
883.864563,311
883.981506,322
884.098389,316
884.21521,314
884.332153,319
884.448975,326
884.565796,324
884.682678,330
884.7995,327
884.916443,299
885.033264,337
885.150085,323
885.266968,332
885.383789,329
885.500671,317
885.617493,322
885.734314,337
885.851196,319
885.967896,307
886.084717,321
886.201599,321
886.318359,313
886.435181,330
886.552002,328
886.668762,329
886.785645,322
886.902344,338
887.019165,317
887.135925,329
887.252747,323
887.369446,337
887.486267,315
887.603027,331
887.719788,312
887.836548,318
887.953247,311
888.070068,325
888.186829,306
888.303528,330
888.420288,304
888.536987,311
888.653687,303
888.770447,319
888.887146,319
889.003967,313
889.120667,317
889.237305,324
889.354065,326
889.470703,319
889.587463,332
889.704163,317
889.820862,316
889.937561,325
890.054199,319
890.170837,325
890.287598,307
890.404236,322
890.520874,327
890.637634,318
890.754211,316
890.87085,317
890.987549,311
891.104187,327
891.220886,315
891.337463,331
891.454102,310
891.57074,324
891.687378,308
891.804077,318
891.920654,309
892.037231,332
892.15387,308
892.270447,329
892.387085,318
892.503723,318
892.6203,310
892.736877,315
892.853516,331
892.970032,326
893.08667,314
893.203186,325
893.319763,309
893.43634,323
893.552917,312
893.669556,325
893.786011,317
893.902588,321
894.019165,316
894.135681,321
894.252197,307
894.368835,305
894.485291,322
894.601868,317
894.718384,315
894.8349,320
894.951355,315
895.067932,320
895.184448,317
895.300964,321
895.417419,341
895.533936,332
895.650452,314
895.766907,323
895.883423,323
895.999878,317
896.116333,314
896.232849,323
896.349304,322
896.465759,326
896.582214,304
896.698669,324
896.815125,324
896.931641,320
897.048035,313
897.164551,312
897.280884,311
897.397339,316
897.513794,308
897.630249,323
897.746582,315
897.863098,318
897.979431,313
898.095886,314
898.212341,315
898.328674,324
898.445129,323
898.561462,316
898.677795,316
898.794312,321
898.910645,312
899.026978,322
899.143433,302
899.259766,334
899.37616,332
899.492493,331
899.608765,323
899.725159,322
899.841553,328
899.957947,313
900.07428,333
900.190552,317
900.306946,302
900.423157,321
900.53949,318
900.655884,324
900.772156,328
900.888489,325
901.004822,319
901.121033,306
901.237366,320
901.353699,316
901.46991,311
901.586304,320
901.702515,321
901.818787,328
901.93512,324
902.051331,316
902.167603,320
902.283875,327
902.400085,331
902.516418,314
902.632629,327
902.74884,333
902.865112,311
902.981384,333
903.097595,315
903.213867,321
903.330017,322
903.446289,339
903.5625,315
903.67865,326
903.794922,315
903.911072,329
904.027344,313
904.143494,325
904.259705,332
904.375916,324
904.492065,317
904.608215,327
904.724426,314
904.840576,329
904.956726,312
905.072876,327
905.189087,319
905.305176,313
905.421387,324
905.537537,322
905.653687,304
905.769775,335
905.885925,329
906.002014,320
906.118164,314
906.234314,321
906.350403,304
906.466492,322
906.582642,325
906.69873,326
906.814758,316
906.930908,330
907.046936,306
907.163086,318
907.279175,315
907.395264,321
907.511353,321
907.62738,324
907.743408,319
907.859497,320
907.975525,324
908.091553,319
908.207703,312
908.32373,332
908.439758,303
908.555786,341
908.671814,312
908.787842,327
908.90387,323
909.019775,306
909.135864,316
909.251892,332
909.367859,326
909.483826,311
909.599854,310
909.715881,331
909.831848,306
909.947815,326
910.063782,301
910.179749,319
910.295776,312
910.411743,340
910.527649,304
910.643616,323
910.759583,325
910.875488,327
910.991455,307
911.107361,324
911.223267,316
911.339294,314
911.4552,308
911.571106,312
911.687073,316
911.802979,319
911.918823,318
912.034729,330
912.150635,320
912.266602,319
912.382446,313
912.498352,321
912.614197,321
912.730103,312
912.846008,313
792.44574,327
792.56488,347
792.68396,424
792.80304,394
792.92218,357
793.041199,347
793.160339,332
793.279419,360
793.398499,333
793.517578,327
793.636658,335
793.755737,350
793.874817,353
793.993896,367
794.112976,346
794.232056,346
794.351074,337
794.470215,347
794.589233,336
794.708313,337
794.827393,346
794.946411,339
795.065552,358
795.18457,336
795.303589,343
795.422668,335
795.541687,328
795.660767,347
795.779846,337
795.898865,330
796.017883,339
796.136963,353
796.255981,332
796.375061,335
796.49408,350
796.613037,340
796.732117,329
796.851135,337
796.970154,341
797.089233,334
797.208191,336
797.327271,344
797.446228,332
797.565186,326
797.684265,320
797.803223,319
797.922241,343
798.04126,331
798.160278,336
798.279297,325
798.398315,317
798.517273,333
798.636292,326
798.75531,335
798.874268,334
798.993286,334
799.112244,346
799.231323,320
799.350281,328
799.469238,340
799.588257,330
799.707153,331
799.826111,329
799.945129,337
800.064087,332
800.183044,336
800.302063,325
800.421021,327
800.539978,336
800.658936,317
800.777893,327
800.896912,324
801.015747,333
801.134705,332
801.253723,348
801.37262,320
801.491638,339
801.610535,330
801.729492,335
801.84845,320
801.967407,322
802.086243,329
802.205261,319
802.324158,334
802.443115,333
802.562073,332
802.680969,334
802.799927,320
802.918762,315
803.037659,336
803.156677,319
803.275574,333
803.39447,332
803.513428,338
803.632263,319
803.751221,333
803.870117,332
803.989014,332
804.107971,319
804.226746,318
804.345642,321
804.4646,334
804.583496,319
804.702393,326
804.821228,316
804.940125,331
805.059021,344
805.177917,326
805.296814,324
805.415649,333
805.534546,319
805.653442,330
805.772278,320
805.891113,315
806.01001,329
806.128906,315
806.247742,323
806.366577,328
806.485413,322
806.604309,324
806.723145,333
806.84198,309
806.960876,326
807.079712,308
807.198486,326
807.317383,323
807.436218,330
807.554993,324
807.673889,327
807.792725,320
807.91156,334
808.030396,324
808.14917,327
808.268005,318
808.386841,324
808.505676,323
808.624451,330
808.743286,327
808.862122,325
808.980896,324
809.099731,324
809.218506,326
809.337341,321
809.456116,318
809.57489,334
809.693726,328
809.8125,330
809.931274,331
810.050049,330
810.168884,316
810.287659,323
810.406372,339
810.525269,326
810.643982,323
810.762756,321
810.881531,333
811.000305,320
811.11908,320
811.237854,334
811.356567,335
811.475403,329
811.594116,326
811.71283,329
811.831604,327
811.950378,323
812.069153,324
812.187927,323
812.30658,329
812.425415,327
812.544128,333
812.662781,314
812.781616,332
812.900269,325
813.019043,319
813.137756,325
813.256531,334
813.375244,323
813.493896,318
813.612671,314
813.731384,324
813.850037,328
813.96875,335
814.087524,321
814.206238,330
814.324951,332
814.443604,337
814.562256,321
814.68103,330
814.799683,318
814.918335,322
815.037109,334
815.155762,337
815.274475,317
815.393188,331
815.511841,317
815.630554,322
815.749146,336
815.867859,327
815.986572,316
816.105164,321
816.223877,324
816.342529,334
816.461182,319
816.579895,321
816.698486,327
816.817139,331
816.935791,312
817.054504,327
817.173096,334
817.291748,321
817.4104,323
817.529053,321
817.647644,330
817.766235,332
817.884949,332
818.00354,325
818.122192,333
818.240845,327
818.359436,324
818.478088,321
818.59668,317
818.715271,316
818.833923,331
818.952515,310
819.071106,320
819.189758,317
819.30835,322
819.426941,329
819.545532,330
819.664124,325
819.782715,316
819.901306,326
820.019897,325
820.138489,314
820.25708,320
820.375671,324
820.494202,303
820.612732,327
820.731384,323
820.849915,335
820.968506,310
821.087097,323
821.205627,331
821.324158,338
821.442749,315
821.561279,335
821.679871,333
821.798401,331
821.916931,323
822.035461,311
822.154053,315
822.272583,331
822.391174,319
822.509583,324
822.628174,324
822.746704,313
822.865234,318
822.983765,312
823.102295,317
823.220825,319
823.339294,330
823.457825,325
823.576355,316
823.694824,317
823.813354,317
823.931885,309
824.050354,312
824.168884,326
824.287354,329
824.405823,325
824.524353,310
824.642822,327
824.761353,318
824.879822,330
824.998291,321
825.116699,314
825.235291,322
825.353699,331
825.472168,316
825.590637,320
825.709106,312
825.827576,316
825.946045,318
826.064453,318
826.182983,318
826.301392,296
826.4198,324
826.53833,323
826.656738,309
826.775208,314
826.893677,332
827.012024,317
827.130493,313
827.248962,331
827.36731,324
827.485779,315
827.604248,323
827.722595,315
827.841064,318
827.959412,322
828.077942,329
828.196289,320
828.314636,320
828.433105,315
828.551514,315
828.669861,315
828.78833,332
828.906677,319
829.025085,319
829.143433,321
829.261841,321
829.38031,312
829.498657,312
829.617004,309
829.735413,320
829.85376,326
829.972107,307
830.090515,327
830.208862,321
830.327209,313
830.445557,306
830.563904,331
830.682312,310
830.800659,319
830.919006,314
831.037354,322
831.155701,322
831.274048,317
831.392395,320
831.51062,300
831.629028,321
831.747314,316
831.865662,318
831.984009,327
832.102356,322
832.220642,325
832.338928,324
832.457275,314
832.575623,306
832.693909,322
832.812134,320
832.930481,315
833.048828,314
833.167114,324
833.2854,311
833.403687,315
833.521973,321
833.640259,322
833.758545,332
833.876831,325
833.995056,323
834.113281,321
834.231628,335
834.349915,306
834.468201,312
834.586426,322
834.704651,323
834.822998,322
834.941162,318
835.059448,311
835.177673,328
835.295959,324
835.414246,308
835.53241,316
835.650635,339
835.768921,325
835.887146,321
836.005371,324
836.123596,316
836.241821,319
836.360046,329
836.478271,313
836.596497,306
836.714722,331
836.832886,318
836.95105,304
837.069336,324
837.1875,332
837.305725,298
837.423889,307
837.542053,320
837.660339,325
837.778503,311
837.896667,320
838.014832,310
838.132996,323
838.25116,327
838.369385,330
838.487488,308
838.605713,321
838.723877,314
838.84198,320
838.960205,323
839.078308,300
839.196472,323
839.314636,312
839.4328,318
839.550964,309
839.669067,322
839.787231,317
839.905396,309
840.023499,331
840.141602,323
840.259766,310
840.377869,328
840.495972,313
840.614136,320
840.732239,323
840.850342,320
840.968445,326
841.086548,326
841.204651,317
841.322754,312
841.440918,315
841.55896,307
841.677002,318
841.795166,297
841.913208,326
842.031311,314
842.149353,323
842.267456,322
842.385498,315
842.503601,317
842.621643,327
842.739746,302
842.857788,312
842.97583,338
843.093933,316
843.211975,321
843.330017,335
843.44812,316
843.566101,326
843.684204,317
843.802246,323
843.920227,317
844.038269,325
844.156311,326
844.274292,328
844.392395,335
844.510376,329
844.628357,331
844.74646,327
844.864441,327
844.982422,314
845.100403,332
845.218384,315
845.336426,327
845.454468,311
845.572449,319
845.69043,317
845.808411,328
845.926453,327
846.044373,317
846.162354,312
846.280396,316
846.398315,337
846.516296,323
846.634216,322
846.752197,314
846.870178,319
846.988098,316
847.106079,311
847.22406,318
847.34198,328
847.4599,308
847.577881,319
847.695801,319
847.813782,335
847.931641,320
848.049561,340
848.167603,325
848.285461,324
848.403381,334
848.521362,332
848.639221,320
848.75708,315
848.875,315
848.99292,322
849.110901,322
849.22876,321
849.34668,329
849.464539,325
849.582458,325
849.700317,309
849.818176,337
849.936096,329
850.053955,323
850.171875,338
850.289673,322
850.407593,326
850.525452,325
850.643311,327
850.761169,324
850.878967,331
850.996887,317
851.114746,339
851.232544,334
851.350403,314
851.468262,321
851.58606,318
851.703979,320
851.821777,323
851.939636,340
852.057434,321
852.175232,326
852.293091,320
852.410889,323
852.528687,331
852.646545,321
852.764343,312
852.88208,336
852.999939,327
853.117676,317
853.235535,323
853.353271,310
853.471069,312
853.588928,312
853.706604,320
853.824402,312
853.9422,316
854.059998,317
854.177734,320
854.295532,320
854.413269,322
854.531006,318
854.648804,326
854.766541,332
854.884277,311
855.002014,298
855.119751,317
855.237549,313
855.355225,315
855.473022,321
855.590698,326
855.708435,312
855.826172,323
855.943848,319
856.061646,318
856.179321,314
856.296997,331
856.414795,325
856.53241,312
856.650085,330
856.767822,320
856.885559,317
857.003174,328
857.120911,317
857.238586,317
857.356201,312
857.473938,317
857.591614,307
857.709351,332
857.826965,317
857.944641,311
858.062317,305
858.179993,319
858.297668,320
858.415283,334
858.532959,314
858.650574,317
858.768188,314
858.885803,311
859.003479,320
859.121094,315
859.23877,327
859.356384,310
859.473999,309
859.591675,325
859.709229,330
859.826843,319
859.944458,321
860.062012,330
860.179626,325
860.297302,334
860.414856,323
860.532471,321
860.650024,324
860.767639,327
860.885193,314
861.002808,313
861.120361,321
861.237976,320
861.35553,314
861.473022,309
861.590698,326
861.708191,328
861.825745,319
861.943298,331
862.060852,321
862.178406,306
862.295959,329
862.413513,308
862.531006,315
862.64856,329
862.766113,317
862.883667,308
863.00116,315
863.118713,324
863.236206,321
863.353699,328
863.471252,326
863.588745,319
863.706177,311
863.82373,339
863.941162,319
864.058716,325
864.176208,311
864.29364,323
864.411194,318
864.528687,325
864.646118,327
864.763611,336
864.881042,319
864.998535,323
865.116028,320
865.233459,322
865.350891,330
865.468384,332
865.585754,323
865.703308,320
865.820679,307
865.938171,325
866.055542,322
866.173035,306
866.290466,331
866.407837,322
866.52533,316
866.6427,319
866.760071,313
866.877563,329
866.994934,328
867.112305,326
867.229736,329
867.347107,321
867.464539,324
867.58197,331
867.699341,326
867.81665,327
867.934082,313
868.051453,326
868.168823,297
868.286194,319
868.403564,316
868.520935,316
868.638306,314
868.755676,328
868.872986,327
868.990295,333
869.107727,311
869.225037,328
869.342346,317
869.459717,327
869.577026,324
869.694336,316
869.811707,322
869.929016,320
870.046326,330
870.163635,328
870.280945,306
870.398254,322
870.515564,323
870.632812,310
870.750183,324
870.867432,318
870.984741,315
871.102051,312
871.219299,320
871.336609,308
871.453918,314
871.571106,323
871.688416,326
871.805664,323
871.922852,315
872.040222,321
872.157471,325
872.274719,326
872.391968,323
872.509155,329
872.626465,316
872.743652,317
872.860962,309
872.978149,329
873.095337,331
873.212646,324
873.329834,323
873.44696,337
873.564209,313
873.681396,320
873.798645,315
873.915894,328
874.03302,308
874.150208,321
874.267456,327
874.384583,319
874.501831,303
874.618958,318
874.736145,324
874.853333,326
874.970459,322
875.087646,333
875.204834,309
875.32196,331
875.439148,320
875.556274,323
875.673401,317
875.790527,323
875.907715,324
876.024841,336
876.141968,334
876.259094,313
876.376282,326
876.493347,321
876.610474,325
876.7276,321
876.844727,311
876.961853,310
877.078918,313
877.195984,318
877.313171,316
877.430237,314
877.547302,320
877.664368,319
877.781433,327
877.898499,326
878.015625,307
878.13269,323
878.249695,328
878.366821,329
878.483887,321
878.600952,320
878.717957,311
878.834961,328
878.952087,321
879.069092,318
879.186157,322
879.303162,320
879.420227,328
879.537231,314
879.654236,325
879.77124,317
879.888306,304
880.005249,324
880.122314,314
880.239319,314
880.356323,321
880.473328,313
880.590271,321
880.707275,324
880.824341,304
880.941284,333
881.058228,323
881.175232,329
881.292236,324
881.40918,315
881.526123,320
881.643066,315
881.760071,308
881.877014,323
881.993958,318
882.11084,329
882.227783,320
882.344727,322
882.46167,308
882.578613,322
882.695618,319
882.812439,333
882.929382,320
883.046326,321
883.163208,317
883.280151,325
883.397034,311
883.513916,314
883.630798,325
883.747742,324
883.864563,322
883.981506,328
884.098389,316
884.21521,333
884.332153,316
884.448975,311
884.565796,323
884.682678,331
884.7995,316
884.916443,314
885.033264,324
885.150085,324
885.266968,324
885.383789,323
885.500671,322
885.617493,331
885.734314,329
885.851196,323
885.967896,315
886.084717,308
886.201599,316
886.318359,322
886.435181,315
886.552002,338
886.668762,327
886.785645,319
886.902344,317
887.019165,320
887.135925,321
887.252747,328
887.369446,314
887.486267,321
887.603027,333
887.719788,324
887.836548,317
887.953247,324
888.070068,324
888.186829,322
888.303528,319
888.420288,308
888.536987,312
888.653687,311
888.770447,306
888.887146,319
889.003967,316
889.120667,329
889.237305,308
889.354065,325
889.470703,324
889.587463,333
889.704163,305
889.820862,320
889.937561,318
890.054199,317
890.170837,315
890.287598,318
890.404236,321
890.520874,312
890.637634,305
890.754211,330
890.87085,318
890.987549,317
891.104187,325
891.220886,317
891.337463,309
891.454102,326
891.57074,308
891.687378,308
891.804077,318
891.920654,308
892.037231,321
892.15387,316
892.270447,306
892.387085,315
892.503723,334
892.6203,317
892.736877,307
892.853516,325
892.970032,326
893.08667,319
893.203186,327
893.319763,321
893.43634,318
893.552917,324
893.669556,320
893.786011,316
893.902588,316
894.019165,334
894.135681,317
894.252197,324
894.368835,331
894.485291,310
894.601868,319
894.718384,311
894.8349,329
894.951355,326
895.067932,307
895.184448,322
895.300964,325
895.417419,319
895.533936,324
895.650452,323
895.766907,327
895.883423,315
895.999878,316
896.116333,327
896.232849,304
896.349304,322
896.465759,324
896.582214,317
896.698669,312
896.815125,322
896.931641,315
897.048035,320
897.164551,312
897.280884,324
897.397339,312
897.513794,323
897.630249,320
897.746582,316
897.863098,315
897.979431,322
898.095886,311
898.212341,324
898.328674,328
898.445129,312
898.561462,326
898.677795,317
898.794312,312
898.910645,321
899.026978,315
899.143433,327
899.259766,313
899.37616,326
899.492493,303
899.608765,309
899.725159,318
899.841553,315
899.957947,315
900.07428,319
900.190552,313
900.306946,308
900.423157,327
900.53949,326
900.655884,322
900.772156,322
900.888489,333
901.004822,335
901.121033,316
901.237366,335
901.353699,310
901.46991,322
901.586304,330
901.702515,323
901.818787,317
901.93512,314
902.051331,315
902.167603,330
902.283875,320
902.400085,312
902.516418,312
902.632629,322
902.74884,314
902.865112,330
902.981384,320
903.097595,319
903.213867,313
903.330017,316
903.446289,328
903.5625,317
903.67865,307
903.794922,305
903.911072,318
904.027344,340
904.143494,308
904.259705,321
904.375916,314
904.492065,327
904.608215,313
904.724426,319
904.840576,328
904.956726,325
905.072876,313
905.189087,321
905.305176,312
905.421387,313
905.537537,319
905.653687,311
905.769775,319
905.885925,313
906.002014,315
906.118164,305
906.234314,321
906.350403,314
906.466492,305
906.582642,329
906.69873,311
906.814758,328
906.930908,321
907.046936,326
907.163086,313
907.279175,326
907.395264,307
907.511353,317
907.62738,324
907.743408,311
907.859497,313
907.975525,316
908.091553,323
908.207703,315
908.32373,328
908.439758,318
908.555786,333
908.671814,318
908.787842,313
908.90387,317
909.019775,314
909.135864,312
909.251892,314
909.367859,308
909.483826,312
909.599854,323
909.715881,321
909.831848,325
909.947815,325
910.063782,316
910.179749,314
910.295776,329
910.411743,324
910.527649,311
910.643616,322
910.759583,319
910.875488,325
910.991455,311
911.107361,317
911.223267,324
911.339294,316
911.4552,317
911.571106,295
911.687073,317
911.802979,323
911.918823,314
912.034729,309
912.150635,315
912.266602,329
912.382446,324
912.498352,310
912.614197,322
912.730103,309
912.846008,318
792.44574,334
792.56488,361
792.68396,413
792.80304,385
792.92218,355
793.041199,328
793.160339,344
793.279419,343
793.398499,334
793.517578,343
793.636658,326
793.755737,352
793.874817,373
793.993896,355
794.112976,344
794.232056,326
794.351074,347
794.470215,334
794.589233,339
794.708313,330
794.827393,332
794.946411,335
795.065552,340
795.18457,332
795.303589,332
795.422668,345
795.541687,326
795.660767,334
795.779846,329
795.898865,338
796.017883,337
796.136963,321
796.255981,330
796.375061,326
796.49408,341
796.613037,335
796.732117,346
796.851135,334
796.970154,327
797.089233,333
797.208191,337
797.327271,326
797.446228,325
797.565186,323
797.684265,334
797.803223,334
797.922241,337
798.04126,343
798.160278,324
798.279297,339
798.398315,329
798.517273,323
798.636292,338
798.75531,310
798.874268,336
798.993286,336
799.112244,331
799.231323,325
799.350281,336
799.469238,332
799.588257,327
799.707153,319
799.826111,336
799.945129,315
800.064087,320
800.183044,337
800.302063,319
800.421021,333
800.539978,333
800.658936,330
800.777893,343
800.896912,335
801.015747,333
801.134705,303
801.253723,329
801.37262,334
801.491638,328
801.610535,331
801.729492,331
801.84845,322
801.967407,333
802.086243,315
802.205261,322
802.324158,330
802.443115,306
802.562073,319
802.680969,321
802.799927,330
802.918762,332
803.037659,331
803.156677,328
803.275574,320
803.39447,338
803.513428,313
803.632263,334
803.751221,305
803.870117,331
803.989014,326
804.107971,322
804.226746,311
804.345642,326
804.4646,339
804.583496,331
804.702393,321
804.821228,322
804.940125,321
805.059021,327
805.177917,319
805.296814,325
805.415649,325
805.534546,342
805.653442,327
805.772278,328
805.891113,310
806.01001,310
806.128906,328
806.247742,310
806.366577,333
806.485413,326
806.604309,324
806.723145,329
806.84198,326
806.960876,329
807.079712,328
807.198486,339
807.317383,301
807.436218,336
807.554993,324
807.673889,330
807.792725,331
807.91156,318
808.030396,320
808.14917,317
808.268005,316
808.386841,324
808.505676,335
808.624451,326
808.743286,334
808.862122,314
808.980896,310
809.099731,318
809.218506,323
809.337341,320
809.456116,332
809.57489,326
809.693726,320
809.8125,331
809.931274,319
810.050049,325
810.168884,321
810.287659,329
810.406372,331
810.525269,327
810.643982,331
810.762756,326
810.881531,318
811.000305,334
811.11908,328
811.237854,325
811.356567,327
811.475403,325
811.594116,308
811.71283,328
811.831604,325
811.950378,326
812.069153,333
812.187927,336
812.30658,327
812.425415,319
812.544128,330
812.662781,329
812.781616,317
812.900269,331
813.019043,314
813.137756,336
813.256531,320
813.375244,334
813.493896,309
813.612671,315
813.731384,332
813.850037,314
813.96875,319
814.087524,327
814.206238,335
814.324951,327
814.443604,313
814.562256,335
814.68103,329
814.799683,321
814.918335,321
815.037109,323
815.155762,327
815.274475,326
815.393188,318
815.511841,327
815.630554,328
815.749146,325
815.867859,316
815.986572,320
816.105164,315
816.223877,316
816.342529,331
816.461182,324
816.579895,322
816.698486,327
816.817139,326
816.935791,329
817.054504,310
817.173096,330
817.291748,303
817.4104,314
817.529053,315
817.647644,324
817.766235,328
817.884949,333
818.00354,326
818.122192,321
818.240845,317
818.359436,321
818.478088,322
818.59668,320
818.715271,325
818.833923,328
818.952515,313
819.071106,319
819.189758,327
819.30835,330
819.426941,324
819.545532,329
819.664124,298
819.782715,328
819.901306,317
820.019897,311
820.138489,309
820.25708,332
820.375671,315
820.494202,332
820.612732,310
820.731384,333
820.849915,305
820.968506,320
821.087097,329
821.205627,320
821.324158,311
821.442749,324
821.561279,314
821.679871,316
821.798401,332
821.916931,318
822.035461,308
822.154053,315
822.272583,318
822.391174,321
822.509583,315
822.628174,305
822.746704,323
822.865234,333
822.983765,326
823.102295,320
823.220825,322
823.339294,310
823.457825,338
823.576355,312
823.694824,311
823.813354,324
823.931885,318
824.050354,326
824.168884,321
824.287354,325
824.405823,317
824.524353,317
824.642822,319
824.761353,310
824.879822,313
824.998291,327
825.116699,311
825.235291,318
825.353699,308
825.472168,323
825.590637,302
825.709106,320
825.827576,303
825.946045,326
826.064453,312
826.182983,321
826.301392,308
826.4198,316
826.53833,310
826.656738,328
826.775208,307
826.893677,323
827.012024,320
827.130493,328
827.248962,311
827.36731,322
827.485779,316
827.604248,331
827.722595,326
827.841064,310
827.959412,308
828.077942,301
828.196289,323
828.314636,319
828.433105,305
828.551514,324
828.669861,324
828.78833,316
828.906677,310
829.025085,312
829.143433,317
829.261841,329
829.38031,305
829.498657,326
829.617004,301
829.735413,322
829.85376,322
829.972107,314
830.090515,305
830.208862,315
830.327209,313
830.445557,317
830.563904,314
830.682312,311
830.800659,314
830.919006,318
831.037354,314
831.155701,316
831.274048,320
831.392395,324
831.51062,312
831.629028,315
831.747314,324
831.865662,336
831.984009,309
832.102356,317
832.220642,312
832.338928,327
832.457275,327
832.575623,315
832.693909,323
832.812134,319
832.930481,320
833.048828,329
833.167114,316
833.2854,323
833.403687,322
833.521973,342
833.640259,308
833.758545,304
833.876831,324
833.995056,310
834.113281,306
834.231628,318
834.349915,313
834.468201,313
834.586426,327
834.704651,316
834.822998,314
834.941162,314
835.059448,316
835.177673,330
835.295959,315
835.414246,324
835.53241,310
835.650635,320
835.768921,304
835.887146,330
836.005371,316
836.123596,309
836.241821,309
836.360046,316
836.478271,326
836.596497,316
836.714722,304
836.832886,330
836.95105,313
837.069336,312
837.1875,314
837.305725,333
837.423889,317
837.542053,325
837.660339,313
837.778503,322
837.896667,307
838.014832,324
838.132996,328
838.25116,316
838.369385,330
838.487488,319
838.605713,308
838.723877,319
838.84198,305
838.960205,331
839.078308,323
839.196472,303
839.314636,312
839.4328,317
839.550964,316
839.669067,315
839.787231,315
839.905396,308
840.023499,327
840.141602,315
840.259766,311
840.377869,309
840.495972,316
840.614136,337
840.732239,317
840.850342,313
840.968445,319
841.086548,326
841.204651,328
841.322754,316
841.440918,320
841.55896,322
841.677002,319
841.795166,330
841.913208,322
842.031311,317
842.149353,320
842.267456,316
842.385498,317
842.503601,318
842.621643,306
842.739746,328
842.857788,315
842.97583,328
843.093933,298
843.211975,326
843.330017,319
843.44812,309
843.566101,323
843.684204,313
843.802246,313
843.920227,338
844.038269,316
844.156311,316
844.274292,323
844.392395,309
844.510376,321
844.628357,305
844.74646,328
844.864441,315
844.982422,312
845.100403,326
845.218384,319
845.336426,330
845.454468,313
845.572449,326
845.69043,317
845.808411,325
845.926453,315
846.044373,307
846.162354,319
846.280396,312
846.398315,320
846.516296,320
846.634216,320
846.752197,321
846.870178,320
846.988098,320
847.106079,314
847.22406,327
847.34198,320
847.4599,323
847.577881,314
847.695801,310
847.813782,308
847.931641,320
848.049561,315
848.167603,327
848.285461,299
848.403381,315
848.521362,295
848.639221,335
848.75708,319
848.875,323
848.99292,323
849.110901,315
849.22876,326
849.34668,310
849.464539,329
849.582458,329
849.700317,323
849.818176,334
849.936096,314
850.053955,319
850.171875,319
850.289673,313
850.407593,309
850.525452,304
850.643311,312
850.761169,319
850.878967,327
850.996887,324
851.114746,322
851.232544,327
851.350403,315
851.468262,330
851.58606,323
851.703979,323
851.821777,327
851.939636,332
852.057434,321
852.175232,337
852.293091,325
852.410889,313
852.528687,309
852.646545,316
852.764343,322
852.88208,325
852.999939,311
853.117676,318
853.235535,310
853.353271,326
853.471069,318
853.588928,321
853.706604,321
853.824402,302
853.9422,308
854.059998,329
854.177734,311
854.295532,321
854.413269,321
854.531006,325
854.648804,314
854.766541,333
854.884277,323
855.002014,309
855.119751,313
855.237549,323
855.355225,296
855.473022,316
855.590698,324
855.708435,324
855.826172,298
855.943848,326
856.061646,315
856.179321,324
856.296997,317
856.414795,307
856.53241,329
856.650085,322
856.767822,309
856.885559,317
857.003174,322
857.120911,315
857.238586,313
857.356201,309
857.473938,311
857.591614,320
857.709351,323
857.826965,310
857.944641,308
858.062317,324
858.179993,307
858.297668,330
858.415283,320
858.532959,326
858.650574,325
858.768188,324
858.885803,313
859.003479,329
859.121094,303
859.23877,331
859.356384,304
859.473999,334
859.591675,314
859.709229,315
859.826843,328
859.944458,324
860.062012,317
860.179626,329
860.297302,304
860.414856,338
860.532471,308
860.650024,324
860.767639,301
860.885193,321
861.002808,310
861.120361,321
861.237976,318
861.35553,311
861.473022,311
861.590698,311
861.708191,322
861.825745,325
861.943298,306
862.060852,325
862.178406,305
862.295959,316
862.413513,320
862.531006,314
862.64856,302
862.766113,324
862.883667,324
863.00116,328
863.118713,309
863.236206,327
863.353699,315
863.471252,316
863.588745,310
863.706177,319
863.82373,307
863.941162,301
864.058716,316
864.176208,323
864.29364,322
864.411194,313
864.528687,313
864.646118,315
864.763611,304
864.881042,337
864.998535,307
865.116028,325
865.233459,316
865.350891,311
865.468384,326
865.585754,317
865.703308,320
865.820679,315
865.938171,313
866.055542,312
866.173035,299
866.290466,309
866.407837,301
866.52533,316
866.6427,316
866.760071,306
866.877563,334
866.994934,319
867.112305,313
867.229736,332
867.347107,310
867.464539,324
867.58197,315
867.699341,309
867.81665,333
867.934082,321
868.051453,316
868.168823,324
868.286194,312
868.403564,329
868.520935,312
868.638306,317
868.755676,327
868.872986,336
868.990295,320
869.107727,319
869.225037,307
869.342346,317
869.459717,323
869.577026,321
869.694336,311
869.811707,329
869.929016,318
870.046326,328
870.163635,314
870.280945,314
870.398254,315
870.515564,322
870.632812,305
870.750183,330
870.867432,330
870.984741,318
871.102051,336
871.219299,329
871.336609,330
871.453918,317
871.571106,307
871.688416,319
871.805664,315
871.922852,313
872.040222,316
872.157471,325
872.274719,316
872.391968,318
872.509155,308
872.626465,331
872.743652,318
872.860962,335
872.978149,308
873.095337,315
873.212646,315
873.329834,315
873.44696,307
873.564209,315
873.681396,318
873.798645,313
873.915894,314
874.03302,320
874.150208,323
874.267456,323
874.384583,312
874.501831,326
874.618958,315
874.736145,319
874.853333,316
874.970459,315
875.087646,314
875.204834,318
875.32196,325
875.439148,325
875.556274,306
875.673401,319
875.790527,314
875.907715,308
876.024841,306
876.141968,322
876.259094,312
876.376282,325
876.493347,311
876.610474,318
876.7276,306
876.844727,305
876.961853,305
877.078918,312
877.195984,320
877.313171,334
877.430237,320
877.547302,332
877.664368,327
877.781433,328
877.898499,316
878.015625,334
878.13269,313
878.249695,320
878.366821,308
878.483887,311
878.600952,325
878.717957,318
878.834961,305
878.952087,321
879.069092,310
879.186157,327
879.303162,313
879.420227,320
879.537231,321
879.654236,315
879.77124,307
879.888306,317
880.005249,320
880.122314,312
880.239319,312
880.356323,340
880.473328,313
880.590271,336
880.707275,314
880.824341,326
880.941284,309
881.058228,312
881.175232,321
881.292236,322
881.40918,321
881.526123,302
881.643066,317
881.760071,310
881.877014,321
881.993958,310
882.11084,319
882.227783,312
882.344727,314
882.46167,313
882.578613,298
882.695618,313
882.812439,318
882.929382,329
883.046326,310
883.163208,309
883.280151,312
883.397034,310
883.513916,318
883.630798,320
883.747742,307
883.864563,319
883.981506,309
884.098389,329
884.21521,312
884.332153,325
884.448975,320
884.565796,317
884.682678,323
884.7995,314
884.916443,318
885.033264,318
885.150085,317
885.266968,324
885.383789,309
885.500671,322
885.617493,328
885.734314,321
885.851196,324
885.967896,323
886.084717,307
886.201599,322
886.318359,307
886.435181,321
886.552002,312
886.668762,327
886.785645,320
886.902344,321
887.019165,334
887.135925,321
887.252747,310
887.369446,319
887.486267,317
887.603027,316
887.719788,306
887.836548,315
887.953247,307
888.070068,315
888.186829,317
888.303528,322
888.420288,300
888.536987,315
888.653687,309
888.770447,337
888.887146,325
889.003967,326
889.120667,315
889.237305,316
889.354065,307
889.470703,318
889.587463,320
889.704163,324
889.820862,310
889.937561,321
890.054199,306
890.170837,317
890.287598,309
890.404236,312
890.520874,306
890.637634,325
890.754211,308
890.87085,338
890.987549,312
891.104187,309
891.220886,304
891.337463,326
891.454102,317
891.57074,317
891.687378,323
891.804077,310
891.920654,327
892.037231,309
892.15387,315
892.270447,315
892.387085,307
892.503723,324
892.6203,321
892.736877,322
892.853516,318
892.970032,317
893.08667,300
893.203186,312
893.319763,317
893.43634,326
893.552917,314
893.669556,315
893.786011,317
893.902588,320
894.019165,332
894.135681,311
894.252197,322
894.368835,318
894.485291,310
894.601868,326
894.718384,312
894.8349,299
894.951355,316
895.067932,330
895.184448,316
895.300964,319
895.417419,313
895.533936,312
895.650452,305
895.766907,322
895.883423,322
895.999878,315
896.116333,319
896.232849,316
896.349304,321
896.465759,318
896.582214,314
896.698669,325
896.815125,303
896.931641,317
897.048035,315
897.164551,324
897.280884,305
897.397339,313
897.513794,316
897.630249,330
897.746582,299
897.863098,315
897.979431,307
898.095886,313
898.212341,316
898.328674,323
898.445129,321
898.561462,313
898.677795,321
898.794312,327
898.910645,311
899.026978,318
899.143433,317
899.259766,303
899.37616,308
899.492493,323
899.608765,312
899.725159,323
899.841553,313
899.957947,332
900.07428,317
900.190552,326
900.306946,316
900.423157,316
900.53949,319
900.655884,310
900.772156,303
900.888489,316
901.004822,325
901.121033,315
901.237366,306
901.353699,317
901.46991,308
901.586304,317
901.702515,309
901.818787,320
901.93512,321
902.051331,324
902.167603,323
902.283875,320
902.400085,321
902.516418,318
902.632629,322
902.74884,315
902.865112,313
902.981384,314
903.097595,322
903.213867,311
903.330017,330
903.446289,322
903.5625,302
903.67865,319
903.794922,309
903.911072,328
904.027344,305
904.143494,324
904.259705,308
904.375916,326
904.492065,313
904.608215,314
904.724426,319
904.840576,327
904.956726,312
905.072876,319
905.189087,324
905.305176,321
905.421387,319
905.537537,318
905.653687,330
905.769775,318
905.885925,310
906.002014,330
906.118164,329
906.234314,320
906.350403,307
906.466492,328
906.582642,321
906.69873,325
906.814758,320
906.930908,322
907.046936,314
907.163086,319
907.279175,304
907.395264,328
907.511353,312
907.62738,323
907.743408,311
907.859497,315
907.975525,313
908.091553,327
908.207703,311
908.32373,327
908.439758,309
908.555786,322
908.671814,329
908.787842,315
908.90387,317
909.019775,315
909.135864,317
909.251892,312
909.367859,302
909.483826,325
909.599854,305
909.715881,321
909.831848,317
909.947815,323
910.063782,312
910.179749,328
910.295776,324
910.411743,318
910.527649,317
910.643616,318
910.759583,294
910.875488,341
910.991455,316
911.107361,316
911.223267,311
911.339294,330
911.4552,320
911.571106,313
911.687073,306
911.802979,313
911.918823,313
912.034729,330
912.150635,313
912.266602,319
912.382446,316
912.498352,302
912.614197,320
912.730103,318
912.846008,312
