792.44574,332
792.56488,364
792.68396,396
792.80304,378
792.92218,338
793.041199,322
793.160339,320
793.279419,348
793.398499,324
793.517578,303
793.636658,324
793.755737,347
793.874817,334
793.993896,360
794.112976,337
794.232056,319
794.351074,331
794.470215,325
794.589233,320
794.708313,330
794.827393,329
794.946411,330
795.065552,342
795.18457,340
795.303589,321
795.422668,330
795.541687,332
795.660767,321
795.779846,320
795.898865,324
796.017883,340
796.136963,332
796.255981,329
796.375061,338
796.49408,335
796.613037,332
796.732117,325
796.851135,324
796.970154,328
797.089233,318
797.208191,333
797.327271,331
797.446228,331
797.565186,330
797.684265,321
797.803223,341
797.922241,313
798.04126,331
798.160278,327
798.279297,348
798.398315,323
798.517273,329
798.636292,338
798.75531,338
798.874268,333
798.993286,323
799.112244,328
799.231323,315
799.350281,324
799.469238,337
799.588257,331
799.707153,332
799.826111,339
799.945129,330
800.064087,326
800.183044,337
800.302063,325
800.421021,325
800.539978,323
800.658936,325
800.777893,335
800.896912,339
801.015747,327
801.134705,315
801.253723,335
801.37262,321
801.491638,338
801.610535,318
801.729492,332
801.84845,328
801.967407,334
802.086243,339
802.205261,337
802.324158,320
802.443115,341
802.562073,335
802.680969,333
802.799927,325
802.918762,313
803.037659,331
803.156677,341
803.275574,344
803.39447,340
803.513428,332
803.632263,337
803.751221,335
803.870117,334
803.989014,326
804.107971,340
804.226746,325
804.345642,337
804.4646,327
804.583496,329
804.702393,333
804.821228,322
804.940125,334
805.059021,331
805.177917,329
805.296814,333
805.415649,322
805.534546,331
805.653442,329
805.772278,335
805.891113,328
806.01001,342
806.128906,342
806.247742,336
806.366577,324
806.485413,346
806.604309,339
806.723145,319
806.84198,330
806.960876,328
807.079712,345
807.198486,322
807.317383,328
807.436218,330
807.554993,328
807.673889,330
807.792725,331
807.91156,334
808.030396,333
808.14917,332
808.268005,338
808.386841,330
808.505676,348
808.624451,326
808.743286,349
808.862122,336
808.980896,328
809.099731,315
809.218506,337
809.337341,332
809.456116,328
809.57489,336
809.693726,329
809.8125,329
809.931274,331
810.050049,335
810.168884,340
810.287659,349
810.406372,330
810.525269,327
810.643982,332
810.762756,332
810.881531,331
811.000305,336
811.11908,340
811.237854,345
811.356567,326
811.475403,336
811.594116,325
811.71283,328
811.831604,334
811.950378,321
812.069153,323
812.187927,328
812.30658,336
812.425415,328
812.544128,347
812.662781,325
812.781616,332
812.900269,326
813.019043,327
813.137756,320
813.256531,319
813.375244,323
813.493896,331
813.612671,337
813.731384,329
813.850037,332
813.96875,332
814.087524,332
814.206238,341
814.324951,335
814.443604,337
814.562256,334
814.68103,337
814.799683,334
814.918335,339
815.037109,317
815.155762,347
815.274475,332
815.393188,328
815.511841,339
815.630554,330
815.749146,338
815.867859,329
815.986572,340
816.105164,323
816.223877,329
816.342529,339
816.461182,338
816.579895,326
816.698486,326
816.817139,325
816.935791,322
817.054504,332
817.173096,325
817.291748,333
817.4104,328
817.529053,336
817.647644,326
817.766235,336
817.884949,322
818.00354,317
818.122192,328
818.240845,318
818.359436,318
818.478088,324
818.59668,335
818.715271,315
818.833923,317
818.952515,319
819.071106,326
819.189758,326
819.30835,342
819.426941,333
819.545532,316
819.664124,334
819.782715,322
819.901306,323
820.019897,332
820.138489,320
820.25708,323
820.375671,320
820.494202,329
820.612732,330
820.731384,305
820.849915,329
820.968506,325
821.087097,327
821.205627,315
821.324158,321
821.442749,322
821.561279,331
821.679871,326
821.798401,325
821.916931,324
822.035461,317
822.154053,318
822.272583,331
822.391174,323
822.509583,327
822.628174,331
822.746704,317
822.865234,331
822.983765,323
823.102295,300
823.220825,333
823.339294,318
823.457825,309
823.576355,319
823.694824,318
823.813354,324
823.931885,313
824.050354,317
824.168884,324
824.287354,317
824.405823,330
824.524353,318
824.642822,340
824.761353,315
824.879822,310
824.998291,314
825.116699,328
825.235291,316
825.353699,327
825.472168,326
825.590637,326
825.709106,322
825.827576,324
825.946045,321
826.064453,315
826.182983,317
826.301392,332
826.4198,322
826.53833,313
826.656738,303
826.775208,306
826.893677,313
827.012024,311
827.130493,316
827.248962,314
827.36731,308
827.485779,322
827.604248,319
827.722595,324
827.841064,318
827.959412,315
828.077942,321
828.196289,324
828.314636,328
828.433105,318
828.551514,323
828.669861,316
828.78833,311
828.906677,316
829.025085,320
829.143433,317
829.261841,318
829.38031,317
829.498657,315
829.617004,317
829.735413,308
829.85376,315
829.972107,321
830.090515,316
830.208862,329
830.327209,317
830.445557,310
830.563904,313
830.682312,306
830.800659,321
830.919006,312
831.037354,309
831.155701,308
831.274048,327
831.392395,296
831.51062,319
831.629028,321
831.747314,310
831.865662,313
831.984009,330
832.102356,315
832.220642,308
832.338928,314
832.457275,319
832.575623,321
832.693909,311
832.812134,313
832.930481,326
833.048828,314
833.167114,321
833.2854,301
833.403687,319
833.521973,316
833.640259,316
833.758545,316
833.876831,313
833.995056,328
834.113281,323
834.231628,316
834.349915,314
834.468201,313
834.586426,306
834.704651,322
834.822998,312
834.941162,328
835.059448,315
835.177673,334
835.295959,325
835.414246,312
835.53241,324
835.650635,314
835.768921,318
835.887146,304
836.005371,337
836.123596,308
836.241821,308
836.360046,320
836.478271,318
836.596497,312
836.714722,327
836.832886,311
836.95105,322
837.069336,319
837.1875,319
837.305725,307
837.423889,323
837.542053,322
837.660339,320
837.778503,328
837.896667,317
838.014832,322
838.132996,312
838.25116,322
838.369385,325
838.487488,324
838.605713,312
838.723877,323
838.84198,315
838.960205,314
839.078308,318
839.196472,323
839.314636,302
839.4328,323
839.550964,326
839.669067,305
839.787231,339
839.905396,315
840.023499,330
840.141602,322
840.259766,328
840.377869,312
840.495972,319
840.614136,323
840.732239,311
840.850342,319
840.968445,321
841.086548,321
841.204651,313
841.322754,320
841.440918,322
841.55896,313
841.677002,311
841.795166,317
841.913208,311
842.031311,309
842.149353,325
842.267456,311
842.385498,325
842.503601,318
842.621643,311
842.739746,310
842.857788,321
842.97583,306
843.093933,333
843.211975,310
843.330017,317
843.44812,310
843.566101,317
843.684204,333
843.802246,320
843.920227,316
844.038269,309
844.156311,309
844.274292,319
844.392395,309
844.510376,315
844.628357,326
844.74646,303
844.864441,318
844.982422,315
845.100403,314
845.218384,322
845.336426,309
845.454468,325
845.572449,316
845.69043,312
845.808411,319
845.926453,316
846.044373,327
846.162354,326
846.280396,315
846.398315,310
846.516296,318
846.634216,321
846.752197,322
846.870178,319
846.988098,322
847.106079,322
847.22406,311
847.34198,313
847.4599,313
847.577881,309
847.695801,302
847.813782,307
847.931641,328
848.049561,304
848.167603,298
848.285461,311
848.403381,309
848.521362,305
848.639221,323
848.75708,316
848.875,325
848.99292,310
849.110901,318
849.22876,311
849.34668,317
849.464539,316
849.582458,318
849.700317,315
849.818176,297
849.936096,323
850.053955,302
850.171875,322
850.289673,336
850.407593,314
850.525452,313
850.643311,318
850.761169,317
850.878967,319
850.996887,318
851.114746,309
851.232544,321
851.350403,312
851.468262,317
851.58606,331
851.703979,306
851.821777,330
851.939636,314
852.057434,314
852.175232,319
852.293091,318
852.410889,312
852.528687,324
852.646545,319
852.764343,323
852.88208,317
852.999939,322
853.117676,317
853.235535,305
853.353271,316
853.471069,304
853.588928,316
853.706604,325
853.824402,309
853.9422,318
854.059998,326
854.177734,309
854.295532,325
854.413269,309
854.531006,297
854.648804,317
854.766541,317
854.884277,321
855.002014,314
855.119751,317
855.237549,329
855.355225,325
855.473022,312
855.590698,307
855.708435,319
855.826172,320
855.943848,330
856.061646,325
856.179321,317
856.296997,313
856.414795,301
856.53241,319
856.650085,316
856.767822,313
856.885559,317
857.003174,322
857.120911,324
857.238586,314
857.356201,319
857.473938,326
857.591614,311
857.709351,315
857.826965,323
857.944641,321
858.062317,324
858.179993,318
858.297668,303
858.415283,334
858.532959,310
858.650574,315
858.768188,329
858.885803,314
859.003479,307
859.121094,320
859.23877,304
859.356384,311
859.473999,327
859.591675,328
859.709229,327
859.826843,311
859.944458,315
860.062012,315
860.179626,312
860.297302,312
860.414856,308
860.532471,316
860.650024,333
860.767639,318
860.885193,307
861.002808,321
861.120361,314
861.237976,308
861.35553,314
861.473022,315
861.590698,325
861.708191,329
861.825745,312
861.943298,324
862.060852,311
862.178406,329
862.295959,323
862.413513,323
862.531006,330
862.64856,326
862.766113,321
862.883667,325
863.00116,304
863.118713,324
863.236206,316
863.353699,320
863.471252,310
863.588745,307
863.706177,316
863.82373,309
863.941162,329
864.058716,314
864.176208,303
864.29364,319
864.411194,310
864.528687,308
864.646118,303
864.763611,322
864.881042,315
864.998535,316
865.116028,316
865.233459,312
865.350891,314
865.468384,320
865.585754,323
865.703308,321
865.820679,313
865.938171,315
866.055542,316
866.173035,316
866.290466,312
866.407837,333
866.52533,332
866.6427,320
866.760071,333
866.877563,319
866.994934,320
867.112305,323
867.229736,320
867.347107,316
867.464539,319
867.58197,324
867.699341,322
867.81665,326
867.934082,300
868.051453,323
868.168823,305
868.286194,308
868.403564,307
868.520935,317
868.638306,320
868.755676,314
868.872986,329
868.990295,309
869.107727,317
869.225037,319
869.342346,311
869.459717,319
869.577026,315
869.694336,322
869.811707,311
869.929016,320
870.046326,317
870.163635,314
870.280945,319
870.398254,313
870.515564,321
870.632812,322
870.750183,310
870.867432,327
870.984741,317
871.102051,311
871.219299,309
871.336609,338
871.453918,328
871.571106,318
871.688416,325
871.805664,321
871.922852,312
872.040222,329
872.157471,329
872.274719,309
872.391968,303
872.509155,329
872.626465,306
872.743652,312
872.860962,304
872.978149,310
873.095337,319
873.212646,309
873.329834,309
873.44696,326
873.564209,303
873.681396,319
873.798645,323
873.915894,327
874.03302,317
874.150208,317
874.267456,319
874.384583,331
874.501831,320
874.618958,318
874.736145,318
874.853333,317
874.970459,299
875.087646,300
875.204834,323
875.32196,329
875.439148,326
875.556274,319
875.673401,308
875.790527,316
875.907715,312
876.024841,319
876.141968,311
876.259094,315
876.376282,326
876.493347,321
876.610474,317
876.7276,308
876.844727,314
876.961853,316
877.078918,322
877.195984,312
877.313171,313
877.430237,330
877.547302,325
877.664368,324
877.781433,315
877.898499,331
878.015625,319
878.13269,329
878.249695,312
878.366821,320
878.483887,312
878.600952,327
878.717957,318
878.834961,314
878.952087,313
879.069092,316
879.186157,329
879.303162,301
879.420227,322
879.537231,322
879.654236,320
879.77124,305
879.888306,317
880.005249,315
880.122314,309
880.239319,334
880.356323,317
880.473328,313
880.590271,315
880.707275,315
880.824341,317
880.941284,309
881.058228,314
881.175232,315
881.292236,315
881.40918,318
881.526123,320
881.643066,320
881.760071,303
881.877014,329
881.993958,322
882.11084,311
882.227783,313
882.344727,313
882.46167,310
882.578613,316
882.695618,333
882.812439,335
882.929382,314
883.046326,322
883.163208,319
883.280151,308
883.397034,308
883.513916,316
883.630798,314
883.747742,315
883.864563,316
883.981506,319
884.098389,321
884.21521,326
884.332153,312
884.448975,315
884.565796,330
884.682678,329
884.7995,317
884.916443,319
885.033264,308
885.150085,316
885.266968,325
885.383789,321
885.500671,327
885.617493,315
885.734314,314
885.851196,311
885.967896,310
886.084717,325
886.201599,308
886.318359,323
886.435181,316
886.552002,306
886.668762,313
886.785645,310
886.902344,317
887.019165,310
887.135925,332
887.252747,309
887.369446,308
887.486267,327
887.603027,307
887.719788,330
887.836548,319
887.953247,325
888.070068,319
888.186829,311
888.303528,314
888.420288,326
888.536987,309
888.653687,312
888.770447,315
888.887146,330
889.003967,311
889.120667,306
889.237305,328
889.354065,312
889.470703,320
889.587463,320
889.704163,314
889.820862,326
889.937561,311
890.054199,317
890.170837,321
890.287598,318
890.404236,316
890.520874,327
890.637634,316
890.754211,318
890.87085,317
890.987549,315
891.104187,316
891.220886,328
891.337463,309
891.454102,322
891.57074,311
891.687378,323
891.804077,328
891.920654,331
892.037231,307
892.15387,312
892.270447,313
892.387085,328
892.503723,332
892.6203,314
892.736877,331
892.853516,319
892.970032,318
893.08667,328
893.203186,319
893.319763,327
893.43634,326
893.552917,324
893.669556,317
893.786011,311
893.902588,316
894.019165,329
894.135681,318
894.252197,319
894.368835,319
894.485291,331
894.601868,321
894.718384,323
894.8349,312
894.951355,316
895.067932,314
895.184448,316
895.300964,319
895.417419,313
895.533936,323
895.650452,350
895.766907,324
895.883423,320
895.999878,308
896.116333,327
896.232849,323
896.349304,327
896.465759,321
896.582214,314
896.698669,323
896.815125,317
896.931641,298
897.048035,336
897.164551,307
897.280884,321
897.397339,321
897.513794,306
897.630249,319
897.746582,316
897.863098,314
897.979431,323
898.095886,331
898.212341,313
898.328674,321
898.445129,324
898.561462,315
898.677795,305
898.794312,327
898.910645,317
899.026978,317
899.143433,320
899.259766,321
899.37616,326
899.492493,315
899.608765,310
899.725159,318
899.841553,322
899.957947,341
900.07428,327
900.190552,322
900.306946,324
900.423157,328
900.53949,317
900.655884,321
900.772156,317
900.888489,323
901.004822,317
901.121033,315
901.237366,326
901.353699,317
901.46991,331
901.586304,317
901.702515,324
901.818787,314
901.93512,310
902.051331,319
902.167603,312
902.283875,321
902.400085,327
902.516418,320
902.632629,335
902.74884,310
902.865112,322
902.981384,311
903.097595,330
903.213867,319
903.330017,317
903.446289,318
903.5625,327
903.67865,316
903.794922,333
903.911072,321
904.027344,332
904.143494,313
904.259705,322
904.375916,314
904.492065,315
904.608215,311
904.724426,317
904.840576,306
904.956726,319
905.072876,319
905.189087,318
905.305176,312
905.421387,318
905.537537,312
905.653687,328
905.769775,331
905.885925,324
906.002014,324
906.118164,308
906.234314,320
906.350403,317
906.466492,320
906.582642,322
906.69873,309
906.814758,322
906.930908,329
907.046936,306
907.163086,322
907.279175,319
907.395264,327
907.511353,321
907.62738,309
907.743408,308
907.859497,313
907.975525,316
908.091553,325
908.207703,318
908.32373,327
908.439758,329
908.555786,332
908.671814,322
908.787842,325
908.90387,312
909.019775,319
909.135864,312
909.251892,311
909.367859,307
909.483826,337
909.599854,328
909.715881,322
909.831848,317
909.947815,323
910.063782,315
910.179749,320
910.295776,334
910.411743,311
910.527649,329
910.643616,319
910.759583,320
910.875488,301
910.991455,334
911.107361,331
911.223267,321
911.339294,309
911.4552,330
911.571106,318
911.687073,331
911.802979,318
911.918823,320
912.034729,323
912.150635,335
912.266602,311
912.382446,315
912.498352,320
912.614197,314
912.730103,317
912.846008,320
792.44574,325
792.56488,340
792.68396,423
792.80304,366
792.92218,334
793.041199,305
793.160339,331
793.279419,344
793.398499,328
793.517578,317
793.636658,332
793.755737,319
793.874817,336
793.993896,340
794.112976,338
794.232056,329
794.351074,321
794.470215,339
794.589233,312
794.708313,315
794.827393,331
794.946411,332
795.065552,350
795.18457,341
795.303589,329
795.422668,336
795.541687,322
795.660767,323
795.779846,346
795.898865,327
796.017883,341
796.136963,330
796.255981,325
796.375061,330
796.49408,336
796.613037,329
796.732117,317
796.851135,326
796.970154,337
797.089233,325
797.208191,336
797.327271,334
797.446228,321
797.565186,336
797.684265,331
797.803223,338
797.922241,313
798.04126,332
798.160278,329
798.279297,319
798.398315,322
798.517273,327
798.636292,319
798.75531,348
798.874268,325
798.993286,333
799.112244,325
799.231323,339
799.350281,334
799.469238,331
799.588257,336
799.707153,326
799.826111,339
799.945129,330
800.064087,325
800.183044,331
800.302063,340
800.421021,313
800.539978,327
800.658936,327
800.777893,328
800.896912,338
801.015747,320
801.134705,319
801.253723,328
801.37262,342
801.491638,328
801.610535,336
801.729492,328
801.84845,326
801.967407,344
802.086243,323
802.205261,332
802.324158,334
802.443115,330
802.562073,335
802.680969,325
802.799927,335
802.918762,320
803.037659,326
803.156677,337
803.275574,321
803.39447,321
803.513428,335
803.632263,331
803.751221,323
803.870117,331
803.989014,334
804.107971,315
804.226746,348
804.345642,323
804.4646,332
804.583496,333
804.702393,340
804.821228,342
804.940125,347
805.059021,313
805.177917,332
805.296814,322
805.415649,336
805.534546,327
805.653442,326
805.772278,348
805.891113,334
806.01001,346
806.128906,332
806.247742,343
806.366577,326
806.485413,336
806.604309,332
806.723145,338
806.84198,338
806.960876,327
807.079712,312
807.198486,330
807.317383,321
807.436218,332
807.554993,327
807.673889,344
807.792725,331
807.91156,325
808.030396,323
808.14917,328
808.268005,333
808.386841,332
808.505676,345
808.624451,335
808.743286,348
808.862122,328
808.980896,337
809.099731,334
809.218506,330
809.337341,328
809.456116,324
809.57489,338
809.693726,325
809.8125,330
809.931274,327
810.050049,345
810.168884,326
810.287659,331
810.406372,329
810.525269,332
810.643982,329
810.762756,324
810.881531,329
811.000305,327
811.11908,318
811.237854,324
811.356567,335
811.475403,331
811.594116,326
811.71283,336
811.831604,336
811.950378,327
812.069153,342
812.187927,350
812.30658,326
812.425415,338
812.544128,326
812.662781,346
812.781616,337
812.900269,329
813.019043,322
813.137756,325
813.256531,336
813.375244,344
813.493896,332
813.612671,336
813.731384,338
813.850037,321
813.96875,344
814.087524,336
814.206238,336
814.324951,345
814.443604,324
814.562256,347
814.68103,321
814.799683,338
814.918335,327
815.037109,330
815.155762,320
815.274475,342
815.393188,342
815.511841,321
815.630554,329
815.749146,329
815.867859,324
815.986572,328
816.105164,338
816.223877,340
816.342529,326
816.461182,329
816.579895,335
816.698486,336
816.817139,333
816.935791,328
817.054504,331
817.173096,338
817.291748,333
817.4104,339
817.529053,326
817.647644,328
817.766235,321
817.884949,323
818.00354,341
818.122192,322
818.240845,325
818.359436,325
818.478088,319
818.59668,321
818.715271,324
818.833923,323
818.952515,322
819.071106,330
819.189758,321
819.30835,329
819.426941,318
819.545532,335
819.664124,311
819.782715,334
819.901306,313
820.019897,331
820.138489,307
820.25708,326
820.375671,315
820.494202,308
820.612732,323
820.731384,314
820.849915,322
820.968506,318
821.087097,322
821.205627,314
821.324158,318
821.442749,317
821.561279,321
821.679871,319
821.798401,314
821.916931,321
822.035461,317
822.154053,313
822.272583,314
822.391174,316
822.509583,313
822.628174,325
822.746704,316
822.865234,321
822.983765,311
823.102295,331
823.220825,322
823.339294,322
823.457825,305
823.576355,332
823.694824,319
823.813354,318
823.931885,312
824.050354,313
824.168884,314
824.287354,325
824.405823,326
824.524353,330
824.642822,309
824.761353,307
824.879822,305
824.998291,313
825.116699,323
825.235291,319
825.353699,322
825.472168,317
825.590637,303
825.709106,329
825.827576,304
825.946045,332
826.064453,319
826.182983,311
826.301392,315
826.4198,321
826.53833,314
826.656738,311
826.775208,326
826.893677,325
827.012024,318
827.130493,313
827.248962,318
827.36731,317
827.485779,322
827.604248,319
827.722595,313
827.841064,332
827.959412,315
828.077942,304
828.196289,322
828.314636,310
828.433105,325
828.551514,318
828.669861,307
828.78833,307
828.906677,313
829.025085,305
829.143433,316
829.261841,326
829.38031,306
829.498657,325
829.617004,318
829.735413,328
829.85376,320
829.972107,323
830.090515,316
830.208862,318
830.327209,317
830.445557,325
830.563904,322
830.682312,317
830.800659,310
830.919006,310
831.037354,315
831.155701,313
831.274048,313
831.392395,322
831.51062,319
831.629028,325
831.747314,312
831.865662,300
831.984009,319
832.102356,319
832.220642,340
832.338928,318
832.457275,315
832.575623,302
832.693909,306
832.812134,310
832.930481,325
833.048828,321
833.167114,325
833.2854,321
833.403687,317
833.521973,315
833.640259,310
833.758545,319
833.876831,325
833.995056,323
834.113281,316
834.231628,320
834.349915,319
834.468201,326
834.586426,308
834.704651,323
834.822998,315
834.941162,316
835.059448,306
835.177673,329
835.295959,323
835.414246,310
835.53241,302
835.650635,317
835.768921,320
835.887146,321
836.005371,311
836.123596,312
836.241821,326
836.360046,319
836.478271,317
836.596497,312
836.714722,304
836.832886,329
836.95105,302
837.069336,326
837.1875,297
837.305725,323
837.423889,323
837.542053,326
837.660339,319
837.778503,322
837.896667,323
838.014832,332
838.132996,326
838.25116,320
838.369385,317
838.487488,310
838.605713,319
838.723877,318
838.84198,320
838.960205,330
839.078308,314
839.196472,331
839.314636,319
839.4328,321
839.550964,313
839.669067,314
839.787231,321
839.905396,323
840.023499,305
840.141602,323
840.259766,312
840.377869,312
840.495972,311
840.614136,311
840.732239,310
840.850342,310
840.968445,319
841.086548,314
841.204651,319
841.322754,323
841.440918,326
841.55896,324
841.677002,302
841.795166,321
841.913208,318
842.031311,324
842.149353,321
842.267456,316
842.385498,319
842.503601,313
842.621643,314
842.739746,313
842.857788,322
842.97583,317
843.093933,299
843.211975,312
843.330017,306
843.44812,321
843.566101,317
843.684204,333
843.802246,315
843.920227,319
844.038269,314
844.156311,316
844.274292,317
844.392395,329
844.510376,317
844.628357,313
844.74646,303
844.864441,317
844.982422,309
845.100403,325
845.218384,299
845.336426,322
845.454468,323
845.572449,314
845.69043,315
845.808411,310
845.926453,310
846.044373,310
846.162354,315
846.280396,312
846.398315,322
846.516296,328
846.634216,306
846.752197,308
846.870178,321
846.988098,322
847.106079,320
847.22406,314
847.34198,319
847.4599,330
847.577881,315
847.695801,322
847.813782,314
847.931641,321
848.049561,312
848.167603,315
848.285461,321
848.403381,318
848.521362,317
848.639221,308
848.75708,310
848.875,325
848.99292,306
849.110901,316
849.22876,320
849.34668,317
849.464539,305
849.582458,319
849.700317,313
849.818176,320
849.936096,301
850.053955,316
850.171875,317
850.289673,327
850.407593,302
850.525452,332
850.643311,312
850.761169,317
850.878967,309
850.996887,321
851.114746,321
851.232544,322
851.350403,311
851.468262,320
851.58606,318
851.703979,320
851.821777,315
851.939636,333
852.057434,320
852.175232,309
852.293091,319
852.410889,313
852.528687,318
852.646545,310
852.764343,320
852.88208,315
852.999939,316
853.117676,309
853.235535,312
853.353271,325
853.471069,310
853.588928,323
853.706604,312
853.824402,307
853.9422,311
854.059998,320
854.177734,302
854.295532,319
854.413269,315
854.531006,299
854.648804,335
854.766541,324
854.884277,314
855.002014,330
855.119751,315
855.237549,319
855.355225,320
855.473022,317
855.590698,321
855.708435,324
855.826172,318
855.943848,321
856.061646,313
856.179321,318
856.296997,334
856.414795,318
856.53241,321
856.650085,315
856.767822,312
856.885559,323
857.003174,320
857.120911,314
857.238586,330
857.356201,321
857.473938,315
857.591614,334
857.709351,320
857.826965,298
857.944641,309
858.062317,318
858.179993,325
858.297668,305
858.415283,310
858.532959,319
858.650574,334
858.768188,315
858.885803,316
859.003479,316
859.121094,320
859.23877,321
859.356384,303
859.473999,312
859.591675,313
859.709229,318
859.826843,307
859.944458,318
860.062012,309
860.179626,312
860.297302,314
860.414856,307
860.532471,310
860.650024,309
860.767639,299
860.885193,316
861.002808,316
861.120361,314
861.237976,324
861.35553,316
861.473022,310
861.590698,318
861.708191,329
861.825745,309
861.943298,318
862.060852,316
862.178406,300
862.295959,320
862.413513,314
862.531006,323
862.64856,314
862.766113,323
862.883667,315
863.00116,325
863.118713,329
863.236206,320
863.353699,315
863.471252,315
863.588745,335
863.706177,309
863.82373,324
863.941162,315
864.058716,316
864.176208,327
864.29364,309
864.411194,321
864.528687,317
864.646118,327
864.763611,304
864.881042,320
864.998535,316
865.116028,320
865.233459,305
865.350891,305
865.468384,320
865.585754,317
865.703308,323
865.820679,313
865.938171,305
866.055542,319
866.173035,315
866.290466,315
866.407837,319
866.52533,321
866.6427,325
866.760071,319
866.877563,307
866.994934,325
867.112305,311
867.229736,313
867.347107,329
867.464539,320
867.58197,308
867.699341,317
867.81665,308
867.934082,320
868.051453,310
868.168823,320
868.286194,313
868.403564,322
868.520935,318
868.638306,325
868.755676,320
868.872986,314
868.990295,321
869.107727,303
869.225037,316
869.342346,327
869.459717,320
869.577026,322
869.694336,317
869.811707,323
869.929016,313
870.046326,323
870.163635,316
870.280945,327
870.398254,313
870.515564,311
870.632812,313
870.750183,336
870.867432,307
870.984741,323
871.102051,316
871.219299,352
871.336609,309
871.453918,307
871.571106,316
871.688416,316
871.805664,306
871.922852,323
872.040222,318
872.157471,317
872.274719,323
872.391968,314
872.509155,329
872.626465,332
872.743652,315
872.860962,301
872.978149,317
873.095337,325
873.212646,314
873.329834,321
873.44696,321
873.564209,321
873.681396,327
873.798645,321
873.915894,314
874.03302,313
874.150208,300
874.267456,332
874.384583,335
874.501831,321
874.618958,307
874.736145,314
874.853333,313
874.970459,331
875.087646,331
875.204834,326
875.32196,317
875.439148,325
875.556274,311
875.673401,330
875.790527,318
875.907715,324
876.024841,319
876.141968,314
876.259094,315
876.376282,309
876.493347,327
876.610474,314
876.7276,321
876.844727,327
876.961853,307
877.078918,315
877.195984,323
877.313171,316
877.430237,315
877.547302,317
877.664368,320
877.781433,321
877.898499,309
878.015625,316
878.13269,300
878.249695,331
878.366821,318
878.483887,313
878.600952,321
878.717957,328
878.834961,316
878.952087,318
879.069092,313
879.186157,328
879.303162,312
879.420227,328
879.537231,328
879.654236,318
879.77124,313
879.888306,315
880.005249,313
880.122314,333
880.239319,308
880.356323,325
880.473328,326
880.590271,333
880.707275,311
880.824341,319
880.941284,308
881.058228,331
881.175232,314
881.292236,321
881.40918,312
881.526123,320
881.643066,318
881.760071,326
881.877014,320
881.993958,321
882.11084,317
882.227783,317
882.344727,318
882.46167,322
882.578613,310
882.695618,318
882.812439,309
882.929382,315
883.046326,332
883.163208,315
883.280151,310
883.397034,311
883.513916,309
883.630798,320
883.747742,319
883.864563,324
883.981506,311
884.098389,321
884.21521,322
884.332153,315
884.448975,319
884.565796,313
884.682678,313
884.7995,315
884.916443,315
885.033264,325
885.150085,313
885.266968,312
885.383789,321
885.500671,318
885.617493,316
885.734314,327
885.851196,317
885.967896,325
886.084717,314
886.201599,312
886.318359,319
886.435181,321
886.552002,324
886.668762,325
886.785645,315
886.902344,325
887.019165,310
887.135925,330
887.252747,308
887.369446,323
887.486267,307
887.603027,320
887.719788,313
887.836548,319
887.953247,320
888.070068,316
888.186829,313
888.303528,323
888.420288,317
888.536987,331
888.653687,321
888.770447,324
888.887146,316
889.003967,321
889.120667,310
889.237305,321
889.354065,300
889.470703,326
889.587463,324
889.704163,322
889.820862,325
889.937561,323
890.054199,316
890.170837,329
890.287598,311
890.404236,320
890.520874,315
890.637634,326
890.754211,322
890.87085,320
890.987549,322
891.104187,317
891.220886,324
891.337463,328
891.454102,309
891.57074,328
891.687378,302
891.804077,306
891.920654,311
892.037231,322
892.15387,320
892.270447,327
892.387085,327
892.503723,320
892.6203,311
892.736877,327
892.853516,317
892.970032,316
893.08667,328
893.203186,323
893.319763,299
893.43634,328
893.552917,305
893.669556,325
893.786011,320
893.902588,315
894.019165,320
894.135681,319
894.252197,320
894.368835,310
894.485291,314
894.601868,323
894.718384,310
894.8349,312
894.951355,325
895.067932,330
895.184448,324
895.300964,315
895.417419,305
895.533936,325
895.650452,318
895.766907,322
895.883423,307
895.999878,333
896.116333,307
896.232849,320
896.349304,317
896.465759,320
896.582214,323
896.698669,315
896.815125,318
896.931641,324
897.048035,316
897.164551,326
897.280884,301
897.397339,322
897.513794,316
897.630249,304
897.746582,303
897.863098,325
897.979431,324
898.095886,323
898.212341,322
898.328674,319
898.445129,326
898.561462,316
898.677795,323
898.794312,332
898.910645,301
899.026978,319
899.143433,303
899.259766,318
899.37616,322
899.492493,322
899.608765,322
899.725159,329
899.841553,298
899.957947,310
900.07428,314
900.190552,312
900.306946,315
900.423157,317
900.53949,318
900.655884,324
900.772156,315
900.888489,326
901.004822,315
901.121033,328
901.237366,315
901.353699,328
901.46991,297
901.586304,322
901.702515,316
901.818787,332
901.93512,325
902.051331,323
902.167603,323
902.283875,319
902.400085,307
902.516418,330
902.632629,321
902.74884,323
902.865112,310
902.981384,312
903.097595,330
903.213867,317
903.330017,310
903.446289,324
903.5625,311
903.67865,320
903.794922,319
903.911072,306
904.027344,312
904.143494,314
904.259705,322
904.375916,335
904.492065,314
904.608215,321
904.724426,315
904.840576,335
904.956726,307
905.072876,329
905.189087,311
905.305176,328
905.421387,320
905.537537,328
905.653687,306
905.769775,308
905.885925,314
906.002014,324
906.118164,316
906.234314,318
906.350403,321
906.466492,312
906.582642,319
906.69873,313
906.814758,306
906.930908,316
907.046936,309
907.163086,320
907.279175,317
907.395264,316
907.511353,331
907.62738,324
907.743408,318
907.859497,323
907.975525,334
908.091553,335
908.207703,312
908.32373,321
908.439758,325
908.555786,325
908.671814,306
908.787842,323
908.90387,303
909.019775,334
909.135864,323
909.251892,333
909.367859,311
909.483826,330
909.599854,314
909.715881,308
909.831848,331
909.947815,324
910.063782,310
910.179749,311
910.295776,314
910.411743,326
910.527649,324
910.643616,326
910.759583,325
910.875488,329
910.991455,321
911.107361,319
911.223267,313
911.339294,324
911.4552,310
911.571106,320
911.687073,315
911.802979,309
911.918823,313
912.034729,331
912.150635,325
912.266602,326
912.382446,315
912.498352,314
912.614197,327
912.730103,311
912.846008,313
792.44574,310
792.56488,349
792.68396,393
792.80304,384
792.92218,316
793.041199,318
793.160339,318
793.279419,331
793.398499,320
793.517578,324
793.636658,327
793.755737,321
793.874817,342
793.993896,344
794.112976,341
794.232056,325
794.351074,330
794.470215,320
794.589233,330
794.708313,323
794.827393,333
794.946411,337
795.065552,338
795.18457,346
795.303589,326
795.422668,330
795.541687,329
795.660767,340
795.779846,335
795.898865,326
796.017883,323
796.136963,334
796.255981,323
796.375061,345
796.49408,325
796.613037,336
796.732117,342
796.851135,325
796.970154,330
797.089233,327
797.208191,328
797.327271,342
797.446228,335
797.565186,322
797.684265,322
797.803223,328
797.922241,335
798.04126,329
798.160278,331
798.279297,338
798.398315,314
798.517273,320
798.636292,330
798.75531,333
798.874268,332
798.993286,333
799.112244,319
799.231323,328
799.350281,339
799.469238,322
799.588257,332
799.707153,333
799.826111,326
799.945129,328
800.064087,324
800.183044,340
800.302063,328
800.421021,328
800.539978,331
800.658936,319
800.777893,319
800.896912,327
801.015747,338
801.134705,325
801.253723,333
801.37262,326
801.491638,326
801.610535,320
801.729492,334
801.84845,320
801.967407,332
802.086243,314
802.205261,338
802.324158,344
802.443115,311
802.562073,340
802.680969,336
802.799927,323
802.918762,343
803.037659,322
803.156677,348
803.275574,328
803.39447,330
803.513428,338
803.632263,329
803.751221,336
803.870117,333
803.989014,317
804.107971,331
804.226746,333
804.345642,341
804.4646,335
804.583496,332
804.702393,330
804.821228,339
804.940125,322
805.059021,325
805.177917,334
805.296814,319
805.415649,326
805.534546,327
805.653442,329
805.772278,336
805.891113,322
806.01001,332
806.128906,344
806.247742,331
806.366577,333
806.485413,328
806.604309,335
806.723145,342
806.84198,341
806.960876,341
807.079712,346
807.198486,333
807.317383,318
807.436218,328
807.554993,328
807.673889,338
807.792725,337
807.91156,339
808.030396,320
808.14917,335
808.268005,325
808.386841,319
808.505676,332
808.624451,340
808.743286,338
808.862122,331
808.980896,330
809.099731,345
809.218506,326
809.337341,339
809.456116,333
809.57489,336
809.693726,335
809.8125,326
809.931274,324
810.050049,333
810.168884,329
810.287659,330
810.406372,328
810.525269,325
810.643982,332
810.762756,337
810.881531,332
811.000305,326
811.11908,336
811.237854,333
811.356567,334
811.475403,346
811.594116,332
811.71283,344
811.831604,326
811.950378,328
812.069153,337
812.187927,322
812.30658,342
812.425415,336
812.544128,313
812.662781,330
812.781616,326
812.900269,337
813.019043,351
813.137756,336
813.256531,345
813.375244,329
813.493896,336
813.612671,332
813.731384,329
813.850037,331
813.96875,339
814.087524,333
814.206238,345
814.324951,320
814.443604,330
814.562256,344
814.68103,348
814.799683,333
814.918335,349
815.037109,326
815.155762,335
815.274475,336
815.393188,330
815.511841,330
815.630554,321
815.749146,332
815.867859,332
815.986572,331
816.105164,332
816.223877,317
816.342529,328
816.461182,344
816.579895,333
816.698486,322
816.817139,348
816.935791,343
817.054504,334
817.173096,331
817.291748,332
817.4104,331
817.529053,329
817.647644,329
817.766235,332
817.884949,325
818.00354,322
818.122192,337
818.240845,340
818.359436,319
818.478088,329
818.59668,334
818.715271,326
818.833923,325
818.952515,320
819.071106,331
819.189758,321
819.30835,325
819.426941,316
819.545532,325
819.664124,325
819.782715,312
819.901306,321
820.019897,316
820.138489,311
820.25708,321
820.375671,335
820.494202,323
820.612732,307
820.731384,320
820.849915,315
820.968506,318
821.087097,324
821.205627,333
821.324158,315
821.442749,317
821.561279,306
821.679871,327
821.798401,306
821.916931,319
822.035461,316
822.154053,309
822.272583,324
822.391174,324
822.509583,333
822.628174,316
822.746704,313
822.865234,319
822.983765,315
823.102295,313
823.220825,326
823.339294,326
823.457825,321
823.576355,334
823.694824,304
823.813354,328
823.931885,324
824.050354,310
824.168884,318
824.287354,309
824.405823,322
824.524353,305
824.642822,323
824.761353,326
824.879822,310
824.998291,317
825.116699,320
825.235291,316
825.353699,322
825.472168,327
825.590637,321
825.709106,320
825.827576,316
825.946045,324
826.064453,328
826.182983,314
826.301392,308
826.4198,319
826.53833,302
826.656738,327
826.775208,300
826.893677,315
827.012024,312
827.130493,319
827.248962,328
827.36731,306
827.485779,321
827.604248,323
827.722595,323
827.841064,315
827.959412,322
828.077942,309
828.196289,309
828.314636,328
828.433105,314
828.551514,318
828.669861,329
828.78833,318
828.906677,324
829.025085,313
829.143433,321
829.261841,313
829.38031,313
829.498657,327
829.617004,335
829.735413,301
829.85376,309
829.972107,301
830.090515,327
830.208862,324
830.327209,321
830.445557,321
830.563904,312
830.682312,317
830.800659,315
830.919006,328
831.037354,318
831.155701,333
831.274048,311
831.392395,305
831.51062,311
831.629028,328
831.747314,319
831.865662,320
831.984009,307
832.102356,316
832.220642,324
832.338928,320
832.457275,326
832.575623,318
832.693909,317
832.812134,313
832.930481,316
833.048828,311
833.167114,316
833.2854,320
833.403687,318
833.521973,324
833.640259,322
833.758545,316
833.876831,315
833.995056,328
834.113281,327
834.231628,309
834.349915,322
834.468201,319
834.586426,328
834.704651,324
834.822998,310
834.941162,319
835.059448,316
835.177673,308
835.295959,314
835.414246,314
835.53241,321
835.650635,300
835.768921,316
835.887146,314
836.005371,320
836.123596,319
836.241821,319
836.360046,320
836.478271,317
836.596497,320
836.714722,311
836.832886,313
836.95105,328
837.069336,317
837.1875,326
837.305725,323
837.423889,318
837.542053,324
837.660339,322
837.778503,312
837.896667,323
838.014832,310
838.132996,314
838.25116,317
838.369385,322
838.487488,318
838.605713,318
838.723877,321
838.84198,318
838.960205,315
839.078308,314
839.196472,310
839.314636,310
839.4328,320
839.550964,319
839.669067,317
839.787231,322
839.905396,317
840.023499,312
840.141602,324
840.259766,324
840.377869,311
840.495972,324
840.614136,309
840.732239,321
840.850342,323
840.968445,323
841.086548,335
841.204651,327
841.322754,325
841.440918,317
841.55896,308
841.677002,309
841.795166,309
841.913208,329
842.031311,319
842.149353,319
842.267456,321
842.385498,310
842.503601,305
842.621643,322
842.739746,306
842.857788,315
842.97583,311
843.093933,319
843.211975,325
843.330017,317
843.44812,298
843.566101,318
843.684204,317
843.802246,320
843.920227,313
844.038269,317
844.156311,323
844.274292,320
844.392395,322
844.510376,311
844.628357,310
844.74646,317
844.864441,327
844.982422,312
845.100403,306
845.218384,319
845.336426,319
845.454468,301
845.572449,310
845.69043,316
845.808411,320
845.926453,312
846.044373,329
846.162354,321
846.280396,316
846.398315,328
846.516296,298
846.634216,316
846.752197,311
846.870178,330
846.988098,317
847.106079,319
847.22406,307
847.34198,322
847.4599,316
847.577881,309
847.695801,309
847.813782,314
847.931641,310
848.049561,311
848.167603,313
848.285461,334
848.403381,316
848.521362,319
848.639221,317
848.75708,317
848.875,317
848.99292,306
849.110901,312
849.22876,306
849.34668,301
849.464539,301
849.582458,315
849.700317,314
849.818176,327
849.936096,333
850.053955,299
850.171875,319
850.289673,323
850.407593,306
850.525452,311
850.643311,317
850.761169,315
850.878967,330
850.996887,323
851.114746,309
851.232544,333
851.350403,326
851.468262,311
851.58606,318
851.703979,306
851.821777,319
851.939636,309
852.057434,321
852.175232,311
852.293091,306
852.410889,321
852.528687,321
852.646545,309
852.764343,315
852.88208,315
852.999939,322
853.117676,322
853.235535,316
853.353271,307
853.471069,330
853.588928,311
853.706604,318
853.824402,331
853.9422,308
854.059998,317
854.177734,323
854.295532,322
854.413269,322
854.531006,319
854.648804,307
854.766541,314
854.884277,310
855.002014,322
855.119751,314
855.237549,323
855.355225,314
855.473022,322
855.590698,319
855.708435,332
855.826172,313
855.943848,309
856.061646,321
856.179321,318
856.296997,318
856.414795,315
856.53241,309
856.650085,306
856.767822,321
856.885559,326
857.003174,327
857.120911,319
857.238586,335
857.356201,325
857.473938,316
857.591614,315
857.709351,312
857.826965,327
857.944641,326
858.062317,312
858.179993,320
858.297668,312
858.415283,331
858.532959,317
858.650574,328
858.768188,311
858.885803,308
859.003479,318
859.121094,313
859.23877,313
859.356384,317
859.473999,309
859.591675,330
859.709229,323
859.826843,312
859.944458,322
860.062012,314
860.179626,320
860.297302,321
860.414856,328
860.532471,320
860.650024,319
860.767639,318
860.885193,327
861.002808,314
861.120361,318
861.237976,311
861.35553,315
861.473022,313
861.590698,302
861.708191,314
861.825745,321
861.943298,323
862.060852,335
862.178406,321
862.295959,310
862.413513,326
862.531006,325
862.64856,316
862.766113,316
862.883667,314
863.00116,330
863.118713,330
863.236206,318
863.353699,321
863.471252,325
863.588745,310
863.706177,319
863.82373,316
863.941162,312
864.058716,312
864.176208,313
864.29364,324
864.411194,311
864.528687,321
864.646118,320
864.763611,317
864.881042,315
864.998535,319
865.116028,311
865.233459,312
865.350891,325
865.468384,319
865.585754,326
865.703308,316
865.820679,310
865.938171,321
866.055542,307
866.173035,325
866.290466,320
866.407837,315
866.52533,305
866.6427,328
866.760071,308
866.877563,321
866.994934,318
867.112305,318
867.229736,325
867.347107,308
867.464539,311
867.58197,326
867.699341,310
867.81665,311
867.934082,311
868.051453,321
868.168823,323
868.286194,308
868.403564,309
868.520935,333
868.638306,323
868.755676,316
868.872986,316
868.990295,317
869.107727,320
869.225037,313
869.342346,321
869.459717,318
869.577026,315
869.694336,325
869.811707,309
869.929016,328
870.046326,317
870.163635,331
870.280945,325
870.398254,312
870.515564,312
870.632812,318
870.750183,319
870.867432,325
870.984741,318
871.102051,318
871.219299,305
871.336609,308
871.453918,315
871.571106,315
871.688416,318
871.805664,316
871.922852,305
872.040222,318
872.157471,308
872.274719,309
872.391968,320
872.509155,326
872.626465,329
872.743652,312
872.860962,313
872.978149,304
873.095337,314
873.212646,317
873.329834,307
873.44696,324
873.564209,306
873.681396,321
873.798645,324
873.915894,314
874.03302,315
874.150208,314
874.267456,308
874.384583,320
874.501831,308
874.618958,331
874.736145,319
874.853333,330
874.970459,314
875.087646,315
875.204834,320
875.32196,322
875.439148,324
875.556274,317
875.673401,307
875.790527,309
875.907715,316
876.024841,325
876.141968,318
876.259094,312
876.376282,323
876.493347,307
876.610474,309
876.7276,328
876.844727,315
876.961853,318
877.078918,314
877.195984,314
877.313171,298
877.430237,328
877.547302,323
877.664368,311
877.781433,311
877.898499,323
878.015625,312
878.13269,329
878.249695,315
878.366821,315
878.483887,314
878.600952,319
878.717957,325
878.834961,332
878.952087,322
879.069092,321
879.186157,314
879.303162,315
879.420227,321
879.537231,326
879.654236,312
879.77124,314
879.888306,316
880.005249,324
880.122314,307
880.239319,319
880.356323,321
880.473328,330
880.590271,315
880.707275,313
880.824341,313
880.941284,318
881.058228,325
881.175232,317
881.292236,319
881.40918,308
881.526123,310
881.643066,308
881.760071,310
881.877014,326
881.993958,312
882.11084,335
882.227783,318
882.344727,315
882.46167,320
882.578613,311
882.695618,318
882.812439,313
882.929382,317
883.046326,320
883.163208,324
883.280151,319
883.397034,337
883.513916,320
883.630798,325
883.747742,319
883.864563,327
883.981506,325
884.098389,325
884.21521,314
884.332153,324
884.448975,312
884.565796,314
884.682678,319
884.7995,310
884.916443,322
885.033264,305
885.150085,325
885.266968,309
885.383789,316
885.500671,318
885.617493,321
885.734314,319
885.851196,321
885.967896,315
886.084717,307
886.201599,328
886.318359,320
886.435181,318
886.552002,323
886.668762,297
886.785645,315
886.902344,319
887.019165,312
887.135925,327
887.252747,314
887.369446,315
887.486267,328
887.603027,322
887.719788,315
887.836548,307
887.953247,314
888.070068,328
888.186829,316
888.303528,328
888.420288,306
888.536987,301
888.653687,315
888.770447,318
888.887146,326
889.003967,312
889.120667,316
889.237305,325
889.354065,311
889.470703,307
889.587463,322
889.704163,320
889.820862,310
889.937561,320
890.054199,335
890.170837,318
890.287598,311
890.404236,325
890.520874,334
890.637634,320
890.754211,327
890.87085,311
890.987549,337
891.104187,312
891.220886,326
891.337463,318
891.454102,305
891.57074,301
891.687378,326
891.804077,316
891.920654,315
892.037231,316
892.15387,322
892.270447,321
892.387085,316
892.503723,304
892.6203,306
892.736877,319
892.853516,323
892.970032,322
893.08667,317
893.203186,322
893.319763,321
893.43634,307
893.552917,322
893.669556,319
893.786011,313
893.902588,324
894.019165,319
894.135681,316
894.252197,328
894.368835,316
894.485291,318
894.601868,326
894.718384,318
894.8349,314
894.951355,311
895.067932,316
895.184448,319
895.300964,308
895.417419,310
895.533936,316
895.650452,311
895.766907,320
895.883423,328
895.999878,310
896.116333,330
896.232849,308
896.349304,320
896.465759,320
896.582214,313
896.698669,313
896.815125,323
896.931641,321
897.048035,326
897.164551,308
897.280884,326
897.397339,329
897.513794,333
897.630249,324
897.746582,318
897.863098,323
897.979431,321
898.095886,318
898.212341,330
898.328674,323
898.445129,326
898.561462,320
898.677795,306
898.794312,323
898.910645,324
899.026978,320
899.143433,326
899.259766,327
899.37616,334
899.492493,307
899.608765,324
899.725159,336
899.841553,328
899.957947,325
900.07428,318
900.190552,320
900.306946,325
900.423157,313
900.53949,323
900.655884,312
900.772156,312
900.888489,323
901.004822,313
901.121033,315
901.237366,335
901.353699,314
901.46991,332
901.586304,316
901.702515,317
901.818787,318
901.93512,320
902.051331,310
902.167603,314
902.283875,306
902.400085,318
902.516418,321
902.632629,317
902.74884,312
902.865112,323
902.981384,323
903.097595,328
903.213867,320
903.330017,328
903.446289,328
903.5625,315
903.67865,302
903.794922,315
903.911072,317
904.027344,321
904.143494,314
904.259705,324
904.375916,312
904.492065,317
904.608215,316
904.724426,327
904.840576,326
904.956726,313
905.072876,321
905.189087,322
905.305176,313
905.421387,320
905.537537,313
905.653687,316
905.769775,338
905.885925,330
906.002014,326
906.118164,320
906.234314,317
906.350403,320
906.466492,332
906.582642,335
906.69873,320
906.814758,326
906.930908,325
907.046936,318
907.163086,318
907.279175,322
907.395264,317
907.511353,323
907.62738,322
907.743408,319
907.859497,323
907.975525,324
908.091553,312
908.207703,336
908.32373,317
908.439758,314
908.555786,309
908.671814,325
908.787842,313
908.90387,311
909.019775,313
909.135864,330
909.251892,325
909.367859,317
909.483826,321
909.599854,332
909.715881,308
909.831848,323
909.947815,323
910.063782,324
910.179749,317
910.295776,323
910.411743,307
910.527649,320
910.643616,312
910.759583,332
910.875488,306
910.991455,317
911.107361,322
911.223267,315
911.339294,311
911.4552,325
911.571106,322
911.687073,328
911.802979,323
911.918823,321
912.034729,323
912.150635,324
912.266602,323
912.382446,310
912.498352,313
912.614197,313
912.730103,324
912.846008,319
