792.44574,317
792.56488,346
792.68396,385
792.80304,377
792.92218,335
793.041199,312
793.160339,334
793.279419,360
793.398499,308
793.517578,312
793.636658,317
793.755737,345
793.874817,337
793.993896,334
794.112976,338
794.232056,307
794.351074,330
794.470215,335
794.589233,338
794.708313,320
794.827393,331
794.946411,341
795.065552,330
795.18457,348
795.303589,322
795.422668,325
795.541687,333
795.660767,332
795.779846,328
795.898865,328
796.017883,312
796.136963,326
796.255981,329
796.375061,330
796.49408,340
796.613037,350
796.732117,318
796.851135,331
796.970154,330
797.089233,325
797.208191,329
797.327271,336
797.446228,328
797.565186,316
797.684265,328
797.803223,317
797.922241,318
798.04126,329
798.160278,325
798.279297,331
798.398315,324
798.517273,337
798.636292,318
798.75531,331
798.874268,336
798.993286,324
799.112244,327
799.231323,335
799.350281,342
799.469238,333
799.588257,327
799.707153,334
799.826111,328
799.945129,335
800.064087,326
800.183044,331
800.302063,315
800.421021,332
800.539978,323
800.658936,321
800.777893,331
800.896912,338
801.015747,334
801.134705,335
801.253723,334
801.37262,331
801.491638,337
801.610535,316
801.729492,322
801.84845,324
801.967407,332
802.086243,344
802.205261,328
802.324158,327
802.443115,323
802.562073,318
802.680969,322
802.799927,322
802.918762,327
803.037659,345
803.156677,316
803.275574,335
803.39447,332
803.513428,335
803.632263,334
803.751221,336
803.870117,324
803.989014,330
804.107971,338
804.226746,322
804.345642,338
804.4646,338
804.583496,337
804.702393,327
804.821228,318
804.940125,318
805.059021,345
805.177917,328
805.296814,333
805.415649,329
805.534546,340
805.653442,339
805.772278,319
805.891113,343
806.01001,329
806.128906,339
806.247742,321
806.366577,343
806.485413,330
806.604309,337
806.723145,332
806.84198,339
806.960876,343
807.079712,337
807.198486,319
807.317383,339
807.436218,325
807.554993,337
807.673889,337
807.792725,331
807.91156,336
808.030396,338
808.14917,339
808.268005,335
808.386841,321
808.505676,324
808.624451,334
808.743286,333
808.862122,345
808.980896,327
809.099731,330
809.218506,336
809.337341,336
809.456116,343
809.57489,323
809.693726,333
809.8125,328
809.931274,322
810.050049,344
810.168884,342
810.287659,314
810.406372,322
810.525269,333
810.643982,319
810.762756,320
810.881531,345
811.000305,325
811.11908,320
811.237854,333
811.356567,321
811.475403,319
811.594116,347
811.71283,317
811.831604,334
811.950378,338
812.069153,320
812.187927,334
812.30658,335
812.425415,339
812.544128,332
812.662781,340
812.781616,338
812.900269,341
813.019043,332
813.137756,325
813.256531,331
813.375244,335
813.493896,328
813.612671,328
813.731384,342
813.850037,333
813.96875,344
814.087524,344
814.206238,326
814.324951,325
814.443604,342
814.562256,325
814.68103,339
814.799683,326
814.918335,333
815.037109,327
815.155762,333
815.274475,335
815.393188,334
815.511841,328
815.630554,322
815.749146,329
815.867859,327
815.986572,339
816.105164,329
816.223877,326
816.342529,327
816.461182,335
816.579895,324
816.698486,311
816.817139,339
816.935791,342
817.054504,335
817.173096,328
817.291748,344
817.4104,325
817.529053,339
817.647644,326
817.766235,331
817.884949,320
818.00354,327
818.122192,341
818.240845,331
818.359436,318
818.478088,332
818.59668,322
818.715271,325
818.833923,330
818.952515,311
819.071106,334
819.189758,318
819.30835,327
819.426941,324
819.545532,314
819.664124,313
819.782715,319
819.901306,319
820.019897,332
820.138489,326
820.25708,324
820.375671,330
820.494202,313
820.612732,326
820.731384,303
820.849915,310
820.968506,328
821.087097,323
821.205627,314
821.324158,316
821.442749,311
821.561279,302
821.679871,322
821.798401,315
821.916931,320
822.035461,323
822.154053,323
822.272583,315
822.391174,330
822.509583,316
822.628174,316
822.746704,321
822.865234,315
822.983765,327
823.102295,332
823.220825,324
823.339294,324
823.457825,316
823.576355,326
823.694824,321
823.813354,316
823.931885,322
824.050354,323
824.168884,324
824.287354,316
824.405823,326
824.524353,315
824.642822,325
824.761353,324
824.879822,327
824.998291,312
825.116699,313
825.235291,300
825.353699,317
825.472168,312
825.590637,318
825.709106,312
825.827576,312
825.946045,315
826.064453,299
826.182983,310
826.301392,313
826.4198,320
826.53833,327
826.656738,332
826.775208,327
826.893677,310
827.012024,319
827.130493,321
827.248962,322
827.36731,311
827.485779,312
827.604248,309
827.722595,311
827.841064,305
827.959412,319
828.077942,321
828.196289,317
828.314636,315
828.433105,307
828.551514,325
828.669861,318
828.78833,327
828.906677,314
829.025085,312
829.143433,305
829.261841,315
829.38031,316
829.498657,320
829.617004,311
829.735413,300
829.85376,322
829.972107,317
830.090515,332
830.208862,315
830.327209,329
830.445557,316
830.563904,317
830.682312,322
830.800659,314
830.919006,314
831.037354,312
831.155701,324
831.274048,319
831.392395,316
831.51062,312
831.629028,324
831.747314,323
831.865662,316
831.984009,320
832.102356,319
832.220642,324
832.338928,314
832.457275,321
832.575623,326
832.693909,324
832.812134,328
832.930481,303
833.048828,320
833.167114,314
833.2854,305
833.403687,311
833.521973,315
833.640259,325
833.758545,312
833.876831,318
833.995056,324
834.113281,325
834.231628,312
834.349915,322
834.468201,320
834.586426,333
834.704651,314
834.822998,322
834.941162,306
835.059448,327
835.177673,320
835.295959,339
835.414246,328
835.53241,310
835.650635,332
835.768921,305
835.887146,327
836.005371,321
836.123596,319
836.241821,314
836.360046,305
836.478271,329
836.596497,321
836.714722,317
836.832886,320
836.95105,308
837.069336,328
837.1875,322
837.305725,319
837.423889,320
837.542053,311
837.660339,324
837.778503,318
837.896667,313
838.014832,317
838.132996,323
838.25116,331
838.369385,322
838.487488,313
838.605713,313
838.723877,318
838.84198,336
838.960205,303
839.078308,319
839.196472,318
839.314636,300
839.4328,319
839.550964,317
839.669067,323
839.787231,321
839.905396,315
840.023499,317
840.141602,312
840.259766,317
840.377869,311
840.495972,311
840.614136,317
840.732239,317
840.850342,321
840.968445,315
841.086548,317
841.204651,325
841.322754,322
841.440918,320
841.55896,312
841.677002,312
841.795166,319
841.913208,331
842.031311,313
842.149353,320
842.267456,331
842.385498,330
842.503601,315
842.621643,317
842.739746,316
842.857788,316
842.97583,321
843.093933,320
843.211975,307
843.330017,317
843.44812,327
843.566101,312
843.684204,327
843.802246,305
843.920227,311
844.038269,310
844.156311,335
844.274292,325
844.392395,326
844.510376,324
844.628357,301
844.74646,300
844.864441,325
844.982422,316
845.100403,318
845.218384,319
845.336426,316
845.454468,310
845.572449,307
845.69043,322
845.808411,320
845.926453,322
846.044373,310
846.162354,308
846.280396,318
846.398315,318
846.516296,326
846.634216,334
846.752197,312
846.870178,326
846.988098,320
847.106079,313
847.22406,301
847.34198,313
847.4599,313
847.577881,328
847.695801,304
847.813782,311
847.931641,327
848.049561,317
848.167603,318
848.285461,313
848.403381,311
848.521362,331
848.639221,306
848.75708,328
848.875,311
848.99292,317
849.110901,320
849.22876,320
849.34668,305
849.464539,321
849.582458,314
849.700317,314
849.818176,319
849.936096,324
850.053955,327
850.171875,312
850.289673,322
850.407593,312
850.525452,311
850.643311,324
850.761169,308
850.878967,322
850.996887,312
851.114746,324
851.232544,319
851.350403,320
851.468262,311
851.58606,321
851.703979,310
851.821777,319
851.939636,321
852.057434,306
852.175232,324
852.293091,322
852.410889,324
852.528687,327
852.646545,321
852.764343,330
852.88208,316
852.999939,316
853.117676,316
853.235535,317
853.353271,309
853.471069,321
853.588928,318
853.706604,321
853.824402,318
853.9422,326
854.059998,305
854.177734,325
854.295532,321
854.413269,309
854.531006,320
854.648804,324
854.766541,321
854.884277,318
855.002014,306
855.119751,318
855.237549,312
855.355225,307
855.473022,316
855.590698,303
855.708435,323
855.826172,310
855.943848,310
856.061646,321
856.179321,317
856.296997,307
856.414795,311
856.53241,319
856.650085,311
856.767822,314
856.885559,306
857.003174,321
857.120911,333
857.238586,322
857.356201,321
857.473938,308
857.591614,313
857.709351,328
857.826965,316
857.944641,316
858.062317,317
858.179993,311
858.297668,321
858.415283,328
858.532959,299
858.650574,334
858.768188,323
858.885803,310
859.003479,336
859.121094,326
859.23877,307
859.356384,302
859.473999,319
859.591675,327
859.709229,322
859.826843,337
859.944458,323
860.062012,324
860.179626,313
860.297302,328
860.414856,306
860.532471,315
860.650024,323
860.767639,325
860.885193,316
861.002808,307
861.120361,312
861.237976,321
861.35553,317
861.473022,321
861.590698,326
861.708191,311
861.825745,328
861.943298,311
862.060852,323
862.178406,311
862.295959,315
862.413513,314
862.531006,324
862.64856,326
862.766113,324
862.883667,329
863.00116,317
863.118713,311
863.236206,312
863.353699,320
863.471252,316
863.588745,323
863.706177,301
863.82373,324
863.941162,325
864.058716,318
864.176208,319
864.29364,306
864.411194,322
864.528687,314
864.646118,314
864.763611,320
864.881042,312
864.998535,323
865.116028,312
865.233459,328
865.350891,307
865.468384,322
865.585754,305
865.703308,315
865.820679,321
865.938171,317
866.055542,316
866.173035,329
866.290466,307
866.407837,306
866.52533,321
866.6427,316
866.760071,321
866.877563,334
866.994934,314
867.112305,305
867.229736,328
867.347107,326
867.464539,308
867.58197,312
867.699341,316
867.81665,324
867.934082,316
868.051453,316
868.168823,313
868.286194,324
868.403564,320
868.520935,306
868.638306,327
868.755676,318
868.872986,317
868.990295,334
869.107727,315
869.225037,316
869.342346,312
869.459717,325
869.577026,310
869.694336,321
869.811707,321
869.929016,310
870.046326,308
870.163635,321
870.280945,306
870.398254,307
870.515564,325
870.632812,301
870.750183,306
870.867432,323
870.984741,315
871.102051,323
871.219299,325
871.336609,326
871.453918,317
871.571106,322
871.688416,306
871.805664,316
871.922852,319
872.040222,317
872.157471,316
872.274719,325
872.391968,307
872.509155,330
872.626465,312
872.743652,329
872.860962,312
872.978149,305
873.095337,307
873.212646,313
873.329834,316
873.44696,315
873.564209,325
873.681396,319
873.798645,319
873.915894,327
874.03302,309
874.150208,328
874.267456,312
874.384583,300
874.501831,313
874.618958,313
874.736145,309
874.853333,327
874.970459,315
875.087646,321
875.204834,322
875.32196,315
875.439148,321
875.556274,312
875.673401,321
875.790527,326
875.907715,317
876.024841,322
876.141968,323
876.259094,332
876.376282,316
876.493347,323
876.610474,306
876.7276,317
876.844727,314
876.961853,322
877.078918,307
877.195984,310
877.313171,304
877.430237,325
877.547302,305
877.664368,328
877.781433,306
877.898499,312
878.015625,320
878.13269,327
878.249695,314
878.366821,320
878.483887,313
878.600952,319
878.717957,330
878.834961,319
878.952087,322
879.069092,318
879.186157,322
879.303162,323
879.420227,318
879.537231,317
879.654236,313
879.77124,332
879.888306,306
880.005249,314
880.122314,324
880.239319,305
880.356323,319
880.473328,301
880.590271,325
880.707275,307
880.824341,318
880.941284,304
881.058228,309
881.175232,321
881.292236,328
881.40918,315
881.526123,298
881.643066,321
881.760071,311
881.877014,318
881.993958,313
882.11084,331
882.227783,311
882.344727,323
882.46167,301
882.578613,309
882.695618,320
882.812439,328
882.929382,318
883.046326,314
883.163208,314
883.280151,309
883.397034,319
883.513916,317
883.630798,315
883.747742,319
883.864563,306
883.981506,320
884.098389,323
884.21521,319
884.332153,321
884.448975,322
884.565796,315
884.682678,322
884.7995,315
884.916443,311
885.033264,305
885.150085,312
885.266968,321
885.383789,320
885.500671,314
885.617493,324
885.734314,323
885.851196,326
885.967896,312
886.084717,319
886.201599,314
886.318359,315
886.435181,318
886.552002,310
886.668762,327
886.785645,318
886.902344,313
887.019165,306
887.135925,311
887.252747,304
887.369446,314
887.486267,314
887.603027,307
887.719788,321
887.836548,316
887.953247,310
888.070068,325
888.186829,312
888.303528,323
888.420288,325
888.536987,315
888.653687,331
888.770447,312
888.887146,323
889.003967,322
889.120667,320
889.237305,325
889.354065,326
889.470703,311
889.587463,322
889.704163,323
889.820862,315
889.937561,314
890.054199,323
890.170837,325
890.287598,330
890.404236,303
890.520874,326
890.637634,329
890.754211,322
890.87085,317
890.987549,330
891.104187,317
891.220886,321
891.337463,313
891.454102,326
891.57074,320
891.687378,319
891.804077,313
891.920654,325
892.037231,316
892.15387,324
892.270447,321
892.387085,325
892.503723,311
892.6203,311
892.736877,318
892.853516,312
892.970032,333
893.08667,321
893.203186,318
893.319763,334
893.43634,326
893.552917,316
893.669556,314
893.786011,315
893.902588,328
894.019165,318
894.135681,328
894.252197,313
894.368835,331
894.485291,316
894.601868,315
894.718384,331
894.8349,333
894.951355,319
895.067932,315
895.184448,318
895.300964,318
895.417419,327
895.533936,316
895.650452,312
895.766907,328
895.883423,312
895.999878,302
896.116333,329
896.232849,322
896.349304,308
896.465759,325
896.582214,319
896.698669,341
896.815125,317
896.931641,315
897.048035,307
897.164551,324
897.280884,298
897.397339,317
897.513794,320
897.630249,307
897.746582,315
897.863098,321
897.979431,323
898.095886,325
898.212341,323
898.328674,310
898.445129,329
898.561462,315
898.677795,330
898.794312,317
898.910645,324
899.026978,321
899.143433,327
899.259766,331
899.37616,336
899.492493,319
899.608765,332
899.725159,321
899.841553,319
899.957947,323
900.07428,315
900.190552,320
900.306946,315
900.423157,310
900.53949,313
900.655884,316
900.772156,320
900.888489,319
901.004822,321
901.121033,320
901.237366,322
901.353699,318
901.46991,331
901.586304,311
901.702515,334
901.818787,312
901.93512,325
902.051331,316
902.167603,316
902.283875,323
902.400085,329
902.516418,319
902.632629,312
902.74884,326
902.865112,310
902.981384,330
903.097595,330
903.213867,302
903.330017,327
903.446289,317
903.5625,320
903.67865,329
903.794922,319
903.911072,312
904.027344,301
904.143494,303
904.259705,331
904.375916,319
904.492065,319
904.608215,305
904.724426,305
904.840576,321
904.956726,324
905.072876,326
905.189087,334
905.305176,322
905.421387,314
905.537537,313
905.653687,316
905.769775,321
905.885925,316
906.002014,313
906.118164,330
906.234314,312
906.350403,324
906.466492,330
906.582642,324
906.69873,296
906.814758,331
906.930908,325
907.046936,343
907.163086,311
907.279175,316
907.395264,317
907.511353,334
907.62738,309
907.743408,319
907.859497,312
907.975525,319
908.091553,302
908.207703,308
908.32373,316
908.439758,308
908.555786,322
908.671814,319
908.787842,311
908.90387,329
909.019775,319
909.135864,327
909.251892,324
909.367859,325
909.483826,312
909.599854,329
909.715881,339
909.831848,314
909.947815,313
910.063782,325
910.179749,317
910.295776,323
910.411743,322
910.527649,319
910.643616,320
910.759583,321
910.875488,331
910.991455,324
911.107361,300
911.223267,328
911.339294,317
911.4552,317
911.571106,320
911.687073,327
911.802979,314
911.918823,321
912.034729,324
912.150635,325
912.266602,309
912.382446,320
912.498352,315
912.614197,333
912.730103,313
912.846008,311
792.44574,323
792.56488,351
792.68396,401
792.80304,377
792.92218,333
793.041199,319
793.160339,307
793.279419,335
793.398499,336
793.517578,311
793.636658,313
793.755737,326
793.874817,336
793.993896,351
794.112976,340
794.232056,322
794.351074,332
794.470215,331
794.589233,344
794.708313,340
794.827393,333
794.946411,330
795.065552,327
795.18457,340
795.303589,327
795.422668,352
795.541687,327
795.660767,336
795.779846,313
795.898865,322
796.017883,336
796.136963,335
796.255981,325
796.375061,325
796.49408,335
796.613037,332
796.732117,321
796.851135,333
796.970154,324
797.089233,331
797.208191,340
797.327271,329
797.446228,324
797.565186,339
797.684265,319
797.803223,332
797.922241,315
798.04126,333
798.160278,326
798.279297,334
798.398315,334
798.517273,322
798.636292,335
798.75531,316
798.874268,330
798.993286,330
799.112244,332
799.231323,332
799.350281,332
799.469238,336
799.588257,332
799.707153,322
799.826111,325
799.945129,338
800.064087,316
800.183044,339
800.302063,316
800.421021,331
800.539978,330
800.658936,335
800.777893,318
800.896912,330
801.015747,324
801.134705,331
801.253723,337
801.37262,326
801.491638,334
801.610535,343
801.729492,330
801.84845,329
801.967407,329
802.086243,318
802.205261,343
802.324158,328
802.443115,334
802.562073,335
802.680969,317
802.799927,331
802.918762,330
803.037659,334
803.156677,329
803.275574,335
803.39447,319
803.513428,335
803.632263,328
803.751221,326
803.870117,331
803.989014,311
804.107971,342
804.226746,324
804.345642,329
804.4646,321
804.583496,347
804.702393,340
804.821228,322
804.940125,329
805.059021,328
805.177917,328
805.296814,325
805.415649,330
805.534546,334
805.653442,338
805.772278,338
805.891113,325
806.01001,332
806.128906,332
806.247742,328
806.366577,326
806.485413,309
806.604309,333
806.723145,315
806.84198,324
806.960876,341
807.079712,331
807.198486,336
807.317383,337
807.436218,330
807.554993,334
807.673889,325
807.792725,348
807.91156,325
808.030396,332
808.14917,306
808.268005,342
808.386841,316
808.505676,344
808.624451,329
808.743286,329
808.862122,320
808.980896,337
809.099731,332
809.218506,331
809.337341,336
809.456116,333
809.57489,327
809.693726,329
809.8125,330
809.931274,323
810.050049,330
810.168884,335
810.287659,324
810.406372,325
810.525269,322
810.643982,329
810.762756,316
810.881531,341
811.000305,328
811.11908,328
811.237854,337
811.356567,335
811.475403,342
811.594116,332
811.71283,332
811.831604,325
811.950378,321
812.069153,339
812.187927,330
812.30658,322
812.425415,333
812.544128,326
812.662781,322
812.781616,316
812.900269,339
813.019043,339
813.137756,336
813.256531,331
813.375244,331
813.493896,311
813.612671,337
813.731384,340
813.850037,318
813.96875,343
814.087524,322
814.206238,333
814.324951,351
814.443604,332
814.562256,324
814.68103,335
814.799683,320
814.918335,334
815.037109,322
815.155762,324
815.274475,344
815.393188,329
815.511841,333
815.630554,338
815.749146,327
815.867859,347
815.986572,330
816.105164,328
816.223877,331
816.342529,320
816.461182,328
816.579895,324
816.698486,340
816.817139,327
816.935791,331
817.054504,342
817.173096,335
817.291748,320
817.4104,338
817.529053,315
817.647644,331
817.766235,325
817.884949,312
818.00354,334
818.122192,333
818.240845,324
818.359436,323
818.478088,322
818.59668,333
818.715271,343
818.833923,325
818.952515,318
819.071106,332
819.189758,308
819.30835,322
819.426941,326
819.545532,317
819.664124,326
819.782715,325
819.901306,312
820.019897,317
820.138489,310
820.25708,318
820.375671,330
820.494202,316
820.612732,323
820.731384,323
820.849915,324
820.968506,314
821.087097,332
821.205627,323
821.324158,302
821.442749,327
821.561279,325
821.679871,320
821.798401,324
821.916931,321
822.035461,316
822.154053,328
822.272583,325
822.391174,319
822.509583,324
822.628174,326
822.746704,321
822.865234,306
822.983765,316
823.102295,319
823.220825,318
823.339294,310
823.457825,321
823.576355,310
823.694824,318
823.813354,312
823.931885,315
824.050354,311
824.168884,313
824.287354,309
824.405823,325
824.524353,320
824.642822,326
824.761353,310
824.879822,308
824.998291,324
825.116699,316
825.235291,329
825.353699,330
825.472168,316
825.590637,326
825.709106,311
825.827576,311
825.946045,319
826.064453,318
826.182983,300
826.301392,305
826.4198,323
826.53833,315
826.656738,318
826.775208,326
826.893677,326
827.012024,305
827.130493,310
827.248962,326
827.36731,308
827.485779,323
827.604248,320
827.722595,321
827.841064,315
827.959412,320
828.077942,322
828.196289,324
828.314636,315
828.433105,332
828.551514,326
828.669861,304
828.78833,325
828.906677,322
829.025085,323
829.143433,311
829.261841,316
829.38031,315
829.498657,316
829.617004,322
829.735413,330
829.85376,314
829.972107,318
830.090515,315
830.208862,302
830.327209,312
830.445557,321
830.563904,321
830.682312,313
830.800659,321
830.919006,312
831.037354,321
831.155701,319
831.274048,316
831.392395,313
831.51062,326
831.629028,320
831.747314,306
831.865662,313
831.984009,318
832.102356,317
832.220642,320
832.338928,319
832.457275,314
832.575623,324
832.693909,321
832.812134,319
832.930481,307
833.048828,301
833.167114,315
833.2854,311
833.403687,324
833.521973,321
833.640259,316
833.758545,313
833.876831,325
833.995056,318
834.113281,320
834.231628,313
834.349915,314
834.468201,319
834.586426,318
834.704651,308
834.822998,317
834.941162,311
835.059448,314
835.177673,316
835.295959,311
835.414246,316
835.53241,311
835.650635,323
835.768921,327
835.887146,310
836.005371,315
836.123596,324
836.241821,325
836.360046,333
836.478271,325
836.596497,318
836.714722,319
836.832886,325
836.95105,321
837.069336,318
837.1875,309
837.305725,326
837.423889,319
837.542053,313
837.660339,317
837.778503,312
837.896667,314
838.014832,305
838.132996,318
838.25116,319
838.369385,316
838.487488,320
838.605713,325
838.723877,323
838.84198,312
838.960205,322
839.078308,312
839.196472,323
839.314636,313
839.4328,308
839.550964,314
839.669067,311
839.787231,339
839.905396,313
840.023499,320
840.141602,322
840.259766,316
840.377869,332
840.495972,326
840.614136,309
840.732239,328
840.850342,311
840.968445,332
841.086548,336
841.204651,304
841.322754,315
841.440918,313
841.55896,324
841.677002,314
841.795166,324
841.913208,311
842.031311,320
842.149353,335
842.267456,316
842.385498,320
842.503601,321
842.621643,303
842.739746,322
842.857788,312
842.97583,309
843.093933,314
843.211975,303
843.330017,311
843.44812,318
843.566101,314
843.684204,324
843.802246,315
843.920227,302
844.038269,313
844.156311,308
844.274292,324
844.392395,312
844.510376,327
844.628357,320
844.74646,322
844.864441,324
844.982422,311
845.100403,321
845.218384,318
845.336426,318
845.454468,321
845.572449,309
845.69043,326
845.808411,308
845.926453,310
846.044373,308
846.162354,312
846.280396,318
846.398315,306
846.516296,333
846.634216,315
846.752197,322
846.870178,322
846.988098,326
847.106079,325
847.22406,321
847.34198,320
847.4599,319
847.577881,310
847.695801,316
847.813782,300
847.931641,321
848.049561,324
848.167603,312
848.285461,312
848.403381,322
848.521362,322
848.639221,305
848.75708,328
848.875,305
848.99292,314
849.110901,326
849.22876,314
849.34668,328
849.464539,313
849.582458,322
849.700317,316
849.818176,322
849.936096,326
850.053955,308
850.171875,325
850.289673,314
850.407593,343
850.525452,327
850.643311,314
850.761169,325
850.878967,318
850.996887,311
851.114746,289
851.232544,315
851.350403,321
851.468262,307
851.58606,324
851.703979,322
851.821777,312
851.939636,316
852.057434,325
852.175232,301
852.293091,306
852.410889,311
852.528687,332
852.646545,318
852.764343,321
852.88208,323
852.999939,311
853.117676,309
853.235535,319
853.353271,318
853.471069,313
853.588928,311
853.706604,329
853.824402,304
853.9422,327
854.059998,309
854.177734,312
854.295532,315
854.413269,322
854.531006,329
854.648804,306
854.766541,320
854.884277,333
855.002014,311
855.119751,319
855.237549,319
855.355225,308
855.473022,321
855.590698,321
855.708435,321
855.826172,315
855.943848,329
856.061646,316
856.179321,308
856.296997,317
856.414795,311
856.53241,321
856.650085,325
856.767822,317
856.885559,314
857.003174,314
857.120911,315
857.238586,312
857.356201,304
857.473938,326
857.591614,310
857.709351,306
857.826965,320
857.944641,312
858.062317,313
858.179993,326
858.297668,325
858.415283,315
858.532959,312
858.650574,313
858.768188,311
858.885803,312
859.003479,318
859.121094,312
859.23877,323
859.356384,323
859.473999,321
859.591675,321
859.709229,309
859.826843,322
859.944458,324
860.062012,314
860.179626,317
860.297302,323
860.414856,318
860.532471,312
860.650024,307
860.767639,317
860.885193,302
861.002808,313
861.120361,295
861.237976,315
861.35553,328
861.473022,304
861.590698,325
861.708191,320
861.825745,319
861.943298,314
862.060852,315
862.178406,320
862.295959,329
862.413513,327
862.531006,321
862.64856,320
862.766113,315
862.883667,307
863.00116,321
863.118713,327
863.236206,295
863.353699,316
863.471252,316
863.588745,327
863.706177,310
863.82373,310
863.941162,323
864.058716,317
864.176208,314
864.29364,323
864.411194,310
864.528687,330
864.646118,318
864.763611,316
864.881042,322
864.998535,332
865.116028,310
865.233459,324
865.350891,301
865.468384,323
865.585754,322
865.703308,304
865.820679,312
865.938171,320
866.055542,317
866.173035,325
866.290466,321
866.407837,316
866.52533,313
866.6427,321
866.760071,298
866.877563,319
866.994934,307
867.112305,316
867.229736,323
867.347107,327
867.464539,325
867.58197,317
867.699341,318
867.81665,324
867.934082,311
868.051453,316
868.168823,307
868.286194,316
868.403564,323
868.520935,329
868.638306,309
868.755676,314
868.872986,308
868.990295,320
869.107727,316
869.225037,333
869.342346,316
869.459717,315
869.577026,307
869.694336,327
869.811707,328
869.929016,320
870.046326,317
870.163635,318
870.280945,323
870.398254,319
870.515564,310
870.632812,315
870.750183,314
870.867432,315
870.984741,314
871.102051,322
871.219299,310
871.336609,303
871.453918,323
871.571106,322
871.688416,303
871.805664,320
871.922852,314
872.040222,313
872.157471,327
872.274719,326
872.391968,313
872.509155,322
872.626465,319
872.743652,323
872.860962,321
872.978149,311
873.095337,327
873.212646,314
873.329834,309
873.44696,317
873.564209,317
873.681396,311
873.798645,321
873.915894,326
874.03302,322
874.150208,311
874.267456,300
874.384583,311
874.501831,324
874.618958,311
874.736145,310
874.853333,325
874.970459,314
875.087646,324
875.204834,321
875.32196,313
875.439148,313
875.556274,318
875.673401,317
875.790527,313
875.907715,318
876.024841,326
876.141968,313
876.259094,320
876.376282,316
876.493347,317
876.610474,319
876.7276,321
876.844727,314
876.961853,320
877.078918,314
877.195984,305
877.313171,317
877.430237,315
877.547302,321
877.664368,317
877.781433,306
877.898499,317
878.015625,331
878.13269,325
878.249695,309
878.366821,320
878.483887,304
878.600952,329
878.717957,318
878.834961,322
878.952087,320
879.069092,308
879.186157,318
879.303162,314
879.420227,321
879.537231,327
879.654236,317
879.77124,320
879.888306,315
880.005249,322
880.122314,313
880.239319,314
880.356323,313
880.473328,327
880.590271,327
880.707275,321
880.824341,313
880.941284,321
881.058228,316
881.175232,318
881.292236,317
881.40918,320
881.526123,313
881.643066,321
881.760071,317
881.877014,315
881.993958,303
882.11084,331
882.227783,317
882.344727,315
882.46167,328
882.578613,307
882.695618,322
882.812439,317
882.929382,326
883.046326,328
883.163208,309
883.280151,321
883.397034,330
883.513916,313
883.630798,325
883.747742,318
883.864563,321
883.981506,316
884.098389,309
884.21521,326
884.332153,324
884.448975,309
884.565796,322
884.682678,323
884.7995,314
884.916443,309
885.033264,326
885.150085,310
885.266968,324
885.383789,315
885.500671,301
885.617493,324
885.734314,317
885.851196,311
885.967896,326
886.084717,311
886.201599,309
886.318359,326
886.435181,323
886.552002,317
886.668762,303
886.785645,315
886.902344,299
887.019165,317
887.135925,322
887.252747,337
887.369446,320
887.486267,314
887.603027,314
887.719788,308
887.836548,315
887.953247,321
888.070068,310
888.186829,323
888.303528,320
888.420288,321
888.536987,310
888.653687,323
888.770447,305
888.887146,324
889.003967,319
889.120667,327
889.237305,323
889.354065,320
889.470703,320
889.587463,317
889.704163,321
889.820862,324
889.937561,317
890.054199,307
890.170837,308
890.287598,313
890.404236,314
890.520874,327
890.637634,321
890.754211,313
890.87085,310
890.987549,312
891.104187,339
891.220886,323
891.337463,304
891.454102,320
891.57074,319
891.687378,322
891.804077,327
891.920654,321
892.037231,324
892.15387,339
892.270447,317
892.387085,324
892.503723,310
892.6203,320
892.736877,310
892.853516,314
892.970032,321
893.08667,331
893.203186,316
893.319763,323
893.43634,315
893.552917,322
893.669556,315
893.786011,322
893.902588,325
894.019165,321
894.135681,315
894.252197,321
894.368835,317
894.485291,321
894.601868,303
894.718384,315
894.8349,318
894.951355,319
895.067932,318
895.184448,317
895.300964,309
895.417419,317
895.533936,319
895.650452,313
895.766907,316
895.883423,304
895.999878,307
896.116333,331
896.232849,302
896.349304,320
896.465759,314
896.582214,317
896.698669,319
896.815125,326
896.931641,308
897.048035,318
897.164551,321
897.280884,316
897.397339,313
897.513794,321
897.630249,305
897.746582,317
897.863098,333
897.979431,329
898.095886,304
898.212341,313
898.328674,319
898.445129,323
898.561462,319
898.677795,304
898.794312,307
898.910645,322
899.026978,327
899.143433,327
899.259766,319
899.37616,322
899.492493,297
899.608765,328
899.725159,308
899.841553,311
899.957947,301
900.07428,318
900.190552,304
900.306946,318
900.423157,297
900.53949,319
900.655884,314
900.772156,328
900.888489,320
901.004822,318
901.121033,318
901.237366,322
901.353699,325
901.46991,316
901.586304,312
901.702515,321
901.818787,316
901.93512,323
902.051331,327
902.167603,318
902.283875,326
902.400085,312
902.516418,324
902.632629,329
902.74884,305
902.865112,312
902.981384,291
903.097595,319
903.213867,315
903.330017,307
903.446289,310
903.5625,317
903.67865,321
903.794922,324
903.911072,295
904.027344,320
904.143494,303
904.259705,327
904.375916,317
904.492065,311
904.608215,317
904.724426,327
904.840576,333
904.956726,325
905.072876,308
905.189087,333
905.305176,299
905.421387,335
905.537537,325
905.653687,314
905.769775,315
905.885925,318
906.002014,325
906.118164,336
906.234314,313
906.350403,318
906.466492,308
906.582642,311
906.69873,303
906.814758,324
906.930908,314
907.046936,309
907.163086,313
907.279175,322
907.395264,309
907.511353,318
907.62738,313
907.743408,323
907.859497,318
907.975525,323
908.091553,325
908.207703,325
908.32373,323
908.439758,314
908.555786,314
908.671814,311
908.787842,324
908.90387,324
909.019775,330
909.135864,321
909.251892,319
909.367859,309
909.483826,312
909.599854,324
909.715881,319
909.831848,320
909.947815,311
910.063782,321
910.179749,319
910.295776,325
910.411743,313
910.527649,313
910.643616,310
910.759583,330
910.875488,322
910.991455,325
911.107361,310
911.223267,329
911.339294,321
911.4552,331
911.571106,325
911.687073,315
911.802979,317
911.918823,316
912.034729,318
912.150635,332
912.266602,310
912.382446,319
912.498352,307
912.614197,314
912.730103,307
912.846008,321
792.44574,324
792.56488,345
792.68396,400
792.80304,375
792.92218,336
793.041199,305
793.160339,321
793.279419,338
793.398499,342
793.517578,313
793.636658,324
793.755737,336
793.874817,346
793.993896,350
794.112976,333
794.232056,328
794.351074,333
794.470215,337
794.589233,324
794.708313,337
794.827393,323
794.946411,328
795.065552,345
795.18457,335
795.303589,342
795.422668,332
795.541687,341
795.660767,336
795.779846,332
795.898865,341
796.017883,335
796.136963,334
796.255981,326
796.375061,327
796.49408,336
796.613037,334
796.732117,321
796.851135,323
796.970154,343
797.089233,323
797.208191,328
797.327271,331
797.446228,324
797.565186,327
797.684265,320
797.803223,318
797.922241,323
798.04126,311
798.160278,320
798.279297,339
798.398315,342
798.517273,315
798.636292,332
798.75531,332
798.874268,331
798.993286,330
799.112244,334
799.231323,329
799.350281,336
799.469238,343
799.588257,320
799.707153,328
799.826111,335
799.945129,323
800.064087,325
800.183044,325
800.302063,338
800.421021,330
800.539978,329
800.658936,338
800.777893,323
800.896912,329
801.015747,327
801.134705,333
801.253723,332
801.37262,334
801.491638,331
801.610535,322
801.729492,329
801.84845,336
801.967407,324
802.086243,324
802.205261,340
802.324158,313
802.443115,337
802.562073,330
802.680969,340
802.799927,323
802.918762,348
803.037659,333
803.156677,342
803.275574,321
803.39447,324
803.513428,329
803.632263,328
803.751221,331
803.870117,332
803.989014,327
804.107971,322
804.226746,332
804.345642,324
804.4646,331
804.583496,321
804.702393,325
804.821228,328
804.940125,332
805.059021,345
805.177917,325
805.296814,322
805.415649,324
805.534546,324
805.653442,334
805.772278,345
805.891113,336
806.01001,331
806.128906,322
806.247742,322
806.366577,334
806.485413,327
806.604309,328
806.723145,331
806.84198,330
806.960876,335
807.079712,319
807.198486,339
807.317383,340
807.436218,321
807.554993,334
807.673889,338
807.792725,339
807.91156,337
808.030396,326
808.14917,329
808.268005,319
808.386841,331
808.505676,330
808.624451,319
808.743286,325
808.862122,328
808.980896,326
809.099731,356
809.218506,338
809.337341,337
809.456116,330
809.57489,340
809.693726,332
809.8125,340
809.931274,332
810.050049,341
810.168884,342
810.287659,325
810.406372,326
810.525269,331
810.643982,329
810.762756,346
810.881531,324
811.000305,325
811.11908,338
811.237854,343
811.356567,332
811.475403,324
811.594116,329
811.71283,335
811.831604,332
811.950378,340
812.069153,326
812.187927,347
812.30658,340
812.425415,307
812.544128,335
812.662781,340
812.781616,325
812.900269,341
813.019043,332
813.137756,317
813.256531,330
813.375244,339
813.493896,330
813.612671,337
813.731384,326
813.850037,337
813.96875,325
814.087524,325
814.206238,333
814.324951,343
814.443604,342
814.562256,325
814.68103,335
814.799683,333
814.918335,328
815.037109,334
815.155762,327
815.274475,331
815.393188,326
815.511841,331
815.630554,346
815.749146,323
815.867859,336
815.986572,351
816.105164,331
816.223877,335
816.342529,332
816.461182,339
816.579895,319
816.698486,326
816.817139,338
816.935791,338
817.054504,322
817.173096,336
817.291748,313
817.4104,342
817.529053,322
817.647644,331
817.766235,319
817.884949,354
818.00354,318
818.122192,325
818.240845,324
818.359436,319
818.478088,326
818.59668,328
818.715271,321
818.833923,325
818.952515,329
819.071106,325
819.189758,326
819.30835,309
819.426941,316
819.545532,319
819.664124,322
819.782715,334
819.901306,312
820.019897,320
820.138489,312
820.25708,339
820.375671,320
820.494202,339
820.612732,316
820.731384,329
820.849915,310
820.968506,329
821.087097,325
821.205627,316
821.324158,311
821.442749,323
821.561279,317
821.679871,304
821.798401,311
821.916931,325
822.035461,314
822.154053,330
822.272583,303
822.391174,323
822.509583,328
822.628174,331
822.746704,310
822.865234,330
822.983765,315
823.102295,323
823.220825,313
823.339294,325
823.457825,310
823.576355,335
823.694824,322
823.813354,325
823.931885,321
824.050354,310
824.168884,318
824.287354,316
824.405823,334
824.524353,319
824.642822,319
824.761353,308
824.879822,331
824.998291,324
825.116699,328
825.235291,317
825.353699,314
825.472168,327
825.590637,310
825.709106,323
825.827576,316
825.946045,317
826.064453,315
826.182983,307
826.301392,328
826.4198,315
826.53833,310
826.656738,325
826.775208,307
826.893677,335
827.012024,324
827.130493,316
827.248962,314
827.36731,323
827.485779,322
827.604248,323
827.722595,332
827.841064,317
827.959412,313
828.077942,329
828.196289,314
828.314636,328
828.433105,316
828.551514,324
828.669861,301
828.78833,299
828.906677,312
829.025085,326
829.143433,318
829.261841,315
829.38031,314
829.498657,326
829.617004,313
829.735413,312
829.85376,319
829.972107,308
830.090515,312
830.208862,322
830.327209,309
830.445557,323
830.563904,326
830.682312,319
830.800659,314
830.919006,318
831.037354,315
831.155701,324
831.274048,309
831.392395,314
831.51062,324
831.629028,325
831.747314,310
831.865662,324
831.984009,321
832.102356,316
832.220642,331
832.338928,313
832.457275,318
832.575623,320
832.693909,313
832.812134,323
832.930481,303
833.048828,302
833.167114,323
833.2854,328
833.403687,322
833.521973,316
833.640259,308
833.758545,317
833.876831,329
833.995056,314
834.113281,316
834.231628,318
834.349915,310
834.468201,320
834.586426,332
834.704651,314
834.822998,319
834.941162,325
835.059448,333
835.177673,324
835.295959,299
835.414246,318
835.53241,303
835.650635,323
835.768921,314
835.887146,323
836.005371,312
836.123596,317
836.241821,321
836.360046,324
836.478271,322
836.596497,320
836.714722,325
836.832886,322
836.95105,307
837.069336,328
837.1875,312
837.305725,326
837.423889,317
837.542053,317
837.660339,316
837.778503,322
837.896667,316
838.014832,308
838.132996,326
838.25116,315
838.369385,325
838.487488,311
838.605713,316
838.723877,316
838.84198,317
838.960205,325
839.078308,321
839.196472,326
839.314636,330
839.4328,320
839.550964,318
839.669067,322
839.787231,325
839.905396,321
840.023499,320
840.141602,325
840.259766,310
840.377869,313
840.495972,307
840.614136,320
840.732239,303
840.850342,323
840.968445,308
841.086548,322
841.204651,313
841.322754,334
841.440918,325
841.55896,318
841.677002,317
841.795166,310
841.913208,320
842.031311,319
842.149353,313
842.267456,302
842.385498,308
842.503601,326
842.621643,306
842.739746,317
842.857788,314
842.97583,317
843.093933,318
843.211975,303
843.330017,305
843.44812,324
843.566101,310
843.684204,327
843.802246,299
843.920227,323
844.038269,319
844.156311,326
844.274292,306
844.392395,328
844.510376,312
844.628357,320
844.74646,319
844.864441,326
844.982422,307
845.100403,317
845.218384,315
845.336426,322
845.454468,316
845.572449,323
845.69043,319
845.808411,319
845.926453,309
846.044373,326
846.162354,326
846.280396,327
846.398315,319
846.516296,316
846.634216,316
846.752197,323
846.870178,313
846.988098,309
847.106079,306
847.22406,308
847.34198,302
847.4599,334
847.577881,310
847.695801,311
847.813782,306
847.931641,334
848.049561,312
848.167603,315
848.285461,324
848.403381,315
848.521362,319
848.639221,312
848.75708,303
848.875,314
848.99292,314
849.110901,322
849.22876,311
849.34668,314
849.464539,309
849.582458,321
849.700317,301
849.818176,319
849.936096,307
850.053955,319
850.171875,315
850.289673,322
850.407593,322
850.525452,319
850.643311,313
850.761169,318
850.878967,316
850.996887,318
851.114746,321
851.232544,314
851.350403,320
851.468262,320
851.58606,313
851.703979,314
851.821777,319
851.939636,311
852.057434,312
852.175232,322
852.293091,311
852.410889,324
852.528687,317
852.646545,320
852.764343,306
852.88208,326
852.999939,316
853.117676,317
853.235535,298
853.353271,324
853.471069,331
853.588928,317
853.706604,305
853.824402,314
853.9422,307
854.059998,311
854.177734,315
854.295532,317
854.413269,310
854.531006,323
854.648804,310
854.766541,317
854.884277,324
855.002014,312
855.119751,308
855.237549,315
855.355225,307
855.473022,329
855.590698,318
855.708435,323
855.826172,308
855.943848,332
856.061646,306
856.179321,318
856.296997,322
856.414795,321
856.53241,324
856.650085,320
856.767822,310
856.885559,317
857.003174,324
857.120911,322
857.238586,309
857.356201,320
857.473938,325
857.591614,341
857.709351,325
857.826965,313
857.944641,310
858.062317,322
858.179993,319
858.297668,318
858.415283,314
858.532959,331
858.650574,318
858.768188,322
858.885803,326
859.003479,311
859.121094,305
859.23877,329
859.356384,319
859.473999,304
859.591675,329
859.709229,315
859.826843,316
859.944458,309
860.062012,316
860.179626,324
860.297302,316
860.414856,322
860.532471,335
860.650024,320
860.767639,318
860.885193,319
861.002808,309
861.120361,316
861.237976,305
861.35553,319
861.473022,327
861.590698,320
861.708191,303
861.825745,328
861.943298,316
862.060852,318
862.178406,307
862.295959,329
862.413513,312
862.531006,316
862.64856,312
862.766113,320
862.883667,316
863.00116,321
863.118713,314
863.236206,319
863.353699,320
863.471252,313
863.588745,312
863.706177,324
863.82373,302
863.941162,312
864.058716,310
864.176208,318
864.29364,317
864.411194,328
864.528687,319
864.646118,311
864.763611,326
864.881042,321
864.998535,329
865.116028,324
865.233459,314
865.350891,322
865.468384,308
865.585754,311
865.703308,310
865.820679,308
865.938171,319
866.055542,329
866.173035,310
866.290466,330
866.407837,315
866.52533,316
866.6427,323
866.760071,321
866.877563,299
866.994934,313
867.112305,305
867.229736,321
867.347107,323
867.464539,318
867.58197,318
867.699341,308
867.81665,328
867.934082,314
868.051453,325
868.168823,332
868.286194,298
868.403564,314
868.520935,314
868.638306,317
868.755676,326
868.872986,311
868.990295,312
869.107727,310
869.225037,321
869.342346,326
869.459717,300
869.577026,326
869.694336,312
869.811707,310
869.929016,324
870.046326,319
870.163635,318
870.280945,309
870.398254,330
870.515564,323
870.632812,309
870.750183,325
870.867432,311
870.984741,328
871.102051,309
871.219299,324
871.336609,325
871.453918,322
871.571106,314
871.688416,331
871.805664,300
871.922852,313
872.040222,312
872.157471,320
872.274719,314
872.391968,324
872.509155,322
872.626465,326
872.743652,314
872.860962,321
872.978149,301
873.095337,323
873.212646,307
873.329834,322
873.44696,315
873.564209,321
873.681396,309
873.798645,304
873.915894,327
874.03302,312
874.150208,313
874.267456,317
874.384583,316
874.501831,327
874.618958,308
874.736145,322
874.853333,325
874.970459,309
875.087646,317
875.204834,328
875.32196,311
875.439148,325
875.556274,307
875.673401,322
875.790527,307
875.907715,308
876.024841,325
876.141968,312
876.259094,330
876.376282,325
876.493347,322
876.610474,331
876.7276,311
876.844727,308
876.961853,322
877.078918,323
877.195984,317
877.313171,326
877.430237,314
877.547302,325
877.664368,304
877.781433,319
877.898499,316
878.015625,325
878.13269,325
878.249695,328
878.366821,318
878.483887,321
878.600952,323
878.717957,315
878.834961,317
878.952087,314
879.069092,321
879.186157,324
879.303162,318
879.420227,321
879.537231,313
879.654236,319
879.77124,309
879.888306,314
880.005249,296
880.122314,329
880.239319,321
880.356323,320
880.473328,304
880.590271,320
880.707275,318
880.824341,316
880.941284,316
881.058228,311
881.175232,301
881.292236,317
881.40918,306
881.526123,316
881.643066,318
881.760071,313
881.877014,316
881.993958,319
882.11084,320
882.227783,317
882.344727,327
882.46167,329
882.578613,314
882.695618,332
882.812439,315
882.929382,319
883.046326,321
883.163208,323
883.280151,312
883.397034,318
883.513916,314
883.630798,311
883.747742,328
883.864563,320
883.981506,311
884.098389,309
884.21521,323
884.332153,309
884.448975,322
884.565796,328
884.682678,324
884.7995,320
884.916443,319
885.033264,324
885.150085,315
885.266968,320
885.383789,316
885.500671,312
885.617493,330
885.734314,315
885.851196,305
885.967896,328
886.084717,314
886.201599,334
886.318359,311
886.435181,322
886.552002,317
886.668762,329
886.785645,318
886.902344,328
887.019165,310
887.135925,315
887.252747,310
887.369446,318
887.486267,317
887.603027,306
887.719788,324
887.836548,312
887.953247,327
888.070068,323
888.186829,303
888.303528,316
888.420288,306
888.536987,327
888.653687,322
888.770447,312
888.887146,322
889.003967,311
889.120667,332
889.237305,324
889.354065,318
889.470703,329
889.587463,304
889.704163,326
889.820862,314
889.937561,321
890.054199,315
890.170837,310
890.287598,312
890.404236,318
890.520874,308
890.637634,321
890.754211,314
890.87085,329
890.987549,322
891.104187,316
891.220886,316
891.337463,313
891.454102,322
891.57074,325
891.687378,320
891.804077,329
891.920654,322
892.037231,316
892.15387,317
892.270447,322
892.387085,318
892.503723,320
892.6203,316
892.736877,323
892.853516,315
892.970032,310
893.08667,321
893.203186,337
893.319763,321
893.43634,320
893.552917,331
893.669556,319
893.786011,321
893.902588,315
894.019165,318
894.135681,323
894.252197,314
894.368835,321
894.485291,313
894.601868,321
894.718384,319
894.8349,318
894.951355,332
895.067932,332
895.184448,326
895.300964,337
895.417419,332
895.533936,312
895.650452,329
895.766907,319
895.883423,318
895.999878,333
896.116333,304
896.232849,312
896.349304,317
896.465759,310
896.582214,308
896.698669,315
896.815125,321
896.931641,332
897.048035,321
897.164551,332
897.280884,310
897.397339,309
897.513794,324
897.630249,310
897.746582,306
897.863098,322
897.979431,324
898.095886,318
898.212341,314
898.328674,325
898.445129,306
898.561462,314
898.677795,318
898.794312,340
898.910645,320
899.026978,318
899.143433,311
899.259766,320
899.37616,323
899.492493,308
899.608765,323
899.725159,328
899.841553,319
899.957947,323
900.07428,308
900.190552,321
900.306946,316
900.423157,319
900.53949,331
900.655884,301
900.772156,319
900.888489,320
901.004822,314
901.121033,319
901.237366,325
901.353699,319
901.46991,308
901.586304,317
901.702515,320
901.818787,330
901.93512,309
902.051331,317
902.167603,321
902.283875,316
902.400085,317
902.516418,342
902.632629,312
902.74884,320
902.865112,320
902.981384,317
903.097595,319
903.213867,306
903.330017,315
903.446289,324
903.5625,307
903.67865,328
903.794922,320
903.911072,328
904.027344,314
904.143494,326
904.259705,319
904.375916,326
904.492065,316
904.608215,316
904.724426,326
904.840576,322
904.956726,309
905.072876,325
905.189087,328
905.305176,324
905.421387,332
905.537537,321
905.653687,317
905.769775,323
905.885925,323
906.002014,343
906.118164,308
906.234314,324
906.350403,315
906.466492,326
906.582642,329
906.69873,324
906.814758,322
906.930908,336
907.046936,318
907.163086,337
907.279175,312
907.395264,310
907.511353,319
907.62738,319
907.743408,301
907.859497,309
907.975525,316
908.091553,323
908.207703,316
908.32373,323
908.439758,321
908.555786,316
908.671814,324
908.787842,313
908.90387,324
909.019775,326
909.135864,302
909.251892,301
909.367859,324
909.483826,328
909.599854,327
909.715881,316
909.831848,322
909.947815,328
910.063782,315
910.179749,324
910.295776,306
910.411743,328
910.527649,314
910.643616,319
910.759583,311
910.875488,325
910.991455,303
911.107361,331
911.223267,318
911.339294,320
911.4552,321
911.571106,318
911.687073,313
911.802979,334
911.918823,321
912.034729,331
912.150635,319
912.266602,312
912.382446,323
912.498352,308
912.614197,322
912.730103,328
912.846008,307
