792.44574,332
792.56488,336
792.68396,396
792.80304,390
792.92218,341
793.041199,318
793.160339,327
793.279419,317
793.398499,337
793.517578,319
793.636658,338
793.755737,318
793.874817,336
793.993896,344
794.112976,343
794.232056,324
794.351074,340
794.470215,325
794.589233,342
794.708313,327
794.827393,339
794.946411,328
795.065552,337
795.18457,328
795.303589,327
795.422668,323
795.541687,330
795.660767,326
795.779846,338
795.898865,334
796.017883,331
796.136963,328
796.255981,319
796.375061,326
796.49408,326
796.613037,335
796.732117,332
796.851135,322
796.970154,326
797.089233,324
797.208191,321
797.327271,329
797.446228,321
797.565186,331
797.684265,315
797.803223,320
797.922241,336
798.04126,320
798.160278,340
798.279297,332
798.398315,327
798.517273,324
798.636292,334
798.75531,323
798.874268,322
798.993286,331
799.112244,345
799.231323,326
799.350281,333
799.469238,349
799.588257,326
799.707153,335
799.826111,331
799.945129,334
800.064087,326
800.183044,338
800.302063,324
800.421021,321
800.539978,345
800.658936,318
800.777893,345
800.896912,338
801.015747,318
801.134705,328
801.253723,330
801.37262,331
801.491638,323
801.610535,318
801.729492,326
801.84845,335
801.967407,333
802.086243,331
802.205261,330
802.324158,329
802.443115,328
802.562073,334
802.680969,330
802.799927,333
802.918762,338
803.037659,331
803.156677,318
803.275574,332
803.39447,334
803.513428,328
803.632263,321
803.751221,321
803.870117,325
803.989014,314
804.107971,326
804.226746,345
804.345642,325
804.4646,336
804.583496,320
804.702393,327
804.821228,337
804.940125,335
805.059021,330
805.177917,332
805.296814,338
805.415649,340
805.534546,324
805.653442,340
805.772278,344
805.891113,334
806.01001,323
806.128906,331
806.247742,323
806.366577,329
806.485413,337
806.604309,347
806.723145,324
806.84198,337
806.960876,331
807.079712,328
807.198486,324
807.317383,338
807.436218,330
807.554993,324
807.673889,343
807.792725,350
807.91156,322
808.030396,337
808.14917,315
808.268005,326
808.386841,339
808.505676,336
808.624451,331
808.743286,319
808.862122,344
808.980896,346
809.099731,326
809.218506,337
809.337341,331
809.456116,328
809.57489,332
809.693726,326
809.8125,327
809.931274,337
810.050049,331
810.168884,327
810.287659,344
810.406372,332
810.525269,331
810.643982,336
810.762756,328
810.881531,321
811.000305,331
811.11908,340
811.237854,322
811.356567,338
811.475403,324
811.594116,338
811.71283,333
811.831604,334
811.950378,332
812.069153,342
812.187927,337
812.30658,352
812.425415,340
812.544128,329
812.662781,329
812.781616,325
812.900269,330
813.019043,329
813.137756,336
813.256531,339
813.375244,324
813.493896,333
813.612671,325
813.731384,327
813.850037,327
813.96875,337
814.087524,330
814.206238,353
814.324951,318
814.443604,338
814.562256,337
814.68103,334
814.799683,336
814.918335,341
815.037109,330
815.155762,323
815.274475,326
815.393188,342
815.511841,317
815.630554,324
815.749146,325
815.867859,328
815.986572,330
816.105164,321
816.223877,331
816.342529,342
816.461182,332
816.579895,342
816.698486,336
816.817139,343
816.935791,325
817.054504,337
817.173096,325
817.291748,326
817.4104,342
817.529053,331
817.647644,334
817.766235,323
817.884949,336
818.00354,322
818.122192,325
818.240845,338
818.359436,323
818.478088,334
818.59668,326
818.715271,305
818.833923,321
818.952515,315
819.071106,318
819.189758,334
819.30835,321
819.426941,324
819.545532,333
819.664124,340
819.782715,326
819.901306,316
820.019897,329
820.138489,320
820.25708,319
820.375671,331
820.494202,308
820.612732,319
820.731384,326
820.849915,325
820.968506,314
821.087097,328
821.205627,316
821.324158,316
821.442749,320
821.561279,320
821.679871,320
821.798401,312
821.916931,317
822.035461,301
822.154053,333
822.272583,332
822.391174,314
822.509583,316
822.628174,317
822.746704,309
822.865234,329
822.983765,311
823.102295,310
823.220825,327
823.339294,305
823.457825,340
823.576355,312
823.694824,318
823.813354,313
823.931885,317
824.050354,325
824.168884,314
824.287354,325
824.405823,323
824.524353,323
824.642822,336
824.761353,317
824.879822,315
824.998291,315
825.116699,321
825.235291,321
825.353699,313
825.472168,324
825.590637,320
825.709106,325
825.827576,324
825.946045,329
826.064453,327
826.182983,316
826.301392,325
826.4198,317
826.53833,305
826.656738,322
826.775208,304
826.893677,319
827.012024,307
827.130493,314
827.248962,311
827.36731,319
827.485779,314
827.604248,314
827.722595,326
827.841064,315
827.959412,314
828.077942,309
828.196289,327
828.314636,327
828.433105,322
828.551514,319
828.669861,321
828.78833,317
828.906677,314
829.025085,316
829.143433,308
829.261841,326
829.38031,323
829.498657,315
829.617004,316
829.735413,297
829.85376,326
829.972107,317
830.090515,324
830.208862,322
830.327209,310
830.445557,320
830.563904,323
830.682312,313
830.800659,329
830.919006,306
831.037354,320
831.155701,329
831.274048,322
831.392395,317
831.51062,319
831.629028,320
831.747314,303
831.865662,314
831.984009,327
832.102356,334
832.220642,325
832.338928,319
832.457275,327
832.575623,314
832.693909,323
832.812134,316
832.930481,322
833.048828,312
833.167114,308
833.2854,326
833.403687,321
833.521973,320
833.640259,330
833.758545,324
833.876831,322
833.995056,315
834.113281,302
834.231628,315
834.349915,310
834.468201,310
834.586426,330
834.704651,307
834.822998,318
834.941162,322
835.059448,318
835.177673,300
835.295959,333
835.414246,309
835.53241,312
835.650635,313
835.768921,321
835.887146,311
836.005371,320
836.123596,298
836.241821,311
836.360046,305
836.478271,318
836.596497,309
836.714722,310
836.832886,325
836.95105,318
837.069336,321
837.1875,317
837.305725,307
837.423889,319
837.542053,324
837.660339,322
837.778503,320
837.896667,326
838.014832,309
838.132996,325
838.25116,311
838.369385,321
838.487488,319
838.605713,298
838.723877,320
838.84198,313
838.960205,312
839.078308,321
839.196472,317
839.314636,303
839.4328,332
839.550964,325
839.669067,324
839.787231,326
839.905396,307
840.023499,338
840.141602,314
840.259766,313
840.377869,301
840.495972,321
840.614136,321
840.732239,306
840.850342,317
840.968445,311
841.086548,329
841.204651,315
841.322754,322
841.440918,310
841.55896,306
841.677002,316
841.795166,308
841.913208,314
842.031311,320
842.149353,312
842.267456,331
842.385498,310
842.503601,318
842.621643,306
842.739746,327
842.857788,329
842.97583,319
843.093933,317
843.211975,324
843.330017,328
843.44812,323
843.566101,309
843.684204,314
843.802246,316
843.920227,308
844.038269,324
844.156311,311
844.274292,317
844.392395,312
844.510376,322
844.628357,314
844.74646,335
844.864441,315
844.982422,315
845.100403,318
845.218384,319
845.336426,316
845.454468,320
845.572449,316
845.69043,310
845.808411,310
845.926453,315
846.044373,307
846.162354,326
846.280396,313
846.398315,314
846.516296,306
846.634216,315
846.752197,322
846.870178,315
846.988098,314
847.106079,328
847.22406,310
847.34198,313
847.4599,324
847.577881,319
847.695801,322
847.813782,314
847.931641,315
848.049561,322
848.167603,322
848.285461,316
848.403381,323
848.521362,316
848.639221,320
848.75708,329
848.875,309
848.99292,313
849.110901,321
849.22876,316
849.34668,322
849.464539,322
849.582458,303
849.700317,317
849.818176,309
849.936096,318
850.053955,316
850.171875,317
850.289673,320
850.407593,317
850.525452,320
850.643311,322
850.761169,326
850.878967,308
850.996887,305
851.114746,308
851.232544,319
851.350403,316
851.468262,309
851.58606,319
851.703979,308
851.821777,312
851.939636,306
852.057434,320
852.175232,305
852.293091,305
852.410889,314
852.528687,320
852.646545,329
852.764343,324
852.88208,321
852.999939,316
853.117676,306
853.235535,321
853.353271,307
853.471069,316
853.588928,324
853.706604,312
853.824402,310
853.9422,315
854.059998,315
854.177734,321
854.295532,307
854.413269,323
854.531006,316
854.648804,309
854.766541,305
854.884277,329
855.002014,309
855.119751,324
855.237549,317
855.355225,320
855.473022,306
855.590698,318
855.708435,307
855.826172,321
855.943848,315
856.061646,315
856.179321,305
856.296997,320
856.414795,313
856.53241,332
856.650085,307
856.767822,324
856.885559,310
857.003174,318
857.120911,315
857.238586,320
857.356201,322
857.473938,310
857.591614,320
857.709351,317
857.826965,321
857.944641,334
858.062317,311
858.179993,333
858.297668,319
858.415283,308
858.532959,316
858.650574,305
858.768188,326
858.885803,329
859.003479,311
859.121094,323
859.23877,325
859.356384,308
859.473999,304
859.591675,309
859.709229,318
859.826843,321
859.944458,324
860.062012,318
860.179626,302
860.297302,316
860.414856,312
860.532471,314
860.650024,315
860.767639,320
860.885193,320
861.002808,341
861.120361,317
861.237976,324
861.35553,314
861.473022,321
861.590698,317
861.708191,330
861.825745,320
861.943298,328
862.060852,321
862.178406,326
862.295959,318
862.413513,324
862.531006,315
862.64856,319
862.766113,325
862.883667,313
863.00116,311
863.118713,326
863.236206,319
863.353699,323
863.471252,323
863.588745,316
863.706177,318
863.82373,318
863.941162,302
864.058716,337
864.176208,310
864.29364,328
864.411194,322
864.528687,320
864.646118,324
864.763611,315
864.881042,304
864.998535,313
865.116028,320
865.233459,322
865.350891,315
865.468384,315
865.585754,313
865.703308,319
865.820679,318
865.938171,322
866.055542,317
866.173035,321
866.290466,316
866.407837,315
866.52533,317
866.6427,315
866.760071,310
866.877563,309
866.994934,324
867.112305,321
867.229736,301
867.347107,322
867.464539,308
867.58197,321
867.699341,315
867.81665,316
867.934082,317
868.051453,314
868.168823,320
868.286194,323
868.403564,314
868.520935,316
868.638306,310
868.755676,324
868.872986,316
868.990295,318
869.107727,314
869.225037,322
869.342346,316
869.459717,319
869.577026,318
869.694336,333
869.811707,316
869.929016,322
870.046326,312
870.163635,315
870.280945,319
870.398254,319
870.515564,332
870.632812,329
870.750183,327
870.867432,325
870.984741,310
871.102051,308
871.219299,320
871.336609,328
871.453918,317
871.571106,313
871.688416,316
871.805664,320
871.922852,319
872.040222,322
872.157471,319
872.274719,320
872.391968,310
872.509155,310
872.626465,318
872.743652,316
872.860962,327
872.978149,314
873.095337,325
873.212646,324
873.329834,329
873.44696,328
873.564209,306
873.681396,310
873.798645,317
873.915894,324
874.03302,317
874.150208,322
874.267456,303
874.384583,309
874.501831,320
874.618958,326
874.736145,328
874.853333,317
874.970459,311
875.087646,310
875.204834,321
875.32196,309
875.439148,310
875.556274,326
875.673401,315
875.790527,316
875.907715,324
876.024841,325
876.141968,309
876.259094,312
876.376282,307
876.493347,316
876.610474,308
876.7276,324
876.844727,318
876.961853,334
877.078918,306
877.195984,316
877.313171,310
877.430237,316
877.547302,314
877.664368,323
877.781433,311
877.898499,314
878.015625,302
878.13269,321
878.249695,310
878.366821,319
878.483887,327
878.600952,317
878.717957,322
878.834961,306
878.952087,315
879.069092,324
879.186157,307
879.303162,319
879.420227,310
879.537231,320
879.654236,310
879.77124,313
879.888306,317
880.005249,325
880.122314,318
880.239319,325
880.356323,315
880.473328,322
880.590271,323
880.707275,314
880.824341,297
880.941284,324
881.058228,320
881.175232,320
881.292236,314
881.40918,310
881.526123,327
881.643066,316
881.760071,322
881.877014,315
881.993958,307
882.11084,307
882.227783,316
882.344727,323
882.46167,306
882.578613,321
882.695618,322
882.812439,325
882.929382,307
883.046326,324
883.163208,310
883.280151,303
883.397034,322
883.513916,319
883.630798,327
883.747742,312
883.864563,318
883.981506,305
884.098389,305
884.21521,305
884.332153,326
884.448975,307
884.565796,328
884.682678,320
884.7995,308
884.916443,326
885.033264,330
885.150085,323
885.266968,315
885.383789,304
885.500671,319
885.617493,325
885.734314,307
885.851196,303
885.967896,320
886.084717,323
886.201599,304
886.318359,318
886.435181,324
886.552002,320
886.668762,315
886.785645,305
886.902344,315
887.019165,318
887.135925,315
887.252747,315
887.369446,319
887.486267,318
887.603027,317
887.719788,310
887.836548,314
887.953247,321
888.070068,326
888.186829,313
888.303528,325
888.420288,317
888.536987,318
888.653687,317
888.770447,318
888.887146,321
889.003967,314
889.120667,331
889.237305,314
889.354065,321
889.470703,329
889.587463,322
889.704163,303
889.820862,305
889.937561,320
890.054199,319
890.170837,305
890.287598,306
890.404236,322
890.520874,321
890.637634,312
890.754211,324
890.87085,308
890.987549,334
891.104187,320
891.220886,322
891.337463,302
891.454102,312
891.57074,325
891.687378,327
891.804077,316
891.920654,329
892.037231,304
892.15387,319
892.270447,313
892.387085,307
892.503723,320
892.6203,307
892.736877,320
892.853516,322
892.970032,325
893.08667,319
893.203186,309
893.319763,325
893.43634,315
893.552917,309
893.669556,320
893.786011,326
893.902588,313
894.019165,326
894.135681,323
894.252197,311
894.368835,304
894.485291,318
894.601868,317
894.718384,311
894.8349,331
894.951355,323
895.067932,323
895.184448,326
895.300964,305
895.417419,319
895.533936,323
895.650452,325
895.766907,311
895.883423,312
895.999878,328
896.116333,326
896.232849,312
896.349304,315
896.465759,318
896.582214,324
896.698669,327
896.815125,328
896.931641,324
897.048035,321
897.164551,313
897.280884,325
897.397339,297
897.513794,332
897.630249,312
897.746582,317
897.863098,325
897.979431,324
898.095886,318
898.212341,297
898.328674,332
898.445129,316
898.561462,323
898.677795,319
898.794312,319
898.910645,327
899.026978,324
899.143433,325
899.259766,311
899.37616,316
899.492493,316
899.608765,302
899.725159,308
899.841553,326
899.957947,314
900.07428,321
900.190552,315
900.306946,312
900.423157,326
900.53949,309
900.655884,318
900.772156,315
900.888489,313
901.004822,325
901.121033,330
901.237366,328
901.353699,326
901.46991,320
901.586304,316
901.702515,325
901.818787,313
901.93512,333
902.051331,325
902.167603,320
902.283875,318
902.400085,327
902.516418,323
902.632629,327
902.74884,325
902.865112,327
902.981384,314
903.097595,313
903.213867,318
903.330017,319
903.446289,321
903.5625,321
903.67865,314
903.794922,323
903.911072,321
904.027344,311
904.143494,317
904.259705,311
904.375916,314
904.492065,336
904.608215,316
904.724426,306
904.840576,318
904.956726,328
905.072876,321
905.189087,312
905.305176,315
905.421387,323
905.537537,306
905.653687,317
905.769775,316
905.885925,321
906.002014,321
906.118164,315
906.234314,306
906.350403,308
906.466492,305
906.582642,317
906.69873,319
906.814758,327
906.930908,310
907.046936,304
907.163086,316
907.279175,326
907.395264,323
907.511353,320
907.62738,323
907.743408,310
907.859497,308
907.975525,329
908.091553,304
908.207703,305
908.32373,316
908.439758,327
908.555786,313
908.671814,303
908.787842,317
908.90387,324
909.019775,317
909.135864,330
909.251892,313
909.367859,329
909.483826,329
909.599854,322
909.715881,313
909.831848,318
909.947815,315
910.063782,320
910.179749,317
910.295776,324
910.411743,304
910.527649,321
910.643616,321
910.759583,322
910.875488,314
910.991455,316
911.107361,306
911.223267,324
911.339294,308
911.4552,327
911.571106,317
911.687073,327
911.802979,302
911.918823,330
912.034729,324
912.150635,332
912.266602,317
912.382446,318
912.498352,319
912.614197,327
912.730103,318
912.846008,321
792.44574,304
792.56488,343
792.68396,406
792.80304,372
792.92218,340
793.041199,323
793.160339,336
793.279419,340
793.398499,332
793.517578,326
793.636658,319
793.755737,338
793.874817,359
793.993896,348
794.112976,332
794.232056,321
794.351074,323
794.470215,320
794.589233,334
794.708313,334
794.827393,339
794.946411,309
795.065552,335
795.18457,327
795.303589,332
795.422668,323
795.541687,334
795.660767,337
795.779846,332
795.898865,336
796.017883,321
796.136963,343
796.255981,329
796.375061,328
796.49408,334
796.613037,326
796.732117,330
796.851135,325
796.970154,325
797.089233,324
797.208191,332
797.327271,328
797.446228,323
797.565186,335
797.684265,332
797.803223,332
797.922241,344
798.04126,335
798.160278,342
798.279297,323
798.398315,353
798.517273,324
798.636292,341
798.75531,332
798.874268,344
798.993286,310
799.112244,333
799.231323,327
799.350281,321
799.469238,351
799.588257,320
799.707153,322
799.826111,336
799.945129,335
800.064087,351
800.183044,319
800.302063,336
800.421021,336
800.539978,320
800.658936,321
800.777893,330
800.896912,322
801.015747,330
801.134705,311
801.253723,335
801.37262,325
801.491638,331
801.610535,317
801.729492,321
801.84845,336
801.967407,328
802.086243,321
802.205261,332
802.324158,330
802.443115,333
802.562073,338
802.680969,322
802.799927,326
802.918762,343
803.037659,323
803.156677,339
803.275574,326
803.39447,331
803.513428,333
803.632263,344
803.751221,328
803.870117,325
803.989014,324
804.107971,323
804.226746,336
804.345642,331
804.4646,343
804.583496,323
804.702393,320
804.821228,325
804.940125,312
805.059021,326
805.177917,327
805.296814,337
805.415649,326
805.534546,339
805.653442,324
805.772278,329
805.891113,340
806.01001,343
806.128906,333
806.247742,329
806.366577,337
806.485413,324
806.604309,328
806.723145,337
806.84198,322
806.960876,329
807.079712,311
807.198486,345
807.317383,353
807.436218,331
807.554993,319
807.673889,336
807.792725,319
807.91156,325
808.030396,325
808.14917,341
808.268005,329
808.386841,325
808.505676,340
808.624451,332
808.743286,327
808.862122,328
808.980896,327
809.099731,322
809.218506,320
809.337341,324
809.456116,319
809.57489,343
809.693726,326
809.8125,338
809.931274,333
810.050049,331
810.168884,331
810.287659,320
810.406372,330
810.525269,333
810.643982,333
810.762756,345
810.881531,322
811.000305,325
811.11908,333
811.237854,330
811.356567,334
811.475403,330
811.594116,336
811.71283,329
811.831604,327
811.950378,332
812.069153,338
812.187927,344
812.30658,336
812.425415,316
812.544128,324
812.662781,334
812.781616,321
812.900269,345
813.019043,321
813.137756,341
813.256531,338
813.375244,341
813.493896,334
813.612671,344
813.731384,346
813.850037,330
813.96875,326
814.087524,339
814.206238,334
814.324951,343
814.443604,333
814.562256,321
814.68103,330
814.799683,327
814.918335,338
815.037109,339
815.155762,331
815.274475,337
815.393188,327
815.511841,337
815.630554,326
815.749146,333
815.867859,330
815.986572,328
816.105164,336
816.223877,342
816.342529,327
816.461182,332
816.579895,326
816.698486,324
816.817139,338
816.935791,330
817.054504,325
817.173096,353
817.291748,329
817.4104,332
817.529053,327
817.647644,330
817.766235,333
817.884949,326
818.00354,320
818.122192,330
818.240845,324
818.359436,337
818.478088,319
818.59668,326
818.715271,335
818.833923,320
818.952515,314
819.071106,331
819.189758,309
819.30835,336
819.426941,313
819.545532,323
819.664124,319
819.782715,320
819.901306,324
820.019897,318
820.138489,324
820.25708,323
820.375671,323
820.494202,317
820.612732,318
820.731384,312
820.849915,327
820.968506,328
821.087097,310
821.205627,316
821.324158,308
821.442749,324
821.561279,322
821.679871,324
821.798401,329
821.916931,310
822.035461,316
822.154053,310
822.272583,314
822.391174,325
822.509583,317
822.628174,312
822.746704,324
822.865234,310
822.983765,324
823.102295,322
823.220825,330
823.339294,307
823.457825,318
823.576355,325
823.694824,314
823.813354,321
823.931885,327
824.050354,308
824.168884,326
824.287354,304
824.405823,309
824.524353,328
824.642822,309
824.761353,319
824.879822,324
824.998291,314
825.116699,324
825.235291,326
825.353699,316
825.472168,334
825.590637,311
825.709106,314
825.827576,319
825.946045,326
826.064453,322
826.182983,324
826.301392,321
826.4198,327
826.53833,317
826.656738,314
826.775208,320
826.893677,317
827.012024,320
827.130493,334
827.248962,306
827.36731,332
827.485779,310
827.604248,310
827.722595,322
827.841064,312
827.959412,311
828.077942,317
828.196289,315
828.314636,327
828.433105,315
828.551514,334
828.669861,315
828.78833,323
828.906677,324
829.025085,323
829.143433,327
829.261841,325
829.38031,315
829.498657,322
829.617004,319
829.735413,322
829.85376,319
829.972107,325
830.090515,325
830.208862,304
830.327209,320
830.445557,325
830.563904,328
830.682312,318
830.800659,304
830.919006,324
831.037354,314
831.155701,317
831.274048,306
831.392395,315
831.51062,320
831.629028,345
831.747314,305
831.865662,321
831.984009,313
832.102356,314
832.220642,309
832.338928,326
832.457275,312
832.575623,323
832.693909,310
832.812134,322
832.930481,302
833.048828,325
833.167114,312
833.2854,339
833.403687,321
833.521973,330
833.640259,318
833.758545,303
833.876831,315
833.995056,311
834.113281,325
834.231628,321
834.349915,311
834.468201,328
834.586426,318
834.704651,315
834.822998,319
834.941162,318
835.059448,314
835.177673,329
835.295959,315
835.414246,322
835.53241,322
835.650635,319
835.768921,319
835.887146,312
836.005371,322
836.123596,326
836.241821,316
836.360046,323
836.478271,322
836.596497,322
836.714722,318
836.832886,314
836.95105,305
837.069336,315
837.1875,325
837.305725,325
837.423889,335
837.542053,323
837.660339,304
837.778503,312
837.896667,319
838.014832,325
838.132996,316
838.25116,314
838.369385,316
838.487488,325
838.605713,323
838.723877,320
838.84198,300
838.960205,323
839.078308,322
839.196472,317
839.314636,314
839.4328,307
839.550964,325
839.669067,322
839.787231,317
839.905396,327
840.023499,312
840.141602,330
840.259766,308
840.377869,308
840.495972,328
840.614136,334
840.732239,314
840.850342,335
840.968445,328
841.086548,322
841.204651,314
841.322754,327
841.440918,320
841.55896,321
841.677002,304
841.795166,330
841.913208,312
842.031311,311
842.149353,320
842.267456,333
842.385498,309
842.503601,317
842.621643,318
842.739746,317
842.857788,309
842.97583,318
843.093933,314
843.211975,327
843.330017,331
843.44812,313
843.566101,309
843.684204,329
843.802246,307
843.920227,320
844.038269,326
844.156311,308
844.274292,302
844.392395,316
844.510376,314
844.628357,322
844.74646,321
844.864441,324
844.982422,317
845.100403,308
845.218384,328
845.336426,317
845.454468,309
845.572449,326
845.69043,309
845.808411,330
845.926453,313
846.044373,313
846.162354,317
846.280396,323
846.398315,318
846.516296,322
846.634216,321
846.752197,309
846.870178,323
846.988098,319
847.106079,298
847.22406,318
847.34198,309
847.4599,315
847.577881,322
847.695801,323
847.813782,309
847.931641,327
848.049561,305
848.167603,323
848.285461,323
848.403381,312
848.521362,312
848.639221,320
848.75708,319
848.875,304
848.99292,308
849.110901,323
849.22876,323
849.34668,313
849.464539,318
849.582458,319
849.700317,312
849.818176,319
849.936096,322
850.053955,319
850.171875,301
850.289673,322
850.407593,309
850.525452,310
850.643311,317
850.761169,322
850.878967,326
850.996887,321
851.114746,312
851.232544,314
851.350403,315
851.468262,325
851.58606,311
851.703979,321
851.821777,316
851.939636,316
852.057434,323
852.175232,326
852.293091,314
852.410889,320
852.528687,328
852.646545,317
852.764343,318
852.88208,314
852.999939,302
853.117676,316
853.235535,304
853.353271,318
853.471069,328
853.588928,313
853.706604,326
853.824402,314
853.9422,325
854.059998,330
854.177734,307
854.295532,318
854.413269,310
854.531006,323
854.648804,333
854.766541,314
854.884277,299
855.002014,314
855.119751,325
855.237549,317
855.355225,305
855.473022,329
855.590698,322
855.708435,317
855.826172,300
855.943848,327
856.061646,315
856.179321,320
856.296997,312
856.414795,327
856.53241,315
856.650085,324
856.767822,324
856.885559,314
857.003174,313
857.120911,312
857.238586,310
857.356201,323
857.473938,315
857.591614,325
857.709351,314
857.826965,333
857.944641,309
858.062317,325
858.179993,338
858.297668,319
858.415283,313
858.532959,323
858.650574,315
858.768188,327
858.885803,300
859.003479,314
859.121094,304
859.23877,320
859.356384,315
859.473999,313
859.591675,323
859.709229,332
859.826843,307
859.944458,318
860.062012,328
860.179626,314
860.297302,303
860.414856,323
860.532471,317
860.650024,324
860.767639,317
860.885193,305
861.002808,309
861.120361,323
861.237976,310
861.35553,320
861.473022,323
861.590698,324
861.708191,308
861.825745,324
861.943298,321
862.060852,320
862.178406,303
862.295959,332
862.413513,317
862.531006,330
862.64856,314
862.766113,336
862.883667,314
863.00116,313
863.118713,324
863.236206,309
863.353699,325
863.471252,318
863.588745,319
863.706177,316
863.82373,307
863.941162,331
864.058716,319
864.176208,329
864.29364,304
864.411194,324
864.528687,318
864.646118,326
864.763611,313
864.881042,318
864.998535,312
865.116028,330
865.233459,313
865.350891,313
865.468384,317
865.585754,326
865.703308,318
865.820679,319
865.938171,312
866.055542,321
866.173035,322
866.290466,314
866.407837,328
866.52533,322
866.6427,322
866.760071,321
866.877563,314
866.994934,330
867.112305,313
867.229736,332
867.347107,326
867.464539,325
867.58197,307
867.699341,329
867.81665,317
867.934082,321
868.051453,317
868.168823,332
868.286194,317
868.403564,319
868.520935,309
868.638306,323
868.755676,321
868.872986,321
868.990295,326
869.107727,330
869.225037,312
869.342346,318
869.459717,312
869.577026,318
869.694336,318
869.811707,319
869.929016,305
870.046326,315
870.163635,314
870.280945,318
870.398254,320
870.515564,313
870.632812,313
870.750183,316
870.867432,323
870.984741,328
871.102051,319
871.219299,309
871.336609,323
871.453918,337
871.571106,312
871.688416,313
871.805664,322
871.922852,320
872.040222,301
872.157471,329
872.274719,312
872.391968,324
872.509155,325
872.626465,313
872.743652,319
872.860962,313
872.978149,334
873.095337,315
873.212646,312
873.329834,318
873.44696,305
873.564209,310
873.681396,306
873.798645,325
873.915894,313
874.03302,309
874.150208,318
874.267456,321
874.384583,320
874.501831,316
874.618958,322
874.736145,330
874.853333,306
874.970459,318
875.087646,324
875.204834,318
875.32196,322
875.439148,331
875.556274,319
875.673401,318
875.790527,312
875.907715,320
876.024841,322
876.141968,311
876.259094,323
876.376282,321
876.493347,324
876.610474,320
876.7276,317
876.844727,322
876.961853,321
877.078918,330
877.195984,311
877.313171,335
877.430237,326
877.547302,321
877.664368,306
877.781433,319
877.898499,321
878.015625,313
878.13269,314
878.249695,316
878.366821,321
878.483887,316
878.600952,318
878.717957,319
878.834961,312
878.952087,323
879.069092,315
879.186157,321
879.303162,317
879.420227,318
879.537231,309
879.654236,334
879.77124,325
879.888306,322
880.005249,313
880.122314,308
880.239319,324
880.356323,313
880.473328,316
880.590271,326
880.707275,310
880.824341,326
880.941284,322
881.058228,315
881.175232,321
881.292236,329
881.40918,307
881.526123,318
881.643066,307
881.760071,312
881.877014,326
881.993958,328
882.11084,321
882.227783,335
882.344727,314
882.46167,316
882.578613,308
882.695618,317
882.812439,315
882.929382,318
883.046326,320
883.163208,317
883.280151,323
883.397034,320
883.513916,308
883.630798,313
883.747742,319
883.864563,317
883.981506,307
884.098389,307
884.21521,311
884.332153,329
884.448975,323
884.565796,313
884.682678,316
884.7995,321
884.916443,319
885.033264,333
885.150085,321
885.266968,326
885.383789,315
885.500671,314
885.617493,322
885.734314,315
885.851196,319
885.967896,322
886.084717,317
886.201599,309
886.318359,309
886.435181,320
886.552002,330
886.668762,324
886.785645,316
886.902344,325
887.019165,308
887.135925,326
887.252747,312
887.369446,326
887.486267,316
887.603027,313
887.719788,328
887.836548,322
887.953247,314
888.070068,325
888.186829,311
888.303528,326
888.420288,314
888.536987,329
888.653687,328
888.770447,316
888.887146,324
889.003967,323
889.120667,312
889.237305,315
889.354065,321
889.470703,317
889.587463,310
889.704163,322
889.820862,317
889.937561,320
890.054199,306
890.170837,329
890.287598,309
890.404236,321
890.520874,306
890.637634,319
890.754211,297
890.87085,310
890.987549,322
891.104187,333
891.220886,324
891.337463,314
891.454102,331
891.57074,310
891.687378,308
891.804077,316
891.920654,317
892.037231,322
892.15387,320
892.270447,327
892.387085,317
892.503723,326
892.6203,318
892.736877,321
892.853516,306
892.970032,311
893.08667,322
893.203186,324
893.319763,322
893.43634,322
893.552917,310
893.669556,317
893.786011,319
893.902588,324
894.019165,297
894.135681,319
894.252197,319
894.368835,319
894.485291,305
894.601868,318
894.718384,311
894.8349,331
894.951355,325
895.067932,314
895.184448,320
895.300964,321
895.417419,307
895.533936,327
895.650452,305
895.766907,318
895.883423,323
895.999878,335
896.116333,307
896.232849,316
896.349304,304
896.465759,327
896.582214,313
896.698669,314
896.815125,314
896.931641,331
897.048035,321
897.164551,312
897.280884,325
897.397339,323
897.513794,310
897.630249,328
897.746582,325
897.863098,331
897.979431,310
898.095886,318
898.212341,308
898.328674,320
898.445129,323
898.561462,312
898.677795,325
898.794312,314
898.910645,313
899.026978,319
899.143433,317
899.259766,321
899.37616,315
899.492493,316
899.608765,319
899.725159,318
899.841553,317
899.957947,316
900.07428,320
900.190552,315
900.306946,321
900.423157,318
900.53949,313
900.655884,324
900.772156,306
900.888489,335
901.004822,314
901.121033,328
901.237366,317
901.353699,321
901.46991,299
901.586304,323
901.702515,327
901.818787,318
901.93512,313
902.051331,322
902.167603,332
902.283875,317
902.400085,308
902.516418,320
902.632629,320
902.74884,327
902.865112,312
902.981384,321
903.097595,317
903.213867,330
903.330017,323
903.446289,319
903.5625,309
903.67865,319
903.794922,312
903.911072,322
904.027344,322
904.143494,308
904.259705,318
904.375916,320
904.492065,312
904.608215,329
904.724426,313
904.840576,328
904.956726,318
905.072876,315
905.189087,316
905.305176,309
905.421387,318
905.537537,330
905.653687,308
905.769775,327
905.885925,323
906.002014,320
906.118164,310
906.234314,332
906.350403,319
906.466492,330
906.582642,306
906.69873,327
906.814758,320
906.930908,336
907.046936,320
907.163086,322
907.279175,312
907.395264,313
907.511353,314
907.62738,311
907.743408,321
907.859497,336
907.975525,312
908.091553,321
908.207703,306
908.32373,322
908.439758,315
908.555786,324
908.671814,321
908.787842,313
908.90387,322
909.019775,330
909.135864,309
909.251892,312
909.367859,300
909.483826,326
909.599854,308
909.715881,319
909.831848,303
909.947815,320
910.063782,320
910.179749,320
910.295776,325
910.411743,327
910.527649,319
910.643616,329
910.759583,301
910.875488,315
910.991455,327
911.107361,321
911.223267,313
911.339294,308
911.4552,325
911.571106,327
911.687073,320
911.802979,318
911.918823,326
912.034729,319
912.150635,316
912.266602,321
912.382446,327
912.498352,325
912.614197,308
912.730103,319
912.846008,318
792.44574,307
792.56488,346
792.68396,400
792.80304,384
792.92218,337
793.041199,331
793.160339,321
793.279419,333
793.398499,324
793.517578,323
793.636658,325
793.755737,332
793.874817,346
793.993896,345
794.112976,330
794.232056,332
794.351074,328
794.470215,325
794.589233,329
794.708313,325
794.827393,326
794.946411,337
795.065552,338
795.18457,340
795.303589,346
795.422668,333
795.541687,330
795.660767,326
795.779846,332
795.898865,331
796.017883,319
796.136963,322
796.255981,321
796.375061,338
796.49408,327
796.613037,326
796.732117,331
796.851135,330
796.970154,337
797.089233,328
797.208191,319
797.327271,326
797.446228,319
797.565186,336
797.684265,333
797.803223,329
797.922241,342
798.04126,327
798.160278,332
798.279297,341
798.398315,329
798.517273,336
798.636292,339
798.75531,327
798.874268,323
798.993286,328
799.112244,340
799.231323,317
799.350281,330
799.469238,341
799.588257,310
799.707153,332
799.826111,325
799.945129,329
800.064087,319
800.183044,334
800.302063,326
800.421021,321
800.539978,329
800.658936,322
800.777893,324
800.896912,333
801.015747,333
801.134705,334
801.253723,321
801.37262,333
801.491638,321
801.610535,333
801.729492,333
801.84845,336
801.967407,334
802.086243,322
802.205261,319
802.324158,333
802.443115,321
802.562073,328
802.680969,334
802.799927,335
802.918762,322
803.037659,327
803.156677,334
803.275574,331
803.39447,339
803.513428,332
803.632263,321
803.751221,327
803.870117,333
803.989014,334
804.107971,318
804.226746,321
804.345642,329
804.4646,337
804.583496,338
804.702393,320
804.821228,332
804.940125,337
805.059021,331
805.177917,318
805.296814,328
805.415649,332
805.534546,323
805.653442,320
805.772278,322
805.891113,329
806.01001,327
806.128906,323
806.247742,336
806.366577,333
806.485413,339
806.604309,332
806.723145,331
806.84198,332
806.960876,322
807.079712,332
807.198486,323
807.317383,319
807.436218,335
807.554993,330
807.673889,329
807.792725,337
807.91156,334
808.030396,343
808.14917,324
808.268005,329
808.386841,334
808.505676,329
808.624451,335
808.743286,331
808.862122,332
808.980896,333
809.099731,318
809.218506,343
809.337341,336
809.456116,315
809.57489,350
809.693726,327
809.8125,334
809.931274,316
810.050049,353
810.168884,321
810.287659,339
810.406372,331
810.525269,340
810.643982,312
810.762756,339
810.881531,325
811.000305,347
811.11908,317
811.237854,346
811.356567,323
811.475403,326
811.594116,339
811.71283,338
811.831604,335
811.950378,330
812.069153,338
812.187927,333
812.30658,324
812.425415,332
812.544128,321
812.662781,327
812.781616,333
812.900269,332
813.019043,350
813.137756,327
813.256531,337
813.375244,337
813.493896,337
813.612671,331
813.731384,329
813.850037,326
813.96875,327
814.087524,331
814.206238,321
814.324951,318
814.443604,326
814.562256,333
814.68103,331
814.799683,340
814.918335,337
815.037109,345
815.155762,329
815.274475,335
815.393188,330
815.511841,338
815.630554,316
815.749146,346
815.867859,330
815.986572,339
816.105164,330
816.223877,332
816.342529,329
816.461182,329
816.579895,335
816.698486,338
816.817139,329
816.935791,329
817.054504,338
817.173096,346
817.291748,328
817.4104,330
817.529053,309
817.647644,334
817.766235,321
817.884949,344
818.00354,326
818.122192,334
818.240845,319
818.359436,316
818.478088,330
818.59668,330
818.715271,317
818.833923,324
818.952515,316
819.071106,311
819.189758,320
819.30835,326
819.426941,316
819.545532,315
819.664124,323
819.782715,318
819.901306,320
820.019897,316
820.138489,318
820.25708,324
820.375671,317
820.494202,321
820.612732,311
820.731384,325
820.849915,310
820.968506,320
821.087097,310
821.205627,321
821.324158,328
821.442749,328
821.561279,317
821.679871,322
821.798401,321
821.916931,338
822.035461,318
822.154053,313
822.272583,319
822.391174,317
822.509583,320
822.628174,309
822.746704,320
822.865234,313
822.983765,316
823.102295,322
823.220825,320
823.339294,319
823.457825,316
823.576355,319
823.694824,326
823.813354,311
823.931885,329
824.050354,326
824.168884,318
824.287354,319
824.405823,333
824.524353,327
824.642822,325
824.761353,325
824.879822,310
824.998291,323
825.116699,308
825.235291,329
825.353699,317
825.472168,326
825.590637,326
825.709106,315
825.827576,315
825.946045,311
826.064453,312
826.182983,323
826.301392,317
826.4198,316
826.53833,315
826.656738,328
826.775208,326
826.893677,307
827.012024,316
827.130493,326
827.248962,323
827.36731,310
827.485779,312
827.604248,298
827.722595,319
827.841064,330
827.959412,313
828.077942,306
828.196289,302
828.314636,305
828.433105,301
828.551514,321
828.669861,309
828.78833,323
828.906677,323
829.025085,322
829.143433,321
829.261841,325
829.38031,317
829.498657,319
829.617004,312
829.735413,322
829.85376,314
829.972107,301
830.090515,322
830.208862,333
830.327209,321
830.445557,324
830.563904,302
830.682312,317
830.800659,310
830.919006,309
831.037354,312
831.155701,331
831.274048,311
831.392395,318
831.51062,320
831.629028,326
831.747314,316
831.865662,315
831.984009,331
832.102356,309
832.220642,308
832.338928,329
832.457275,310
832.575623,331
832.693909,324
832.812134,321
832.930481,321
833.048828,309
833.167114,314
833.2854,329
833.403687,316
833.521973,320
833.640259,305
833.758545,324
833.876831,319
833.995056,333
834.113281,331
834.231628,311
834.349915,320
834.468201,314
834.586426,314
834.704651,306
834.822998,315
834.941162,299
835.059448,317
835.177673,319
835.295959,317
835.414246,316
835.53241,313
835.650635,316
835.768921,305
835.887146,322
836.005371,318
836.123596,325
836.241821,318
836.360046,318
836.478271,319
836.596497,324
836.714722,309
836.832886,318
836.95105,319
837.069336,320
837.1875,335
837.305725,322
837.423889,301
837.542053,323
837.660339,310
837.778503,317
837.896667,314
838.014832,327
838.132996,311
838.25116,319
838.369385,317
838.487488,312
838.605713,313
838.723877,338
838.84198,319
838.960205,326
839.078308,325
839.196472,329
839.314636,326
839.4328,316
839.550964,313
839.669067,307
839.787231,306
839.905396,330
840.023499,323
840.141602,328
840.259766,296
840.377869,305
840.495972,306
840.614136,322
840.732239,321
840.850342,316
840.968445,311
841.086548,309
841.204651,315
841.322754,323
841.440918,302
841.55896,305
841.677002,320
841.795166,332
841.913208,318
842.031311,312
842.149353,310
842.267456,310
842.385498,312
842.503601,310
842.621643,324
842.739746,319
842.857788,316
842.97583,315
843.093933,305
843.211975,306
843.330017,317
843.44812,310
843.566101,315
843.684204,328
843.802246,313
843.920227,320
844.038269,308
844.156311,317
844.274292,310
844.392395,314
844.510376,307
844.628357,324
844.74646,294
844.864441,325
844.982422,316
845.100403,324
845.218384,318
845.336426,335
845.454468,318
845.572449,337
845.69043,319
845.808411,325
845.926453,311
846.044373,313
846.162354,305
846.280396,310
846.398315,313
846.516296,307
846.634216,322
846.752197,317
846.870178,310
846.988098,309
847.106079,311
847.22406,318
847.34198,336
847.4599,313
847.577881,322
847.695801,312
847.813782,326
847.931641,307
848.049561,311
848.167603,322
848.285461,321
848.403381,304
848.521362,303
848.639221,323
848.75708,319
848.875,326
848.99292,320
849.110901,311
849.22876,309
849.34668,320
849.464539,298
849.582458,305
849.700317,326
849.818176,326
849.936096,316
850.053955,320
850.171875,319
850.289673,315
850.407593,317
850.525452,329
850.643311,314
850.761169,333
850.878967,313
850.996887,314
851.114746,315
851.232544,316
851.350403,303
851.468262,326
851.58606,323
851.703979,314
851.821777,306
851.939636,313
852.057434,310
852.175232,322
852.293091,317
852.410889,315
852.528687,314
852.646545,322
852.764343,299
852.88208,321
852.999939,325
853.117676,311
853.235535,312
853.353271,315
853.471069,332
853.588928,304
853.706604,328
853.824402,318
853.9422,306
854.059998,303
854.177734,314
854.295532,303
854.413269,316
854.531006,315
854.648804,305
854.766541,329
854.884277,312
855.002014,321
855.119751,311
855.237549,327
855.355225,315
855.473022,325
855.590698,316
855.708435,314
855.826172,317
855.943848,326
856.061646,307
856.179321,318
856.296997,324
856.414795,317
856.53241,325
856.650085,321
856.767822,307
856.885559,311
857.003174,316
857.120911,307
857.238586,324
857.356201,311
857.473938,331
857.591614,323
857.709351,308
857.826965,329
857.944641,322
858.062317,322
858.179993,328
858.297668,314
858.415283,318
858.532959,323
858.650574,321
858.768188,317
858.885803,316
859.003479,317
859.121094,317
859.23877,312
859.356384,318
859.473999,325
859.591675,314
859.709229,326
859.826843,306
859.944458,318
860.062012,326
860.179626,324
860.297302,324
860.414856,315
860.532471,304
860.650024,328
860.767639,313
860.885193,307
861.002808,315
861.120361,316
861.237976,309
861.35553,321
861.473022,322
861.590698,337
861.708191,315
861.825745,322
861.943298,302
862.060852,322
862.178406,311
862.295959,315
862.413513,322
862.531006,312
862.64856,318
862.766113,314
862.883667,323
863.00116,327
863.118713,304
863.236206,330
863.353699,326
863.471252,320
863.588745,313
863.706177,316
863.82373,314
863.941162,310
864.058716,310
864.176208,325
864.29364,301
864.411194,337
864.528687,314
864.646118,305
864.763611,321
864.881042,320
864.998535,310
865.116028,326
865.233459,317
865.350891,315
865.468384,318
865.585754,322
865.703308,320
865.820679,313
865.938171,320
866.055542,325
866.173035,310
866.290466,321
866.407837,324
866.52533,323
866.6427,302
866.760071,324
866.877563,316
866.994934,314
867.112305,316
867.229736,331
867.347107,315
867.464539,328
867.58197,305
867.699341,333
867.81665,304
867.934082,303
868.051453,306
868.168823,318
868.286194,318
868.403564,324
868.520935,317
868.638306,314
868.755676,321
868.872986,318
868.990295,311
869.107727,329
869.225037,315
869.342346,306
869.459717,329
869.577026,300
869.694336,322
869.811707,323
869.929016,298
870.046326,318
870.163635,325
870.280945,333
870.398254,307
870.515564,322
870.632812,314
870.750183,310
870.867432,312
870.984741,304
871.102051,313
871.219299,320
871.336609,299
871.453918,323
871.571106,313
871.688416,293
871.805664,332
871.922852,320
872.040222,315
872.157471,315
872.274719,305
872.391968,324
872.509155,317
872.626465,314
872.743652,308
872.860962,316
872.978149,315
873.095337,318
873.212646,313
873.329834,302
873.44696,309
873.564209,313
873.681396,313
873.798645,323
873.915894,328
874.03302,310
874.150208,315
874.267456,324
874.384583,309
874.501831,320
874.618958,319
874.736145,304
874.853333,314
874.970459,321
875.087646,309
875.204834,312
875.32196,323
875.439148,309
875.556274,318
875.673401,323
875.790527,309
875.907715,316
876.024841,314
876.141968,321
876.259094,312
876.376282,325
876.493347,311
876.610474,316
876.7276,313
876.844727,314
876.961853,321
877.078918,329
877.195984,314
877.313171,312
877.430237,314
877.547302,310
877.664368,330
877.781433,311
877.898499,321
878.015625,306
878.13269,312
878.249695,317
878.366821,316
878.483887,328
878.600952,312
878.717957,312
878.834961,311
878.952087,329
879.069092,311
879.186157,316
879.303162,325
879.420227,321
879.537231,311
879.654236,322
879.77124,310
879.888306,304
880.005249,312
880.122314,322
880.239319,318
880.356323,315
880.473328,314
880.590271,324
880.707275,323
880.824341,320
880.941284,313
881.058228,308
881.175232,317
881.292236,323
881.40918,315
881.526123,319
881.643066,322
881.760071,322
881.877014,321
881.993958,322
882.11084,309
882.227783,324
882.344727,314
882.46167,316
882.578613,306
882.695618,314
882.812439,307
882.929382,318
883.046326,323
883.163208,326
883.280151,315
883.397034,310
883.513916,320
883.630798,327
883.747742,309
883.864563,315
883.981506,319
884.098389,319
884.21521,309
884.332153,321
884.448975,317
884.565796,310
884.682678,318
884.7995,318
884.916443,320
885.033264,323
885.150085,315
885.266968,329
885.383789,318
885.500671,323
885.617493,324
885.734314,301
885.851196,321
885.967896,340
886.084717,314
886.201599,307
886.318359,324
886.435181,327
886.552002,322
886.668762,323
886.785645,303
886.902344,318
887.019165,318
887.135925,314
887.252747,321
887.369446,324
887.486267,311
887.603027,316
887.719788,315
887.836548,324
887.953247,317
888.070068,320
888.186829,319
888.303528,311
888.420288,321
888.536987,327
888.653687,315
888.770447,334
888.887146,305
889.003967,322
889.120667,313
889.237305,303
889.354065,310
889.470703,321
889.587463,326
889.704163,311
889.820862,324
889.937561,322
890.054199,324
890.170837,311
890.287598,321
890.404236,323
890.520874,304
890.637634,320
890.754211,319
890.87085,317
890.987549,332
891.104187,329
891.220886,312
891.337463,314
891.454102,310
891.57074,325
891.687378,308
891.804077,313
891.920654,324
892.037231,326
892.15387,319
892.270447,311
892.387085,319
892.503723,319
892.6203,313
892.736877,318
892.853516,311
892.970032,316
893.08667,314
893.203186,326
893.319763,318
893.43634,322
893.552917,330
893.669556,326
893.786011,313
893.902588,319
894.019165,325
894.135681,324
894.252197,313
894.368835,324
894.485291,313
894.601868,319
894.718384,333
894.8349,329
894.951355,308
895.067932,315
895.184448,305
895.300964,324
895.417419,307
895.533936,315
895.650452,296
895.766907,329
895.883423,321
895.999878,317
896.116333,326
896.232849,319
896.349304,308
896.465759,307
896.582214,316
896.698669,319
896.815125,303
896.931641,329
897.048035,308
897.164551,313
897.280884,315
897.397339,335
897.513794,320
897.630249,331
897.746582,316
897.863098,319
897.979431,311
898.095886,335
898.212341,317
898.328674,319
898.445129,304
898.561462,315
898.677795,329
898.794312,322
898.910645,321
899.026978,322
899.143433,309
899.259766,316
899.37616,303
899.492493,334
899.608765,321
899.725159,322
899.841553,318
899.957947,320
900.07428,320
900.190552,308
900.306946,319
900.423157,325
900.53949,314
900.655884,329
900.772156,321
900.888489,333
901.004822,318
901.121033,306
901.237366,327
901.353699,313
901.46991,310
901.586304,332
901.702515,306
901.818787,330
901.93512,323
902.051331,321
902.167603,318
902.283875,318
902.400085,326
902.516418,313
902.632629,319
902.74884,319
902.865112,309
902.981384,324
903.097595,320
903.213867,320
903.330017,317
903.446289,318
903.5625,318
903.67865,326
903.794922,319
903.911072,310
904.027344,311
904.143494,320
904.259705,330
904.375916,327
904.492065,307
904.608215,310
904.724426,315
904.840576,321
904.956726,310
905.072876,322
905.189087,319
905.305176,326
905.421387,319
905.537537,305
905.653687,322
905.769775,326
905.885925,326
906.002014,316
906.118164,301
906.234314,319
906.350403,311
906.466492,311
906.582642,323
906.69873,335
906.814758,325
906.930908,317
907.046936,323
907.163086,330
907.279175,302
907.395264,329
907.511353,315
907.62738,324
907.743408,307
907.859497,313
907.975525,320
908.091553,322
908.207703,338
908.32373,322
908.439758,310
908.555786,321
908.671814,315
908.787842,318
908.90387,311
909.019775,334
909.135864,327
909.251892,319
909.367859,321
909.483826,319
909.599854,313
909.715881,319
909.831848,318
909.947815,332
910.063782,332
910.179749,319
910.295776,330
910.411743,321
910.527649,311
910.643616,321
910.759583,333
910.875488,325
910.991455,313
911.107361,327
911.223267,317
911.339294,327
911.4552,320
911.571106,326
911.687073,302
911.802979,331
911.918823,311
912.034729,329
912.150635,322
912.266602,322
912.382446,315
912.498352,317
912.614197,316
912.730103,316
912.846008,333
