792.44574,326
792.56488,345
792.68396,395
792.80304,376
792.92218,339
793.041199,326
793.160339,319
793.279419,348
793.398499,326
793.517578,314
793.636658,323
793.755737,328
793.874817,348
793.993896,346
794.112976,328
794.232056,322
794.351074,319
794.470215,332
794.589233,325
794.708313,330
794.827393,324
794.946411,341
795.065552,333
795.18457,344
795.303589,329
795.422668,311
795.541687,328
795.660767,320
795.779846,338
795.898865,321
796.017883,326
796.136963,326
796.255981,333
796.375061,326
796.49408,334
796.613037,314
796.732117,322
796.851135,331
796.970154,327
797.089233,332
797.208191,332
797.327271,321
797.446228,333
797.565186,332
797.684265,323
797.803223,324
797.922241,311
798.04126,321
798.160278,334
798.279297,329
798.398315,322
798.517273,330
798.636292,339
798.75531,342
798.874268,315
798.993286,342
799.112244,329
799.231323,313
799.350281,336
799.469238,334
799.588257,335
799.707153,333
799.826111,322
799.945129,323
800.064087,327
800.183044,325
800.302063,321
800.421021,329
800.539978,326
800.658936,354
800.777893,325
800.896912,326
801.015747,336
801.134705,328
801.253723,324
801.37262,326
801.491638,344
801.610535,316
801.729492,329
801.84845,316
801.967407,321
802.086243,319
802.205261,325
802.324158,323
802.443115,336
802.562073,317
802.680969,333
802.799927,319
802.918762,329
803.037659,331
803.156677,318
803.275574,326
803.39447,338
803.513428,330
803.632263,339
803.751221,337
803.870117,327
803.989014,331
804.107971,333
804.226746,345
804.345642,316
804.4646,338
804.583496,324
804.702393,336
804.821228,338
804.940125,320
805.059021,323
805.177917,328
805.296814,323
805.415649,339
805.534546,320
805.653442,334
805.772278,326
805.891113,338
806.01001,327
806.128906,332
806.247742,320
806.366577,339
806.485413,338
806.604309,327
806.723145,325
806.84198,327
806.960876,322
807.079712,339
807.198486,320
807.317383,331
807.436218,332
807.554993,334
807.673889,336
807.792725,322
807.91156,327
808.030396,333
808.14917,339
808.268005,334
808.386841,340
808.505676,325
808.624451,342
808.743286,322
808.862122,333
808.980896,333
809.099731,328
809.218506,325
809.337341,327
809.456116,334
809.57489,330
809.693726,327
809.8125,330
809.931274,329
810.050049,322
810.168884,339
810.287659,326
810.406372,332
810.525269,329
810.643982,335
810.762756,338
810.881531,322
811.000305,315
811.11908,328
811.237854,319
811.356567,327
811.475403,323
811.594116,332
811.71283,338
811.831604,322
811.950378,321
812.069153,333
812.187927,331
812.30658,340
812.425415,342
812.544128,334
812.662781,325
812.781616,325
812.900269,335
813.019043,335
813.137756,344
813.256531,331
813.375244,335
813.493896,334
813.612671,341
813.731384,338
813.850037,337
813.96875,341
814.087524,324
814.206238,342
814.324951,339
814.443604,337
814.562256,329
814.68103,340
814.799683,336
814.918335,338
815.037109,324
815.155762,348
815.274475,340
815.393188,347
815.511841,320
815.630554,329
815.749146,335
815.867859,329
815.986572,342
816.105164,324
816.223877,325
816.342529,324
816.461182,321
816.579895,337
816.698486,337
816.817139,324
816.935791,342
817.054504,320
817.173096,350
817.291748,331
817.4104,338
817.529053,329
817.647644,316
817.766235,346
817.884949,333
818.00354,328
818.122192,318
818.240845,316
818.359436,328
818.478088,330
818.59668,325
818.715271,312
818.833923,322
818.952515,336
819.071106,321
819.189758,330
819.30835,323
819.426941,313
819.545532,329
819.664124,316
819.782715,316
819.901306,334
820.019897,317
820.138489,327
820.25708,332
820.375671,323
820.494202,310
820.612732,322
820.731384,320
820.849915,314
820.968506,312
821.087097,323
821.205627,316
821.324158,318
821.442749,318
821.561279,326
821.679871,339
821.798401,328
821.916931,308
822.035461,326
822.154053,322
822.272583,315
822.391174,306
822.509583,310
822.628174,319
822.746704,313
822.865234,332
822.983765,317
823.102295,320
823.220825,317
823.339294,322
823.457825,315
823.576355,318
823.694824,317
823.813354,323
823.931885,317
824.050354,318
824.168884,333
824.287354,314
824.405823,327
824.524353,314
824.642822,323
824.761353,317
824.879822,317
824.998291,319
825.116699,330
825.235291,317
825.353699,327
825.472168,318
825.590637,323
825.709106,324
825.827576,312
825.946045,317
826.064453,329
826.182983,311
826.301392,314
826.4198,328
826.53833,320
826.656738,314
826.775208,323
826.893677,322
827.012024,321
827.130493,308
827.248962,310
827.36731,327
827.485779,322
827.604248,319
827.722595,323
827.841064,311
827.959412,312
828.077942,303
828.196289,309
828.314636,308
828.433105,316
828.551514,312
828.669861,313
828.78833,318
828.906677,318
829.025085,326
829.143433,317
829.261841,325
829.38031,304
829.498657,328
829.617004,324
829.735413,317
829.85376,317
829.972107,322
830.090515,323
830.208862,312
830.327209,320
830.445557,304
830.563904,329
830.682312,310
830.800659,318
830.919006,318
831.037354,316
831.155701,315
831.274048,320
831.392395,319
831.51062,320
831.629028,318
831.747314,311
831.865662,305
831.984009,312
832.102356,307
832.220642,325
832.338928,313
832.457275,302
832.575623,333
832.693909,308
832.812134,326
832.930481,318
833.048828,316
833.167114,315
833.2854,317
833.403687,317
833.521973,322
833.640259,312
833.758545,328
833.876831,308
833.995056,319
834.113281,324
834.231628,312
834.349915,302
834.468201,313
834.586426,314
834.704651,313
834.822998,310
834.941162,315
835.059448,314
835.177673,306
835.295959,321
835.414246,321
835.53241,325
835.650635,312
835.768921,323
835.887146,302
836.005371,322
836.123596,306
836.241821,325
836.360046,319
836.478271,314
836.596497,306
836.714722,309
836.832886,320
836.95105,313
837.069336,318
837.1875,324
837.305725,313
837.423889,305
837.542053,324
837.660339,309
837.778503,318
837.896667,328
838.014832,311
838.132996,320
838.25116,307
838.369385,326
838.487488,313
838.605713,320
838.723877,311
838.84198,311
838.960205,319
839.078308,326
839.196472,312
839.314636,323
839.4328,326
839.550964,326
839.669067,313
839.787231,317
839.905396,323
840.023499,318
840.141602,313
840.259766,317
840.377869,323
840.495972,315
840.614136,310
840.732239,312
840.850342,317
840.968445,301
841.086548,305
841.204651,308
841.322754,324
841.440918,329
841.55896,310
841.677002,315
841.795166,331
841.913208,307
842.031311,324
842.149353,319
842.267456,314
842.385498,316
842.503601,320
842.621643,317
842.739746,309
842.857788,320
842.97583,314
843.093933,318
843.211975,314
843.330017,315
843.44812,307
843.566101,320
843.684204,326
843.802246,311
843.920227,308
844.038269,321
844.156311,302
844.274292,309
844.392395,306
844.510376,338
844.628357,310
844.74646,322
844.864441,321
844.982422,322
845.100403,321
845.218384,329
845.336426,303
845.454468,314
845.572449,320
845.69043,321
845.808411,316
845.926453,328
846.044373,313
846.162354,326
846.280396,320
846.398315,304
846.516296,320
846.634216,323
846.752197,318
846.870178,318
846.988098,310
847.106079,326
847.22406,314
847.34198,316
847.4599,309
847.577881,308
847.695801,304
847.813782,319
847.931641,322
848.049561,322
848.167603,317
848.285461,321
848.403381,320
848.521362,318
848.639221,313
848.75708,322
848.875,319
848.99292,310
849.110901,334
849.22876,310
849.34668,315
849.464539,319
849.582458,311
849.700317,316
849.818176,314
849.936096,310
850.053955,317
850.171875,321
850.289673,330
850.407593,316
850.525452,315
850.643311,305
850.761169,322
850.878967,315
850.996887,309
851.114746,317
851.232544,317
851.350403,308
851.468262,326
851.58606,312
851.703979,319
851.821777,311
851.939636,322
852.057434,313
852.175232,324
852.293091,304
852.410889,313
852.528687,315
852.646545,316
852.764343,326
852.88208,317
852.999939,314
853.117676,319
853.235535,314
853.353271,324
853.471069,327
853.588928,299
853.706604,318
853.824402,329
853.9422,317
854.059998,317
854.177734,329
854.295532,315
854.413269,314
854.531006,310
854.648804,309
854.766541,305
854.884277,325
855.002014,314
855.119751,326
855.237549,321
855.355225,306
855.473022,313
855.590698,309
855.708435,316
855.826172,314
855.943848,320
856.061646,317
856.179321,317
856.296997,321
856.414795,313
856.53241,324
856.650085,331
856.767822,303
856.885559,323
857.003174,332
857.120911,312
857.238586,319
857.356201,308
857.473938,302
857.591614,323
857.709351,311
857.826965,314
857.944641,326
858.062317,320
858.179993,311
858.297668,299
858.415283,316
858.532959,326
858.650574,326
858.768188,312
858.885803,305
859.003479,313
859.121094,327
859.23877,322
859.356384,302
859.473999,313
859.591675,320
859.709229,314
859.826843,324
859.944458,303
860.062012,322
860.179626,319
860.297302,330
860.414856,313
860.532471,320
860.650024,322
860.767639,313
860.885193,302
861.002808,314
861.120361,309
861.237976,326
861.35553,318
861.473022,315
861.590698,333
861.708191,306
861.825745,323
861.943298,298
862.060852,330
862.178406,318
862.295959,311
862.413513,317
862.531006,309
862.64856,318
862.766113,328
862.883667,313
863.00116,315
863.118713,318
863.236206,312
863.353699,317
863.471252,316
863.588745,313
863.706177,315
863.82373,302
863.941162,314
864.058716,306
864.176208,309
864.29364,303
864.411194,332
864.528687,315
864.646118,309
864.763611,318
864.881042,308
864.998535,323
865.116028,314
865.233459,325
865.350891,316
865.468384,320
865.585754,310
865.703308,306
865.820679,303
865.938171,326
866.055542,298
866.173035,322
866.290466,327
866.407837,322
866.52533,316
866.6427,322
866.760071,326
866.877563,313
866.994934,314
867.112305,318
867.229736,311
867.347107,321
867.464539,308
867.58197,322
867.699341,324
867.81665,316
867.934082,323
868.051453,309
868.168823,313
868.286194,316
868.403564,306
868.520935,324
868.638306,320
868.755676,328
868.872986,312
868.990295,322
869.107727,313
869.225037,311
869.342346,315
869.459717,321
869.577026,310
869.694336,320
869.811707,306
869.929016,318
870.046326,321
870.163635,307
870.280945,318
870.398254,314
870.515564,314
870.632812,312
870.750183,298
870.867432,311
870.984741,314
871.102051,299
871.219299,321
871.336609,316
871.453918,338
871.571106,320
871.688416,314
871.805664,317
871.922852,324
872.040222,322
872.157471,326
872.274719,322
872.391968,334
872.509155,319
872.626465,326
872.743652,326
872.860962,316
872.978149,316
873.095337,297
873.212646,318
873.329834,317
873.44696,334
873.564209,325
873.681396,325
873.798645,301
873.915894,327
874.03302,310
874.150208,329
874.267456,318
874.384583,323
874.501831,323
874.618958,320
874.736145,320
874.853333,311
874.970459,327
875.087646,318
875.204834,308
875.32196,321
875.439148,302
875.556274,316
875.673401,323
875.790527,317
875.907715,315
876.024841,331
876.141968,317
876.259094,318
876.376282,307
876.493347,324
876.610474,309
876.7276,322
876.844727,321
876.961853,305
877.078918,323
877.195984,316
877.313171,319
877.430237,322
877.547302,307
877.664368,319
877.781433,310
877.898499,319
878.015625,321
878.13269,316
878.249695,313
878.366821,317
878.483887,310
878.600952,329
878.717957,317
878.834961,306
878.952087,301
879.069092,309
879.186157,317
879.303162,304
879.420227,309
879.537231,308
879.654236,311
879.77124,332
879.888306,320
880.005249,302
880.122314,305
880.239319,323
880.356323,320
880.473328,325
880.590271,310
880.707275,327
880.824341,321
880.941284,322
881.058228,326
881.175232,307
881.292236,320
881.40918,315
881.526123,313
881.643066,318
881.760071,321
881.877014,313
881.993958,308
882.11084,316
882.227783,314
882.344727,320
882.46167,305
882.578613,327
882.695618,308
882.812439,314
882.929382,326
883.046326,327
883.163208,312
883.280151,312
883.397034,315
883.513916,301
883.630798,322
883.747742,317
883.864563,318
883.981506,302
884.098389,322
884.21521,317
884.332153,325
884.448975,320
884.565796,319
884.682678,329
884.7995,298
884.916443,334
885.033264,309
885.150085,311
885.266968,321
885.383789,307
885.500671,318
885.617493,324
885.734314,312
885.851196,307
885.967896,309
886.084717,320
886.201599,313
886.318359,315
886.435181,321
886.552002,316
886.668762,323
886.785645,322
886.902344,321
887.019165,323
887.135925,313
887.252747,303
887.369446,330
887.486267,314
887.603027,314
887.719788,324
887.836548,312
887.953247,312
888.070068,315
888.186829,323
888.303528,313
888.420288,323
888.536987,321
888.653687,316
888.770447,318
888.887146,317
889.003967,310
889.120667,311
889.237305,322
889.354065,326
889.470703,297
889.587463,321
889.704163,315
889.820862,316
889.937561,315
890.054199,314
890.170837,315
890.287598,311
890.404236,310
890.520874,330
890.637634,313
890.754211,310
890.87085,321
890.987549,294
891.104187,331
891.220886,327
891.337463,330
891.454102,315
891.57074,310
891.687378,317
891.804077,301
891.920654,326
892.037231,325
892.15387,329
892.270447,315
892.387085,315
892.503723,312
892.6203,319
892.736877,309
892.853516,317
892.970032,318
893.08667,312
893.203186,315
893.319763,315
893.43634,328
893.552917,324
893.669556,317
893.786011,320
893.902588,305
894.019165,325
894.135681,319
894.252197,328
894.368835,313
894.485291,315
894.601868,302
894.718384,310
894.8349,318
894.951355,318
895.067932,323
895.184448,308
895.300964,317
895.417419,312
895.533936,317
895.650452,316
895.766907,316
895.883423,320
895.999878,326
896.116333,321
896.232849,313
896.349304,315
896.465759,313
896.582214,321
896.698669,304
896.815125,321
896.931641,306
897.048035,300
897.164551,324
897.280884,336
897.397339,315
897.513794,312
897.630249,311
897.746582,333
897.863098,321
897.979431,316
898.095886,308
898.212341,327
898.328674,328
898.445129,315
898.561462,313
898.677795,327
898.794312,317
898.910645,325
899.026978,310
899.143433,322
899.259766,320
899.37616,310
899.492493,316
899.608765,326
899.725159,325
899.841553,305
899.957947,313
900.07428,313
900.190552,325
900.306946,310
900.423157,326
900.53949,327
900.655884,321
900.772156,322
900.888489,318
901.004822,316
901.121033,312
901.237366,323
901.353699,318
901.46991,309
901.586304,306
901.702515,325
901.818787,320
901.93512,321
902.051331,332
902.167603,307
902.283875,308
902.400085,325
902.516418,321
902.632629,306
902.74884,317
902.865112,320
902.981384,314
903.097595,313
903.213867,322
903.330017,319
903.446289,314
903.5625,309
903.67865,307
903.794922,316
903.911072,325
904.027344,301
904.143494,324
904.259705,305
904.375916,319
904.492065,307
904.608215,327
904.724426,328
904.840576,317
904.956726,307
905.072876,303
905.189087,315
905.305176,312
905.421387,326
905.537537,309
905.653687,318
905.769775,316
905.885925,323
906.002014,322
906.118164,318
906.234314,324
906.350403,314
906.466492,298
906.582642,325
906.69873,318
906.814758,319
906.930908,307
907.046936,318
907.163086,329
907.279175,301
907.395264,327
907.511353,319
907.62738,327
907.743408,322
907.859497,307
907.975525,324
908.091553,320
908.207703,330
908.32373,323
908.439758,317
908.555786,324
908.671814,305
908.787842,322
908.90387,319
909.019775,318
909.135864,334
909.251892,318
909.367859,314
909.483826,317
909.599854,327
909.715881,322
909.831848,332
909.947815,317
910.063782,310
910.179749,316
910.295776,324
910.411743,318
910.527649,322
910.643616,322
910.759583,321
910.875488,313
910.991455,312
911.107361,315
911.223267,305
911.339294,331
911.4552,323
911.571106,315
911.687073,316
911.802979,330
911.918823,315
912.034729,324
912.150635,326
912.266602,320
912.382446,319
912.498352,312
912.614197,316
912.730103,320
912.846008,327
792.44574,319
792.56488,351
792.68396,406
792.80304,380
792.92218,329
793.041199,321
793.160339,322
793.279419,336
793.398499,316
793.517578,324
793.636658,327
793.755737,336
793.874817,343
793.993896,345
794.112976,334
794.232056,335
794.351074,335
794.470215,326
794.589233,337
794.708313,321
794.827393,332
794.946411,338
795.065552,345
795.18457,350
795.303589,331
795.422668,336
795.541687,336
795.660767,330
795.779846,328
795.898865,339
796.017883,329
796.136963,325
796.255981,337
796.375061,316
796.49408,342
796.613037,345
796.732117,336
796.851135,340
796.970154,326
797.089233,317
797.208191,324
797.327271,321
797.446228,337
797.565186,329
797.684265,352
797.803223,331
797.922241,326
798.04126,319
798.160278,326
798.279297,332
798.398315,331
798.517273,342
798.636292,328
798.75531,322
798.874268,331
798.993286,321
799.112244,316
799.231323,329
799.350281,321
799.469238,314
799.588257,335
799.707153,321
799.826111,327
799.945129,329
800.064087,319
800.183044,335
800.302063,335
800.421021,343
800.539978,326
800.658936,331
800.777893,334
800.896912,322
801.015747,314
801.134705,323
801.253723,334
801.37262,319
801.491638,323
801.610535,333
801.729492,340
801.84845,339
801.967407,308
802.086243,330
802.205261,329
802.324158,329
802.443115,329
802.562073,333
802.680969,343
802.799927,340
802.918762,337
803.037659,335
803.156677,328
803.275574,318
803.39447,341
803.513428,341
803.632263,326
803.751221,324
803.870117,339
803.989014,336
804.107971,332
804.226746,330
804.345642,329
804.4646,325
804.583496,335
804.702393,322
804.821228,327
804.940125,323
805.059021,328
805.177917,322
805.296814,341
805.415649,317
805.534546,326
805.653442,329
805.772278,339
805.891113,320
806.01001,338
806.128906,315
806.247742,321
806.366577,328
806.485413,333
806.604309,339
806.723145,335
806.84198,340
806.960876,324
807.079712,335
807.198486,328
807.317383,332
807.436218,334
807.554993,326
807.673889,337
807.792725,337
807.91156,333
808.030396,323
808.14917,340
808.268005,346
808.386841,338
808.505676,331
808.624451,328
808.743286,322
808.862122,335
808.980896,334
809.099731,333
809.218506,328
809.337341,332
809.456116,334
809.57489,319
809.693726,319
809.8125,337
809.931274,342
810.050049,321
810.168884,325
810.287659,330
810.406372,327
810.525269,339
810.643982,329
810.762756,346
810.881531,323
811.000305,330
811.11908,321
811.237854,318
811.356567,343
811.475403,327
811.594116,331
811.71283,339
811.831604,334
811.950378,328
812.069153,332
812.187927,317
812.30658,337
812.425415,314
812.544128,329
812.662781,330
812.781616,331
812.900269,326
813.019043,340
813.137756,327
813.256531,319
813.375244,340
813.493896,339
813.612671,341
813.731384,330
813.850037,319
813.96875,331
814.087524,332
814.206238,332
814.324951,340
814.443604,333
814.562256,325
814.68103,339
814.799683,328
814.918335,342
815.037109,342
815.155762,336
815.274475,328
815.393188,321
815.511841,330
815.630554,333
815.749146,331
815.867859,317
815.986572,321
816.105164,340
816.223877,324
816.342529,327
816.461182,341
816.579895,327
816.698486,325
816.817139,329
816.935791,315
817.054504,343
817.173096,339
817.291748,339
817.4104,322
817.529053,327
817.647644,316
817.766235,341
817.884949,321
818.00354,329
818.122192,319
818.240845,333
818.359436,315
818.478088,337
818.59668,315
818.715271,321
818.833923,328
818.952515,326
819.071106,315
819.189758,326
819.30835,322
819.426941,320
819.545532,315
819.664124,308
819.782715,315
819.901306,324
820.019897,334
820.138489,322
820.25708,322
820.375671,325
820.494202,319
820.612732,323
820.731384,317
820.849915,312
820.968506,325
821.087097,310
821.205627,317
821.324158,313
821.442749,315
821.561279,322
821.679871,318
821.798401,319
821.916931,330
822.035461,314
822.154053,330
822.272583,319
822.391174,313
822.509583,311
822.628174,328
822.746704,332
822.865234,330
822.983765,315
823.102295,320
823.220825,314
823.339294,324
823.457825,323
823.576355,326
823.694824,321
823.813354,319
823.931885,312
824.050354,320
824.168884,308
824.287354,309
824.405823,319
824.524353,333
824.642822,319
824.761353,315
824.879822,326
824.998291,315
825.116699,338
825.235291,323
825.353699,311
825.472168,313
825.590637,333
825.709106,311
825.827576,312
825.946045,325
826.064453,336
826.182983,312
826.301392,320
826.4198,307
826.53833,313
826.656738,321
826.775208,312
826.893677,310
827.012024,311
827.130493,320
827.248962,331
827.36731,317
827.485779,318
827.604248,317
827.722595,311
827.841064,317
827.959412,331
828.077942,318
828.196289,308
828.314636,315
828.433105,315
828.551514,318
828.669861,313
828.78833,310
828.906677,316
829.025085,321
829.143433,314
829.261841,312
829.38031,324
829.498657,313
829.617004,325
829.735413,326
829.85376,323
829.972107,310
830.090515,333
830.208862,318
830.327209,325
830.445557,308
830.563904,318
830.682312,317
830.800659,316
830.919006,319
831.037354,326
831.155701,313
831.274048,330
831.392395,322
831.51062,301
831.629028,312
831.747314,324
831.865662,305
831.984009,328
832.102356,318
832.220642,308
832.338928,317
832.457275,323
832.575623,316
832.693909,326
832.812134,329
832.930481,323
833.048828,315
833.167114,332
833.2854,323
833.403687,310
833.521973,311
833.640259,317
833.758545,309
833.876831,315
833.995056,311
834.113281,304
834.231628,317
834.349915,315
834.468201,314
834.586426,313
834.704651,315
834.822998,317
834.941162,308
835.059448,315
835.177673,310
835.295959,326
835.414246,300
835.53241,309
835.650635,310
835.768921,313
835.887146,323
836.005371,330
836.123596,317
836.241821,334
836.360046,313
836.478271,321
836.596497,303
836.714722,321
836.832886,314
836.95105,310
837.069336,317
837.1875,313
837.305725,315
837.423889,320
837.542053,314
837.660339,318
837.778503,314
837.896667,326
838.014832,309
838.132996,318
838.25116,310
838.369385,313
838.487488,319
838.605713,303
838.723877,327
838.84198,315
838.960205,317
839.078308,313
839.196472,313
839.314636,319
839.4328,324
839.550964,313
839.669067,323
839.787231,332
839.905396,312
840.023499,326
840.141602,312
840.259766,309
840.377869,309
840.495972,313
840.614136,330
840.732239,315
840.850342,321
840.968445,320
841.086548,302
841.204651,318
841.322754,309
841.440918,321
841.55896,315
841.677002,303
841.795166,303
841.913208,320
842.031311,324
842.149353,313
842.267456,310
842.385498,323
842.503601,306
842.621643,311
842.739746,315
842.857788,314
842.97583,320
843.093933,309
843.211975,308
843.330017,309
843.44812,325
843.566101,321
843.684204,315
843.802246,325
843.920227,314
844.038269,311
844.156311,325
844.274292,326
844.392395,315
844.510376,325
844.628357,305
844.74646,329
844.864441,313
844.982422,324
845.100403,310
845.218384,313
845.336426,333
845.454468,321
845.572449,312
845.69043,318
845.808411,329
845.926453,309
846.044373,307
846.162354,326
846.280396,319
846.398315,305
846.516296,315
846.634216,329
846.752197,315
846.870178,313
846.988098,319
847.106079,336
847.22406,312
847.34198,334
847.4599,309
847.577881,325
847.695801,326
847.813782,327
847.931641,316
848.049561,317
848.167603,323
848.285461,327
848.403381,313
848.521362,314
848.639221,323
848.75708,330
848.875,310
848.99292,325
849.110901,319
849.22876,322
849.34668,310
849.464539,308
849.582458,312
849.700317,314
849.818176,311
849.936096,326
850.053955,307
850.171875,306
850.289673,315
850.407593,326
850.525452,311
850.643311,305
850.761169,318
850.878967,317
850.996887,309
851.114746,324
851.232544,325
851.350403,304
851.468262,310
851.58606,322
851.703979,314
851.821777,308
851.939636,315
852.057434,332
852.175232,318
852.293091,318
852.410889,320
852.528687,323
852.646545,322
852.764343,314
852.88208,323
852.999939,319
853.117676,320
853.235535,326
853.353271,315
853.471069,312
853.588928,311
853.706604,323
853.824402,310
853.9422,324
854.059998,319
854.177734,310
854.295532,308
854.413269,307
854.531006,321
854.648804,323
854.766541,317
854.884277,302
855.002014,316
855.119751,316
855.237549,313
855.355225,313
855.473022,312
855.590698,313
855.708435,328
855.826172,331
855.943848,321
856.061646,302
856.179321,317
856.296997,329
856.414795,304
856.53241,314
856.650085,319
856.767822,316
856.885559,312
857.003174,314
857.120911,323
857.238586,301
857.356201,323
857.473938,317
857.591614,305
857.709351,321
857.826965,309
857.944641,315
858.062317,314
858.179993,311
858.297668,310
858.415283,309
858.532959,316
858.650574,327
858.768188,318
858.885803,305
859.003479,322
859.121094,333
859.23877,311
859.356384,305
859.473999,326
859.591675,319
859.709229,311
859.826843,307
859.944458,312
860.062012,322
860.179626,316
860.297302,326
860.414856,310
860.532471,329
860.650024,322
860.767639,308
860.885193,314
861.002808,310
861.120361,305
861.237976,321
861.35553,308
861.473022,321
861.590698,311
861.708191,314
861.825745,308
861.943298,306
862.060852,308
862.178406,325
862.295959,311
862.413513,317
862.531006,319
862.64856,323
862.766113,320
862.883667,322
863.00116,317
863.118713,299
863.236206,323
863.353699,325
863.471252,321
863.588745,329
863.706177,321
863.82373,325
863.941162,315
864.058716,333
864.176208,317
864.29364,320
864.411194,308
864.528687,311
864.646118,311
864.763611,316
864.881042,331
864.998535,318
865.116028,320
865.233459,318
865.350891,340
865.468384,322
865.585754,322
865.703308,323
865.820679,311
865.938171,315
866.055542,311
866.173035,312
866.290466,301
866.407837,301
866.52533,329
866.6427,313
866.760071,318
866.877563,314
866.994934,317
867.112305,315
867.229736,316
867.347107,316
867.464539,314
867.58197,305
867.699341,319
867.81665,332
867.934082,319
868.051453,304
868.168823,313
868.286194,313
868.403564,311
868.520935,322
868.638306,306
868.755676,312
868.872986,317
868.990295,311
869.107727,304
869.225037,333
869.342346,326
869.459717,322
869.577026,316
869.694336,316
869.811707,309
869.929016,322
870.046326,315
870.163635,319
870.280945,311
870.398254,319
870.515564,312
870.632812,309
870.750183,304
870.867432,310
870.984741,303
871.102051,320
871.219299,321
871.336609,326
871.453918,306
871.571106,317
871.688416,314
871.805664,319
871.922852,322
872.040222,313
872.157471,315
872.274719,310
872.391968,319
872.509155,323
872.626465,319
872.743652,305
872.860962,323
872.978149,324
873.095337,312
873.212646,312
873.329834,309
873.44696,329
873.564209,310
873.681396,304
873.798645,307
873.915894,321
874.03302,310
874.150208,327
874.267456,304
874.384583,332
874.501831,313
874.618958,317
874.736145,317
874.853333,323
874.970459,318
875.087646,315
875.204834,322
875.32196,309
875.439148,316
875.556274,338
875.673401,307
875.790527,315
875.907715,311
876.024841,316
876.141968,316
876.259094,317
876.376282,314
876.493347,321
876.610474,316
876.7276,311
876.844727,311
876.961853,322
877.078918,311
877.195984,317
877.313171,325
877.430237,317
877.547302,310
877.664368,308
877.781433,316
877.898499,313
878.015625,325
878.13269,309
878.249695,313
878.366821,313
878.483887,316
878.600952,326
878.717957,311
878.834961,307
878.952087,328
879.069092,317
879.186157,319
879.303162,328
879.420227,317
879.537231,314
879.654236,321
879.77124,314
879.888306,309
880.005249,307
880.122314,312
880.239319,320
880.356323,323
880.473328,318
880.590271,308
880.707275,317
880.824341,322
880.941284,317
881.058228,322
881.175232,320
881.292236,321
881.40918,318
881.526123,317
881.643066,316
881.760071,331
881.877014,331
881.993958,313
882.11084,323
882.227783,305
882.344727,313
882.46167,325
882.578613,324
882.695618,322
882.812439,312
882.929382,318
883.046326,307
883.163208,324
883.280151,320
883.397034,300
883.513916,316
883.630798,312
883.747742,317
883.864563,325
883.981506,315
884.098389,307
884.21521,312
884.332153,326
884.448975,314
884.565796,314
884.682678,320
884.7995,303
884.916443,320
885.033264,319
885.150085,305
885.266968,311
885.383789,307
885.500671,314
885.617493,319
885.734314,322
885.851196,322
885.967896,320
886.084717,317
886.201599,310
886.318359,309
886.435181,330
886.552002,311
886.668762,323
886.785645,318
886.902344,309
887.019165,321
887.135925,311
887.252747,321
887.369446,327
887.486267,321
887.603027,324
887.719788,316
887.836548,310
887.953247,318
888.070068,315
888.186829,320
888.303528,310
888.420288,321
888.536987,319
888.653687,322
888.770447,327
888.887146,314
889.003967,322
889.120667,329
889.237305,314
889.354065,320
889.470703,310
889.587463,306
889.704163,316
889.820862,316
889.937561,319
890.054199,326
890.170837,317
890.287598,309
890.404236,324
890.520874,307
890.637634,327
890.754211,314
890.87085,323
890.987549,326
891.104187,309
891.220886,300
891.337463,308
891.454102,311
891.57074,317
891.687378,327
891.804077,310
891.920654,318
892.037231,319
892.15387,326
892.270447,314
892.387085,335
892.503723,310
892.6203,307
892.736877,306
892.853516,310
892.970032,306
893.08667,323
893.203186,314
893.319763,320
893.43634,314
893.552917,314
893.669556,328
893.786011,315
893.902588,310
894.019165,319
894.135681,305
894.252197,316
894.368835,313
894.485291,326
894.601868,326
894.718384,319
894.8349,315
894.951355,324
895.067932,322
895.184448,304
895.300964,320
895.417419,322
895.533936,324
895.650452,310
895.766907,319
895.883423,320
895.999878,314
896.116333,315
896.232849,318
896.349304,312
896.465759,319
896.582214,320
896.698669,309
896.815125,315
896.931641,323
897.048035,317
897.164551,321
897.280884,317
897.397339,307
897.513794,308
897.630249,300
897.746582,318
897.863098,329
897.979431,319
898.095886,310
898.212341,331
898.328674,323
898.445129,323
898.561462,314
898.677795,312
898.794312,306
898.910645,332
899.026978,315
899.143433,312
899.259766,327
899.37616,329
899.492493,317
899.608765,327
899.725159,313
899.841553,322
899.957947,325
900.07428,317
900.190552,323
900.306946,322
900.423157,312
900.53949,324
900.655884,318
900.772156,308
900.888489,312
901.004822,330
901.121033,317
901.237366,326
901.353699,316
901.46991,331
901.586304,311
901.702515,323
901.818787,325
901.93512,310
902.051331,312
902.167603,325
902.283875,318
902.400085,320
902.516418,320
902.632629,320
902.74884,310
902.865112,322
902.981384,314
903.097595,313
903.213867,321
903.330017,320
903.446289,303
903.5625,325
903.67865,315
903.794922,325
903.911072,312
904.027344,318
904.143494,315
904.259705,321
904.375916,310
904.492065,315
904.608215,315
904.724426,324
904.840576,305
904.956726,321
905.072876,324
905.189087,317
905.305176,322
905.421387,314
905.537537,310
905.653687,323
905.769775,322
905.885925,317
906.002014,310
906.118164,319
906.234314,310
906.350403,319
906.466492,328
906.582642,325
906.69873,323
906.814758,324
906.930908,311
907.046936,326
907.163086,322
907.279175,327
907.395264,315
907.511353,329
907.62738,314
907.743408,317
907.859497,317
907.975525,323
908.091553,327
908.207703,316
908.32373,320
908.439758,330
908.555786,315
908.671814,318
908.787842,329
908.90387,318
909.019775,309
909.135864,319
909.251892,316
909.367859,322
909.483826,310
909.599854,310
909.715881,312
909.831848,324
909.947815,321
910.063782,314
910.179749,305
910.295776,323
910.411743,316
910.527649,321
910.643616,322
910.759583,304
910.875488,317
910.991455,330
911.107361,318
911.223267,320
911.339294,306
911.4552,327
911.571106,299
911.687073,324
911.802979,315
911.918823,332
912.034729,317
912.150635,314
912.266602,318
912.382446,314
912.498352,319
912.614197,317
912.730103,324
912.846008,326
792.44574,313
792.56488,347
792.68396,398
792.80304,387
792.92218,341
793.041199,321
793.160339,322
793.279419,354
793.398499,333
793.517578,315
793.636658,313
793.755737,326
793.874817,353
793.993896,341
794.112976,336
794.232056,310
794.351074,337
794.470215,333
794.589233,334
794.708313,331
794.827393,327
794.946411,345
795.065552,350
795.18457,338
795.303589,347
795.422668,339
795.541687,337
795.660767,333
795.779846,338
795.898865,332
796.017883,325
796.136963,333
796.255981,325
796.375061,335
796.49408,341
796.613037,334
796.732117,336
796.851135,332
796.970154,332
797.089233,327
797.208191,330
797.327271,314
797.446228,325
797.565186,326
797.684265,330
797.803223,336
797.922241,334
798.04126,336
798.160278,347
798.279297,327
798.398315,326
798.517273,318
798.636292,319
798.75531,325
798.874268,336
798.993286,332
799.112244,334
799.231323,338
799.350281,343
799.469238,316
799.588257,331
799.707153,342
799.826111,336
799.945129,336
800.064087,338
800.183044,340
800.302063,329
800.421021,339
800.539978,338
800.658936,327
800.777893,340
800.896912,321
801.015747,330
801.134705,333
801.253723,316
801.37262,323
801.491638,316
801.610535,326
801.729492,346
801.84845,328
801.967407,325
802.086243,321
802.205261,314
802.324158,327
802.443115,325
802.562073,346
802.680969,323
802.799927,325
802.918762,342
803.037659,325
803.156677,332
803.275574,322
803.39447,331
803.513428,337
803.632263,335
803.751221,322
803.870117,325
803.989014,320
804.107971,332
804.226746,326
804.345642,344
804.4646,330
804.583496,328
804.702393,327
804.821228,339
804.940125,323
805.059021,320
805.177917,330
805.296814,330
805.415649,328
805.534546,329
805.653442,316
805.772278,323
805.891113,326
806.01001,331
806.128906,335
806.247742,331
806.366577,321
806.485413,337
806.604309,328
806.723145,338
806.84198,314
806.960876,343
807.079712,330
807.198486,344
807.317383,329
807.436218,338
807.554993,333
807.673889,336
807.792725,341
807.91156,332
808.030396,336
808.14917,334
808.268005,334
808.386841,339
808.505676,327
808.624451,321
808.743286,322
808.862122,338
808.980896,326
809.099731,339
809.218506,336
809.337341,323
809.456116,352
809.57489,335
809.693726,327
809.8125,337
809.931274,333
810.050049,338
810.168884,326
810.287659,335
810.406372,325
810.525269,322
810.643982,323
810.762756,335
810.881531,329
811.000305,329
811.11908,332
811.237854,338
811.356567,333
811.475403,363
811.594116,330
811.71283,346
811.831604,313
811.950378,351
812.069153,332
812.187927,325
812.30658,328
812.425415,344
812.544128,322
812.662781,328
812.781616,350
812.900269,329
813.019043,320
813.137756,341
813.256531,342
813.375244,330
813.493896,332
813.612671,331
813.731384,325
813.850037,342
813.96875,341
814.087524,333
814.206238,327
814.324951,338
814.443604,332
814.562256,331
814.68103,331
814.799683,330
814.918335,325
815.037109,321
815.155762,327
815.274475,342
815.393188,340
815.511841,335
815.630554,334
815.749146,322
815.867859,332
815.986572,322
816.105164,328
816.223877,341
816.342529,315
816.461182,341
816.579895,320
816.698486,335
816.817139,341
816.935791,321
817.054504,331
817.173096,332
817.291748,344
817.4104,334
817.529053,332
817.647644,330
817.766235,312
817.884949,324
818.00354,317
818.122192,326
818.240845,321
818.359436,320
818.478088,335
818.59668,323
818.715271,319
818.833923,331
818.952515,328
819.071106,341
819.189758,314
819.30835,323
819.426941,316
819.545532,307
819.664124,314
819.782715,329
819.901306,325
820.019897,312
820.138489,324
820.25708,325
820.375671,323
820.494202,320
820.612732,317
820.731384,316
820.849915,317
820.968506,320
821.087097,318
821.205627,332
821.324158,321
821.442749,327
821.561279,322
821.679871,318
821.798401,319
821.916931,323
822.035461,302
822.154053,327
822.272583,325
822.391174,315
822.509583,322
822.628174,315
822.746704,305
822.865234,314
822.983765,321
823.102295,312
823.220825,308
823.339294,330
823.457825,314
823.576355,319
823.694824,314
823.813354,314
823.931885,320
824.050354,325
824.168884,320
824.287354,328
824.405823,318
824.524353,326
824.642822,302
824.761353,317
824.879822,317
824.998291,326
825.116699,328
825.235291,328
825.353699,314
825.472168,321
825.590637,317
825.709106,333
825.827576,320
825.946045,319
826.064453,324
826.182983,317
826.301392,318
826.4198,318
826.53833,317
826.656738,326
826.775208,315
826.893677,321
827.012024,325
827.130493,317
827.248962,306
827.36731,324
827.485779,315
827.604248,324
827.722595,327
827.841064,306
827.959412,332
828.077942,319
828.196289,315
828.314636,316
828.433105,326
828.551514,329
828.669861,323
828.78833,317
828.906677,321
829.025085,324
829.143433,334
829.261841,329
829.38031,315
829.498657,322
829.617004,317
829.735413,316
829.85376,310
829.972107,318
830.090515,315
830.208862,308
830.327209,310
830.445557,321
830.563904,319
830.682312,320
830.800659,335
830.919006,339
831.037354,318
831.155701,314
831.274048,315
831.392395,319
831.51062,319
831.629028,309
831.747314,315
831.865662,321
831.984009,310
832.102356,303
832.220642,337
832.338928,327
832.457275,315
832.575623,318
832.693909,319
832.812134,314
832.930481,318
833.048828,319
833.167114,319
833.2854,315
833.403687,325
833.521973,313
833.640259,312
833.758545,316
833.876831,314
833.995056,327
834.113281,313
834.231628,313
834.349915,321
834.468201,327
834.586426,312
834.704651,321
834.822998,320
834.941162,310
835.059448,310
835.177673,320
835.295959,312
835.414246,324
835.53241,318
835.650635,333
835.768921,325
835.887146,330
836.005371,314
836.123596,320
836.241821,314
836.360046,328
836.478271,312
836.596497,325
836.714722,308
836.832886,308
836.95105,326
837.069336,309
837.1875,318
837.305725,327
837.423889,314
837.542053,316
837.660339,319
837.778503,310
837.896667,328
838.014832,332
838.132996,305
838.25116,322
838.369385,315
838.487488,318
838.605713,322
838.723877,332
838.84198,319
838.960205,331
839.078308,311
839.196472,313
839.314636,311
839.4328,313
839.550964,312
839.669067,319
839.787231,316
839.905396,314
840.023499,310
840.141602,316
840.259766,319
840.377869,322
840.495972,301
840.614136,316
840.732239,328
840.850342,310
840.968445,318
841.086548,316
841.204651,309
841.322754,334
841.440918,322
841.55896,314
841.677002,325
841.795166,315
841.913208,313
842.031311,324
842.149353,305
842.267456,325
842.385498,313
842.503601,318
842.621643,305
842.739746,318
842.857788,306
842.97583,324
843.093933,320
843.211975,316
843.330017,326
843.44812,321
843.566101,311
843.684204,324
843.802246,307
843.920227,332
844.038269,318
844.156311,306
844.274292,321
844.392395,317
844.510376,326
844.628357,324
844.74646,308
844.864441,321
844.982422,328
845.100403,321
845.218384,308
845.336426,313
845.454468,313
845.572449,323
845.69043,313
845.808411,327
845.926453,327
846.044373,317
846.162354,316
846.280396,328
846.398315,323
846.516296,312
846.634216,328
846.752197,319
846.870178,314
846.988098,313
847.106079,316
847.22406,316
847.34198,312
847.4599,328
847.577881,321
847.695801,322
847.813782,305
847.931641,319
848.049561,316
848.167603,327
848.285461,313
848.403381,325
848.521362,308
848.639221,316
848.75708,316
848.875,328
848.99292,321
849.110901,307
849.22876,312
849.34668,319
849.464539,313
849.582458,311
849.700317,308
849.818176,315
849.936096,313
850.053955,311
850.171875,314
850.289673,334
850.407593,316
850.525452,320
850.643311,315
850.761169,325
850.878967,323
850.996887,313
851.114746,319
851.232544,314
851.350403,302
851.468262,312
851.58606,317
851.703979,326
851.821777,317
851.939636,313
852.057434,308
852.175232,315
852.293091,320
852.410889,313
852.528687,312
852.646545,319
852.764343,315
852.88208,314
852.999939,311
853.117676,323
853.235535,317
853.353271,318
853.471069,308
853.588928,319
853.706604,322
853.824402,324
853.9422,309
854.059998,309
854.177734,322
854.295532,324
854.413269,308
854.531006,307
854.648804,304
854.766541,304
854.884277,320
855.002014,323
855.119751,318
855.237549,322
855.355225,324
855.473022,321
855.590698,323
855.708435,314
855.826172,325
855.943848,326
856.061646,308
856.179321,327
856.296997,319
856.414795,324
856.53241,319
856.650085,325
856.767822,313
856.885559,316
857.003174,320
857.120911,318
857.238586,321
857.356201,313
857.473938,312
857.591614,321
857.709351,310
857.826965,333
857.944641,316
858.062317,328
858.179993,316
858.297668,322
858.415283,307
858.532959,319
858.650574,319
858.768188,332
858.885803,303
859.003479,321
859.121094,321
859.23877,325
859.356384,299
859.473999,305
859.591675,313
859.709229,325
859.826843,327
859.944458,320
860.062012,309
860.179626,327
860.297302,310
860.414856,327
860.532471,316
860.650024,305
860.767639,311
860.885193,320
861.002808,313
861.120361,309
861.237976,308
861.35553,315
861.473022,308
861.590698,326
861.708191,325
861.825745,316
861.943298,325
862.060852,324
862.178406,318
862.295959,318
862.413513,319
862.531006,334
862.64856,312
862.766113,315
862.883667,306
863.00116,324
863.118713,306
863.236206,312
863.353699,317
863.471252,310
863.588745,320
863.706177,321
863.82373,337
863.941162,319
864.058716,303
864.176208,313
864.29364,318
864.411194,312
864.528687,315
864.646118,332
864.763611,308
864.881042,315
864.998535,317
865.116028,325
865.233459,314
865.350891,317
865.468384,322
865.585754,305
865.703308,328
865.820679,314
865.938171,320
866.055542,320
866.173035,307
866.290466,312
866.407837,317
866.52533,315
866.6427,322
866.760071,315
866.877563,329
866.994934,325
867.112305,312
867.229736,309
867.347107,310
867.464539,327
867.58197,317
867.699341,324
867.81665,319
867.934082,306
868.051453,314
868.168823,318
868.286194,302
868.403564,314
868.520935,318
868.638306,313
868.755676,306
868.872986,324
868.990295,310
869.107727,315
869.225037,317
869.342346,321
869.459717,322
869.577026,318
869.694336,318
869.811707,303
869.929016,319
870.046326,308
870.163635,321
870.280945,311
870.398254,318
870.515564,330
870.632812,313
870.750183,316
870.867432,312
870.984741,320
871.102051,311
871.219299,321
871.336609,320
871.453918,314
871.571106,313
871.688416,324
871.805664,320
871.922852,323
872.040222,312
872.157471,328
872.274719,312
872.391968,326
872.509155,326
872.626465,301
872.743652,322
872.860962,315
872.978149,316
873.095337,330
873.212646,306
873.329834,329
873.44696,302
873.564209,321
873.681396,320
873.798645,314
873.915894,315
874.03302,316
874.150208,305
874.267456,325
874.384583,296
874.501831,320
874.618958,317
874.736145,322
874.853333,329
874.970459,327
875.087646,311
875.204834,312
875.32196,315
875.439148,321
875.556274,309
875.673401,319
875.790527,330
875.907715,321
876.024841,328
876.141968,323
876.259094,324
876.376282,316
876.493347,315
876.610474,313
876.7276,321
876.844727,321
876.961853,323
877.078918,336
877.195984,302
877.313171,312
877.430237,313
877.547302,321
877.664368,304
877.781433,333
877.898499,313
878.015625,314
878.13269,310
878.249695,315
878.366821,307
878.483887,327
878.600952,313
878.717957,329
878.834961,309
878.952087,324
879.069092,315
879.186157,325
879.303162,320
879.420227,326
879.537231,314
879.654236,311
879.77124,327
879.888306,316
880.005249,302
880.122314,314
880.239319,316
880.356323,315
880.473328,321
880.590271,316
880.707275,321
880.824341,319
880.941284,313
881.058228,319
881.175232,315
881.292236,318
881.40918,326
881.526123,313
881.643066,317
881.760071,319
881.877014,319
881.993958,316
882.11084,327
882.227783,328
882.344727,313
882.46167,320
882.578613,317
882.695618,330
882.812439,308
882.929382,318
883.046326,308
883.163208,333
883.280151,315
883.397034,312
883.513916,321
883.630798,323
883.747742,304
883.864563,303
883.981506,313
884.098389,314
884.21521,321
884.332153,328
884.448975,327
884.565796,309
884.682678,308
884.7995,317
884.916443,310
885.033264,330
885.150085,310
885.266968,331
885.383789,334
885.500671,331
885.617493,326
885.734314,334
885.851196,313
885.967896,318
886.084717,306
886.201599,329
886.318359,317
886.435181,319
886.552002,322
886.668762,310
886.785645,321
886.902344,321
887.019165,305
887.135925,326
887.252747,307
887.369446,325
887.486267,318
887.603027,322
887.719788,318
887.836548,324
887.953247,313
888.070068,325
888.186829,319
888.303528,308
888.420288,327
888.536987,325
888.653687,317
888.770447,319
888.887146,323
889.003967,317
889.120667,318
889.237305,320
889.354065,314
889.470703,331
889.587463,330
889.704163,320
889.820862,315
889.937561,317
890.054199,323
890.170837,318
890.287598,327
890.404236,332
890.520874,310
890.637634,317
890.754211,312
890.87085,329
890.987549,321
891.104187,316
891.220886,304
891.337463,320
891.454102,332
891.57074,328
891.687378,315
891.804077,314
891.920654,303
892.037231,325
892.15387,315
892.270447,327
892.387085,322
892.503723,326
892.6203,320
892.736877,312
892.853516,316
892.970032,312
893.08667,311
893.203186,333
893.319763,310
893.43634,303
893.552917,312
893.669556,314
893.786011,313
893.902588,320
894.019165,306
894.135681,309
894.252197,313
894.368835,336
894.485291,309
894.601868,312
894.718384,307
894.8349,325
894.951355,321
895.067932,317
895.184448,329
895.300964,311
895.417419,310
895.533936,311
895.650452,318
895.766907,328
895.883423,320
895.999878,319
896.116333,328
896.232849,321
896.349304,310
896.465759,318
896.582214,309
896.698669,324
896.815125,321
896.931641,321
897.048035,324
897.164551,315
897.280884,312
897.397339,321
897.513794,311
897.630249,315
897.746582,312
897.863098,317
897.979431,306
898.095886,326
898.212341,311
898.328674,321
898.445129,319
898.561462,312
898.677795,315
898.794312,322
898.910645,311
899.026978,314
899.143433,308
899.259766,313
899.37616,308
899.492493,310
899.608765,315
899.725159,317
899.841553,308
899.957947,321
900.07428,320
900.190552,322
900.306946,312
900.423157,323
900.53949,324
900.655884,329
900.772156,324
900.888489,325
901.004822,320
901.121033,322
901.237366,317
901.353699,333
901.46991,308
901.586304,319
901.702515,309
901.818787,318
901.93512,318
902.051331,330
902.167603,322
902.283875,328
902.400085,315
902.516418,326
902.632629,315
902.74884,326
902.865112,318
902.981384,317
903.097595,312
903.213867,324
903.330017,312
903.446289,319
903.5625,329
903.67865,333
903.794922,324
903.911072,333
904.027344,319
904.143494,336
904.259705,321
904.375916,326
904.492065,316
904.608215,323
904.724426,314
904.840576,315
904.956726,316
905.072876,318
905.189087,311
905.305176,326
905.421387,309
905.537537,321
905.653687,317
905.769775,328
905.885925,302
906.002014,317
906.118164,314
906.234314,305
906.350403,305
906.466492,304
906.582642,330
906.69873,329
906.814758,316
906.930908,318
907.046936,305
907.163086,316
907.279175,324
907.395264,319
907.511353,335
907.62738,320
907.743408,324
907.859497,309
907.975525,312
908.091553,321
908.207703,305
908.32373,323
908.439758,320
908.555786,312
908.671814,310
908.787842,331
908.90387,303
909.019775,330
909.135864,311
909.251892,318
909.367859,305
909.483826,326
909.599854,312
909.715881,330
909.831848,312
909.947815,307
910.063782,308
910.179749,326
910.295776,309
910.411743,316
910.527649,310
910.643616,313
910.759583,310
910.875488,310
910.991455,326
911.107361,326
911.223267,313
911.339294,326
911.4552,305
911.571106,317
911.687073,321
911.802979,318
911.918823,320
912.034729,309
912.150635,313
912.266602,321
912.382446,317
912.498352,315
912.614197,314
912.730103,326
912.846008,316
