792.44574,346
792.56488,352
792.68396,403
792.80304,394
792.92218,351
793.041199,344
793.160339,316
793.279419,347
793.398499,337
793.517578,319
793.636658,322
793.755737,335
793.874817,348
793.993896,362
794.112976,350
794.232056,331
794.351074,325
794.470215,345
794.589233,337
794.708313,349
794.827393,343
794.946411,327
795.065552,350
795.18457,343
795.303589,338
795.422668,326
795.541687,331
795.660767,330
795.779846,331
795.898865,340
796.017883,335
796.136963,341
796.255981,342
796.375061,323
796.49408,340
796.613037,338
796.732117,339
796.851135,327
796.970154,339
797.089233,335
797.208191,341
797.327271,322
797.446228,325
797.565186,333
797.684265,331
797.803223,326
797.922241,335
798.04126,327
798.160278,326
798.279297,322
798.398315,328
798.517273,321
798.636292,341
798.75531,318
798.874268,335
798.993286,330
799.112244,323
799.231323,325
799.350281,341
799.469238,336
799.588257,337
799.707153,324
799.826111,338
799.945129,332
800.064087,326
800.183044,349
800.302063,327
800.421021,322
800.539978,336
800.658936,324
800.777893,352
800.896912,323
801.015747,343
801.134705,321
801.253723,340
801.37262,343
801.491638,323
801.610535,332
801.729492,324
801.84845,333
801.967407,316
802.086243,318
802.205261,328
802.324158,329
802.443115,326
802.562073,311
802.680969,328
802.799927,335
802.918762,320
803.037659,330
803.156677,320
803.275574,315
803.39447,323
803.513428,320
803.632263,325
803.751221,331
803.870117,329
803.989014,325
804.107971,329
804.226746,326
804.345642,325
804.4646,331
804.583496,325
804.702393,324
804.821228,322
804.940125,325
805.059021,333
805.177917,317
805.296814,323
805.415649,329
805.534546,324
805.653442,318
805.772278,332
805.891113,319
806.01001,334
806.128906,332
806.247742,329
806.366577,332
806.485413,322
806.604309,325
806.723145,324
806.84198,329
806.960876,340
807.079712,310
807.198486,328
807.317383,317
807.436218,316
807.554993,329
807.673889,323
807.792725,340
807.91156,322
808.030396,310
808.14917,328
808.268005,330
808.386841,317
808.505676,320
808.624451,316
808.743286,327
808.862122,333
808.980896,341
809.099731,328
809.218506,329
809.337341,323
809.456116,318
809.57489,335
809.693726,313
809.8125,324
809.931274,324
810.050049,334
810.168884,339
810.287659,328
810.406372,331
810.525269,329
810.643982,332
810.762756,322
810.881531,333
811.000305,331
811.11908,335
811.237854,328
811.356567,313
811.475403,330
811.594116,314
811.71283,327
811.831604,331
811.950378,330
812.069153,336
812.187927,328
812.30658,327
812.425415,344
812.544128,328
812.662781,334
812.781616,310
812.900269,320
813.019043,314
813.137756,322
813.256531,333
813.375244,336
813.493896,322
813.612671,338
813.731384,319
813.850037,317
813.96875,322
814.087524,334
814.206238,330
814.324951,327
814.443604,317
814.562256,322
814.68103,325
814.799683,331
814.918335,324
815.037109,334
815.155762,327
815.274475,339
815.393188,318
815.511841,326
815.630554,330
815.749146,325
815.867859,330
815.986572,319
816.105164,322
816.223877,325
816.342529,330
816.461182,320
816.579895,329
816.698486,323
816.817139,321
816.935791,334
817.054504,321
817.173096,328
817.291748,323
817.4104,335
817.529053,315
817.647644,330
817.766235,330
817.884949,325
818.00354,329
818.122192,320
818.240845,308
818.359436,323
818.478088,323
818.59668,323
818.715271,316
818.833923,331
818.952515,323
819.071106,324
819.189758,315
819.30835,330
819.426941,332
819.545532,330
819.664124,323
819.782715,314
819.901306,325
820.019897,332
820.138489,315
820.25708,326
820.375671,306
820.494202,325
820.612732,328
820.731384,320
820.849915,321
820.968506,328
821.087097,323
821.205627,320
821.324158,321
821.442749,321
821.561279,319
821.679871,324
821.798401,301
821.916931,314
822.035461,313
822.154053,322
822.272583,318
822.391174,333
822.509583,313
822.628174,336
822.746704,325
822.865234,337
822.983765,304
823.102295,314
823.220825,310
823.339294,322
823.457825,311
823.576355,333
823.694824,313
823.813354,321
823.931885,306
824.050354,325
824.168884,315
824.287354,310
824.405823,317
824.524353,330
824.642822,324
824.761353,311
824.879822,323
824.998291,325
825.116699,322
825.235291,325
825.353699,319
825.472168,317
825.590637,323
825.709106,328
825.827576,301
825.946045,332
826.064453,323
826.182983,326
826.301392,318
826.4198,307
826.53833,322
826.656738,327
826.775208,315
826.893677,311
827.012024,317
827.130493,325
827.248962,295
827.36731,321
827.485779,302
827.604248,328
827.722595,317
827.841064,325
827.959412,319
828.077942,333
828.196289,325
828.314636,321
828.433105,310
828.551514,335
828.669861,319
828.78833,311
828.906677,319
829.025085,324
829.143433,308
829.261841,308
829.38031,312
829.498657,319
829.617004,308
829.735413,339
829.85376,298
829.972107,330
830.090515,320
830.208862,332
830.327209,316
830.445557,312
830.563904,320
830.682312,319
830.800659,316
830.919006,329
831.037354,310
831.155701,332
831.274048,323
831.392395,315
831.51062,330
831.629028,327
831.747314,319
831.865662,322
831.984009,327
832.102356,314
832.220642,332
832.338928,314
832.457275,313
832.575623,311
832.693909,313
832.812134,321
832.930481,318
833.048828,317
833.167114,316
833.2854,313
833.403687,319
833.521973,320
833.640259,297
833.758545,321
833.876831,329
833.995056,324
834.113281,316
834.231628,320
834.349915,315
834.468201,323
834.586426,318
834.704651,307
834.822998,329
834.941162,320
835.059448,316
835.177673,318
835.295959,300
835.414246,316
835.53241,305
835.650635,332
835.768921,310
835.887146,325
836.005371,315
836.123596,333
836.241821,316
836.360046,320
836.478271,313
836.596497,323
836.714722,310
836.832886,318
836.95105,315
837.069336,328
837.1875,310
837.305725,329
837.423889,319
837.542053,326
837.660339,314
837.778503,330
837.896667,316
838.014832,319
838.132996,322
838.25116,321
838.369385,323
838.487488,325
838.605713,327
838.723877,321
838.84198,301
838.960205,315
839.078308,310
839.196472,321
839.314636,316
839.4328,335
839.550964,316
839.669067,323
839.787231,310
839.905396,318
840.023499,318
840.141602,320
840.259766,302
840.377869,320
840.495972,329
840.614136,316
840.732239,297
840.850342,324
840.968445,318
841.086548,310
841.204651,319
841.322754,325
841.440918,309
841.55896,325
841.677002,309
841.795166,318
841.913208,308
842.031311,323
842.149353,304
842.267456,329
842.385498,314
842.503601,318
842.621643,305
842.739746,313
842.857788,313
842.97583,327
843.093933,328
843.211975,336
843.330017,313
843.44812,320
843.566101,328
843.684204,328
843.802246,312
843.920227,325
844.038269,322
844.156311,311
844.274292,318
844.392395,323
844.510376,313
844.628357,325
844.74646,315
844.864441,334
844.982422,303
845.100403,330
845.218384,332
845.336426,326
845.454468,315
845.572449,324
845.69043,329
845.808411,306
845.926453,317
846.044373,329
846.162354,295
846.280396,326
846.398315,326
846.516296,327
846.634216,318
846.752197,324
846.870178,318
846.988098,313
847.106079,329
847.22406,327
847.34198,322
847.4599,326
847.577881,320
847.695801,327
847.813782,321
847.931641,310
848.049561,317
848.167603,325
848.285461,311
848.403381,318
848.521362,321
848.639221,330
848.75708,322
848.875,318
848.99292,328
849.110901,341
849.22876,329
849.34668,315
849.464539,311
849.582458,325
849.700317,324
849.818176,340
849.936096,331
850.053955,335
850.171875,312
850.289673,333
850.407593,329
850.525452,318
850.643311,300
850.761169,322
850.878967,325
850.996887,325
851.114746,330
851.232544,334
851.350403,313
851.468262,318
851.58606,319
851.703979,329
851.821777,306
851.939636,320
852.057434,314
852.175232,333
852.293091,315
852.410889,320
852.528687,308
852.646545,329
852.764343,318
852.88208,322
852.999939,316
853.117676,324
853.235535,308
853.353271,319
853.471069,310
853.588928,312
853.706604,312
853.824402,307
853.9422,314
854.059998,312
854.177734,320
854.295532,327
854.413269,320
854.531006,326
854.648804,324
854.766541,325
854.884277,320
855.002014,312
855.119751,320
855.237549,326
855.355225,311
855.473022,313
855.590698,319
855.708435,331
855.826172,308
855.943848,310
856.061646,314
856.179321,317
856.296997,312
856.414795,309
856.53241,323
856.650085,327
856.767822,316
856.885559,332
857.003174,323
857.120911,318
857.238586,303
857.356201,314
857.473938,316
857.591614,308
857.709351,327
857.826965,320
857.944641,317
858.062317,325
858.179993,312
858.297668,318
858.415283,318
858.532959,327
858.650574,318
858.768188,320
858.885803,314
859.003479,339
859.121094,319
859.23877,313
859.356384,323
859.473999,330
859.591675,315
859.709229,313
859.826843,321
859.944458,325
860.062012,314
860.179626,324
860.297302,322
860.414856,322
860.532471,314
860.650024,327
860.767639,322
860.885193,326
861.002808,315
861.120361,313
861.237976,318
861.35553,323
861.473022,307
861.590698,310
861.708191,315
861.825745,327
861.943298,325
862.060852,322
862.178406,324
862.295959,329
862.413513,326
862.531006,334
862.64856,320
862.766113,319
862.883667,315
863.00116,326
863.118713,322
863.236206,306
863.353699,312
863.471252,309
863.588745,311
863.706177,317
863.82373,315
863.941162,326
864.058716,325
864.176208,319
864.29364,324
864.411194,313
864.528687,313
864.646118,309
864.763611,316
864.881042,321
864.998535,311
865.116028,322
865.233459,314
865.350891,320
865.468384,317
865.585754,329
865.703308,318
865.820679,324
865.938171,318
866.055542,320
866.173035,306
866.290466,326
866.407837,317
866.52533,321
866.6427,331
866.760071,323
866.877563,318
866.994934,322
867.112305,314
867.229736,319
867.347107,302
867.464539,322
867.58197,303
867.699341,322
867.81665,312
867.934082,329
868.051453,312
868.168823,318
868.286194,315
868.403564,328
868.520935,311
868.638306,318
868.755676,314
868.872986,330
868.990295,325
869.107727,312
869.225037,315
869.342346,322
869.459717,315
869.577026,316
869.694336,314
869.811707,329
869.929016,318
870.046326,321
870.163635,318
870.280945,312
870.398254,322
870.515564,329
870.632812,308
870.750183,319
870.867432,327
870.984741,326
871.102051,305
871.219299,315
871.336609,327
871.453918,310
871.571106,314
871.688416,319
871.805664,309
871.922852,321
872.040222,303
872.157471,327
872.274719,331
872.391968,329
872.509155,316
872.626465,319
872.743652,317
872.860962,318
872.978149,312
873.095337,324
873.212646,315
873.329834,335
873.44696,318
873.564209,320
873.681396,311
873.798645,313
873.915894,325
874.03302,325
874.150208,314
874.267456,332
874.384583,305
874.501831,336
874.618958,319
874.736145,331
874.853333,328
874.970459,307
875.087646,319
875.204834,320
875.32196,320
875.439148,326
875.556274,327
875.673401,322
875.790527,320
875.907715,326
876.024841,311
876.141968,325
876.259094,325
876.376282,326
876.493347,321
876.610474,339
876.7276,318
876.844727,330
876.961853,326
877.078918,318
877.195984,320
877.313171,323
877.430237,316
877.547302,318
877.664368,319
877.781433,313
877.898499,309
878.015625,332
878.13269,322
878.249695,316
878.366821,314
878.483887,329
878.600952,314
878.717957,335
878.834961,314
878.952087,333
879.069092,312
879.186157,323
879.303162,321
879.420227,309
879.537231,313
879.654236,310
879.77124,317
879.888306,309
880.005249,317
880.122314,316
880.239319,317
880.356323,318
880.473328,305
880.590271,327
880.707275,313
880.824341,316
880.941284,308
881.058228,331
881.175232,321
881.292236,331
881.40918,318
881.526123,327
881.643066,316
881.760071,316
881.877014,321
881.993958,320
882.11084,314
882.227783,319
882.344727,313
882.46167,320
882.578613,306
882.695618,330
882.812439,325
882.929382,327
883.046326,336
883.163208,316
883.280151,313
883.397034,339
883.513916,318
883.630798,313
883.747742,309
883.864563,322
883.981506,321
884.098389,335
884.21521,310
884.332153,310
884.448975,312
884.565796,319
884.682678,315
884.7995,323
884.916443,320
885.033264,337
885.150085,319
885.266968,335
885.383789,327
885.500671,308
885.617493,310
885.734314,337
885.851196,314
885.967896,317
886.084717,311
886.201599,321
886.318359,317
886.435181,313
886.552002,333
886.668762,306
886.785645,309
886.902344,321
887.019165,329
887.135925,335
887.252747,320
887.369446,331
887.486267,318
887.603027,318
887.719788,326
887.836548,318
887.953247,315
888.070068,317
888.186829,326
888.303528,321
888.420288,323
888.536987,326
888.653687,313
888.770447,332
888.887146,311
889.003967,321
889.120667,323
889.237305,328
889.354065,311
889.470703,316
889.587463,316
889.704163,330
889.820862,307
889.937561,317
890.054199,313
890.170837,323
890.287598,316
890.404236,329
890.520874,318
890.637634,331
890.754211,324
890.87085,321
890.987549,321
891.104187,320
891.220886,319
891.337463,334
891.454102,303
891.57074,320
891.687378,324
891.804077,309
891.920654,314
892.037231,320
892.15387,317
892.270447,319
892.387085,322
892.503723,315
892.6203,316
892.736877,319
892.853516,303
892.970032,318
893.08667,323
893.203186,321
893.319763,319
893.43634,321
893.552917,316
893.669556,324
893.786011,313
893.902588,331
894.019165,331
894.135681,327
894.252197,314
894.368835,330
894.485291,313
894.601868,330
894.718384,320
894.8349,306
894.951355,312
895.067932,347
895.184448,317
895.300964,315
895.417419,310
895.533936,322
895.650452,320
895.766907,320
895.883423,314
895.999878,321
896.116333,324
896.232849,325
896.349304,302
896.465759,335
896.582214,316
896.698669,317
896.815125,324
896.931641,311
897.048035,325
897.164551,299
897.280884,322
897.397339,319
897.513794,319
897.630249,311
897.746582,318
897.863098,330
897.979431,315
898.095886,322
898.212341,310
898.328674,303
898.445129,323
898.561462,314
898.677795,319
898.794312,321
898.910645,314
899.026978,323
899.143433,324
899.259766,317
899.37616,321
899.492493,337
899.608765,313
899.725159,328
899.841553,312
899.957947,314
900.07428,312
900.190552,321
900.306946,318
900.423157,320
900.53949,323
900.655884,338
900.772156,319
900.888489,323
901.004822,324
901.121033,324
901.237366,317
901.353699,315
901.46991,322
901.586304,307
901.702515,308
901.818787,319
901.93512,337
902.051331,320
902.167603,331
902.283875,319
902.400085,304
902.516418,336
902.632629,329
902.74884,319
902.865112,322
902.981384,328
903.097595,315
903.213867,332
903.330017,311
903.446289,325
903.5625,304
903.67865,322
903.794922,335
903.911072,322
904.027344,316
904.143494,327
904.259705,324
904.375916,322
904.492065,310
904.608215,334
904.724426,318
904.840576,342
904.956726,322
905.072876,319
905.189087,315
905.305176,338
905.421387,329
905.537537,322
905.653687,317
905.769775,320
905.885925,320
906.002014,329
906.118164,310
906.234314,318
906.350403,319
906.466492,313
906.582642,317
906.69873,320
906.814758,319
906.930908,321
907.046936,309
907.163086,323
907.279175,314
907.395264,320
907.511353,322
907.62738,304
907.743408,317
907.859497,318
907.975525,312
908.091553,311
908.207703,317
908.32373,331
908.439758,291
908.555786,314
908.671814,315
908.787842,324
908.90387,311
909.019775,323
909.135864,304
909.251892,326
909.367859,313
909.483826,318
909.599854,329
909.715881,333
909.831848,321
909.947815,321
910.063782,319
910.179749,308
910.295776,302
910.411743,324
910.527649,313
910.643616,320
910.759583,313
910.875488,322
910.991455,306
911.107361,322
911.223267,318
911.339294,313
911.4552,316
911.571106,305
911.687073,319
911.802979,314
911.918823,310
912.034729,319
912.150635,310
912.266602,299
912.382446,309
912.498352,323
912.614197,311
912.730103,316
912.846008,304
792.44574,315
792.56488,348
792.68396,405
792.80304,386
792.92218,347
793.041199,329
793.160339,331
793.279419,341
793.398499,338
793.517578,311
793.636658,326
793.755737,334
793.874817,362
793.993896,346
794.112976,342
794.232056,342
794.351074,339
794.470215,332
794.589233,339
794.708313,333
794.827393,326
794.946411,341
795.065552,341
795.18457,342
795.303589,341
795.422668,325
795.541687,324
795.660767,344
795.779846,337
795.898865,327
796.017883,344
796.136963,322
796.255981,340
796.375061,330
796.49408,347
796.613037,319
796.732117,349
796.851135,330
796.970154,338
797.089233,331
797.208191,335
797.327271,333
797.446228,351
797.565186,324
797.684265,331
797.803223,333
797.922241,322
798.04126,325
798.160278,328
798.279297,321
798.398315,336
798.517273,326
798.636292,331
798.75531,328
798.874268,331
798.993286,325
799.112244,325
799.231323,314
799.350281,335
799.469238,326
799.588257,333
799.707153,329
799.826111,346
799.945129,337
800.064087,331
800.183044,333
800.302063,327
800.421021,345
800.539978,330
800.658936,326
800.777893,323
800.896912,318
801.015747,330
801.134705,338
801.253723,317
801.37262,324
801.491638,329
801.610535,329
801.729492,334
801.84845,319
801.967407,337
802.086243,334
802.205261,330
802.324158,328
802.443115,331
802.562073,322
802.680969,312
802.799927,337
802.918762,335
803.037659,316
803.156677,333
803.275574,317
803.39447,332
803.513428,334
803.632263,344
803.751221,321
803.870117,341
803.989014,327
804.107971,324
804.226746,337
804.345642,324
804.4646,328
804.583496,333
804.702393,332
804.821228,325
804.940125,321
805.059021,319
805.177917,328
805.296814,316
805.415649,319
805.534546,320
805.653442,324
805.772278,310
805.891113,330
806.01001,322
806.128906,322
806.247742,314
806.366577,328
806.485413,324
806.604309,320
806.723145,340
806.84198,304
806.960876,349
807.079712,333
807.198486,323
807.317383,322
807.436218,316
807.554993,329
807.673889,328
807.792725,335
807.91156,313
808.030396,315
808.14917,340
808.268005,315
808.386841,324
808.505676,317
808.624451,329
808.743286,324
808.862122,317
808.980896,324
809.099731,330
809.218506,328
809.337341,321
809.456116,319
809.57489,325
809.693726,330
809.8125,331
809.931274,319
810.050049,320
810.168884,329
810.287659,325
810.406372,338
810.525269,327
810.643982,330
810.762756,324
810.881531,326
811.000305,334
811.11908,316
811.237854,327
811.356567,323
811.475403,320
811.594116,335
811.71283,333
811.831604,322
811.950378,344
812.069153,339
812.187927,324
812.30658,320
812.425415,336
812.544128,327
812.662781,336
812.781616,325
812.900269,329
813.019043,335
813.137756,336
813.256531,332
813.375244,329
813.493896,329
813.612671,343
813.731384,337
813.850037,308
813.96875,319
814.087524,325
814.206238,317
814.324951,324
814.443604,322
814.562256,334
814.68103,328
814.799683,342
814.918335,321
815.037109,316
815.155762,331
815.274475,324
815.393188,314
815.511841,327
815.630554,318
815.749146,343
815.867859,314
815.986572,326
816.105164,323
816.223877,330
816.342529,320
816.461182,340
816.579895,323
816.698486,334
816.817139,334
816.935791,323
817.054504,318
817.173096,336
817.291748,321
817.4104,329
817.529053,333
817.647644,325
817.766235,321
817.884949,317
818.00354,317
818.122192,309
818.240845,324
818.359436,315
818.478088,321
818.59668,332
818.715271,326
818.833923,315
818.952515,321
819.071106,326
819.189758,320
819.30835,320
819.426941,321
819.545532,322
819.664124,317
819.782715,314
819.901306,320
820.019897,315
820.138489,312
820.25708,322
820.375671,322
820.494202,317
820.612732,323
820.731384,319
820.849915,317
820.968506,315
821.087097,329
821.205627,311
821.324158,318
821.442749,330
821.561279,320
821.679871,330
821.798401,324
821.916931,311
822.035461,331
822.154053,335
822.272583,306
822.391174,320
822.509583,314
822.628174,334
822.746704,315
822.865234,320
822.983765,315
823.102295,319
823.220825,321
823.339294,322
823.457825,313
823.576355,330
823.694824,309
823.813354,317
823.931885,315
824.050354,328
824.168884,319
824.287354,313
824.405823,324
824.524353,313
824.642822,317
824.761353,328
824.879822,324
824.998291,330
825.116699,322
825.235291,310
825.353699,314
825.472168,314
825.590637,310
825.709106,314
825.827576,329
825.946045,319
826.064453,347
826.182983,310
826.301392,320
826.4198,328
826.53833,310
826.656738,326
826.775208,314
826.893677,327
827.012024,313
827.130493,320
827.248962,325
827.36731,318
827.485779,311
827.604248,313
827.722595,325
827.841064,310
827.959412,334
828.077942,312
828.196289,323
828.314636,319
828.433105,314
828.551514,321
828.669861,316
828.78833,322
828.906677,324
829.025085,324
829.143433,318
829.261841,329
829.38031,318
829.498657,321
829.617004,318
829.735413,325
829.85376,302
829.972107,313
830.090515,330
830.208862,326
830.327209,317
830.445557,324
830.563904,317
830.682312,322
830.800659,313
830.919006,324
831.037354,316
831.155701,322
831.274048,323
831.392395,313
831.51062,329
831.629028,308
831.747314,323
831.865662,322
831.984009,318
832.102356,316
832.220642,326
832.338928,312
832.457275,318
832.575623,322
832.693909,308
832.812134,310
832.930481,321
833.048828,311
833.167114,307
833.2854,328
833.403687,312
833.521973,322
833.640259,322
833.758545,335
833.876831,312
833.995056,316
834.113281,316
834.231628,316
834.349915,323
834.468201,302
834.586426,309
834.704651,315
834.822998,331
834.941162,326
835.059448,309
835.177673,327
835.295959,324
835.414246,316
835.53241,305
835.650635,316
835.768921,319
835.887146,328
836.005371,330
836.123596,326
836.241821,323
836.360046,320
836.478271,320
836.596497,319
836.714722,318
836.832886,320
836.95105,319
837.069336,328
837.1875,316
837.305725,325
837.423889,323
837.542053,319
837.660339,315
837.778503,334
837.896667,309
838.014832,336
838.132996,309
838.25116,335
838.369385,309
838.487488,312
838.605713,319
838.723877,321
838.84198,311
838.960205,317
839.078308,310
839.196472,327
839.314636,318
839.4328,325
839.550964,323
839.669067,319
839.787231,322
839.905396,314
840.023499,314
840.141602,328
840.259766,323
840.377869,330
840.495972,305
840.614136,325
840.732239,313
840.850342,321
840.968445,302
841.086548,320
841.204651,312
841.322754,324
841.440918,317
841.55896,317
841.677002,308
841.795166,324
841.913208,319
842.031311,330
842.149353,326
842.267456,327
842.385498,315
842.503601,324
842.621643,330
842.739746,325
842.857788,312
842.97583,328
843.093933,316
843.211975,325
843.330017,321
843.44812,317
843.566101,320
843.684204,339
843.802246,317
843.920227,325
844.038269,319
844.156311,317
844.274292,326
844.392395,324
844.510376,324
844.628357,334
844.74646,317
844.864441,319
844.982422,320
845.100403,327
845.218384,317
845.336426,325
845.454468,331
845.572449,327
845.69043,311
845.808411,319
845.926453,315
846.044373,325
846.162354,314
846.280396,329
846.398315,331
846.516296,314
846.634216,320
846.752197,327
846.870178,335
846.988098,312
847.106079,324
847.22406,318
847.34198,327
847.4599,320
847.577881,328
847.695801,323
847.813782,324
847.931641,313
848.049561,317
848.167603,332
848.285461,312
848.403381,327
848.521362,313
848.639221,328
848.75708,322
848.875,335
848.99292,336
849.110901,329
849.22876,320
849.34668,318
849.464539,338
849.582458,313
849.700317,320
849.818176,330
849.936096,322
850.053955,316
850.171875,319
850.289673,325
850.407593,327
850.525452,320
850.643311,327
850.761169,324
850.878967,314
850.996887,337
851.114746,328
851.232544,325
851.350403,308
851.468262,314
851.58606,317
851.703979,326
851.821777,317
851.939636,315
852.057434,326
852.175232,326
852.293091,318
852.410889,330
852.528687,319
852.646545,327
852.764343,319
852.88208,331
852.999939,329
853.117676,326
853.235535,331
853.353271,326
853.471069,319
853.588928,331
853.706604,319
853.824402,332
853.9422,317
854.059998,339
854.177734,320
854.295532,311
854.413269,316
854.531006,315
854.648804,325
854.766541,312
854.884277,308
855.002014,318
855.119751,324
855.237549,330
855.355225,313
855.473022,327
855.590698,312
855.708435,321
855.826172,316
855.943848,315
856.061646,322
856.179321,315
856.296997,311
856.414795,323
856.53241,313
856.650085,326
856.767822,307
856.885559,316
857.003174,312
857.120911,319
857.238586,329
857.356201,334
857.473938,318
857.591614,324
857.709351,317
857.826965,339
857.944641,317
858.062317,334
858.179993,324
858.297668,327
858.415283,321
858.532959,321
858.650574,325
858.768188,318
858.885803,318
859.003479,319
859.121094,303
859.23877,325
859.356384,322
859.473999,313
859.591675,321
859.709229,318
859.826843,316
859.944458,338
860.062012,311
860.179626,317
860.297302,322
860.414856,328
860.532471,322
860.650024,325
860.767639,318
860.885193,321
861.002808,324
861.120361,336
861.237976,307
861.35553,309
861.473022,318
861.590698,320
861.708191,313
861.825745,323
861.943298,315
862.060852,313
862.178406,310
862.295959,323
862.413513,315
862.531006,311
862.64856,319
862.766113,330
862.883667,322
863.00116,317
863.118713,327
863.236206,313
863.353699,328
863.471252,330
863.588745,316
863.706177,327
863.82373,310
863.941162,325
864.058716,328
864.176208,320
864.29364,310
864.411194,310
864.528687,319
864.646118,315
864.763611,335
864.881042,320
864.998535,306
865.116028,319
865.233459,303
865.350891,329
865.468384,315
865.585754,318
865.703308,308
865.820679,321
865.938171,304
866.055542,307
866.173035,309
866.290466,318
866.407837,311
866.52533,321
866.6427,317
866.760071,335
866.877563,310
866.994934,321
867.112305,320
867.229736,325
867.347107,322
867.464539,328
867.58197,329
867.699341,331
867.81665,323
867.934082,326
868.051453,312
868.168823,313
868.286194,311
868.403564,311
868.520935,328
868.638306,315
868.755676,327
868.872986,314
868.990295,318
869.107727,316
869.225037,326
869.342346,321
869.459717,332
869.577026,320
869.694336,319
869.811707,326
869.929016,317
870.046326,299
870.163635,325
870.280945,322
870.398254,315
870.515564,332
870.632812,312
870.750183,326
870.867432,319
870.984741,322
871.102051,312
871.219299,310
871.336609,308
871.453918,318
871.571106,322
871.688416,324
871.805664,307
871.922852,320
872.040222,316
872.157471,324
872.274719,317
872.391968,318
872.509155,323
872.626465,330
872.743652,321
872.860962,320
872.978149,320
873.095337,327
873.212646,314
873.329834,315
873.44696,316
873.564209,318
873.681396,324
873.798645,322
873.915894,309
874.03302,309
874.150208,319
874.267456,323
874.384583,304
874.501831,319
874.618958,312
874.736145,320
874.853333,312
874.970459,323
875.087646,315
875.204834,318
875.32196,308
875.439148,331
875.556274,310
875.673401,337
875.790527,332
875.907715,310
876.024841,316
876.141968,321
876.259094,334
876.376282,316
876.493347,310
876.610474,316
876.7276,304
876.844727,323
876.961853,320
877.078918,327
877.195984,325
877.313171,316
877.430237,334
877.547302,326
877.664368,324
877.781433,315
877.898499,321
878.015625,322
878.13269,325
878.249695,324
878.366821,321
878.483887,313
878.600952,313
878.717957,324
878.834961,317
878.952087,331
879.069092,311
879.186157,325
879.303162,321
879.420227,321
879.537231,313
879.654236,321
879.77124,315
879.888306,325
880.005249,313
880.122314,331
880.239319,310
880.356323,323
880.473328,316
880.590271,323
880.707275,305
880.824341,320
880.941284,319
881.058228,330
881.175232,318
881.292236,322
881.40918,329
881.526123,325
881.643066,326
881.760071,332
881.877014,310
881.993958,318
882.11084,322
882.227783,312
882.344727,320
882.46167,316
882.578613,313
882.695618,329
882.812439,326
882.929382,326
883.046326,312
883.163208,321
883.280151,316
883.397034,320
883.513916,315
883.630798,327
883.747742,319
883.864563,319
883.981506,319
884.098389,322
884.21521,300
884.332153,317
884.448975,326
884.565796,331
884.682678,316
884.7995,327
884.916443,318
885.033264,324
885.150085,324
885.266968,321
885.383789,331
885.500671,323
885.617493,325
885.734314,316
885.851196,316
885.967896,330
886.084717,305
886.201599,333
886.318359,332
886.435181,315
886.552002,327
886.668762,325
886.785645,316
886.902344,328
887.019165,310
887.135925,326
887.252747,310
887.369446,321
887.486267,312
887.603027,320
887.719788,330
887.836548,318
887.953247,323
888.070068,326
888.186829,314
888.303528,341
888.420288,312
888.536987,330
888.653687,315
888.770447,323
888.887146,302
889.003967,328
889.120667,327
889.237305,309
889.354065,316
889.470703,308
889.587463,303
889.704163,323
889.820862,313
889.937561,318
890.054199,320
890.170837,316
890.287598,306
890.404236,323
890.520874,320
890.637634,327
890.754211,306
890.87085,319
890.987549,311
891.104187,309
891.220886,305
891.337463,317
891.454102,316
891.57074,316
891.687378,319
891.804077,324
891.920654,322
892.037231,328
892.15387,312
892.270447,329
892.387085,315
892.503723,337
892.6203,325
892.736877,327
892.853516,319
892.970032,315
893.08667,322
893.203186,326
893.319763,320
893.43634,335
893.552917,316
893.669556,329
893.786011,327
893.902588,323
894.019165,323
894.135681,318
894.252197,331
894.368835,326
894.485291,320
894.601868,297
894.718384,304
894.8349,320
894.951355,308
895.067932,321
895.184448,304
895.300964,322
895.417419,312
895.533936,312
895.650452,316
895.766907,325
895.883423,325
895.999878,328
896.116333,321
896.232849,319
896.349304,304
896.465759,339
896.582214,312
896.698669,312
896.815125,307
896.931641,328
897.048035,305
897.164551,312
897.280884,314
897.397339,319
897.513794,314
897.630249,310
897.746582,315
897.863098,326
897.979431,324
898.095886,318
898.212341,308
898.328674,322
898.445129,323
898.561462,320
898.677795,314
898.794312,325
898.910645,315
899.026978,325
899.143433,312
899.259766,316
899.37616,315
899.492493,321
899.608765,309
899.725159,320
899.841553,308
899.957947,314
900.07428,312
900.190552,328
900.306946,324
900.423157,342
900.53949,318
900.655884,311
900.772156,317
900.888489,315
901.004822,316
901.121033,313
901.237366,312
901.353699,326
901.46991,313
901.586304,324
901.702515,313
901.818787,314
901.93512,307
902.051331,322
902.167603,317
902.283875,325
902.400085,311
902.516418,336
902.632629,321
902.74884,323
902.865112,317
902.981384,318
903.097595,316
903.213867,337
903.330017,320
903.446289,309
903.5625,305
903.67865,330
903.794922,316
903.911072,318
904.027344,325
904.143494,319
904.259705,314
904.375916,329
904.492065,309
904.608215,323
904.724426,323
904.840576,318
904.956726,315
905.072876,323
905.189087,314
905.305176,317
905.421387,309
905.537537,341
905.653687,320
905.769775,322
905.885925,314
906.002014,324
906.118164,317
906.234314,314
906.350403,314
906.466492,333
906.582642,308
906.69873,322
906.814758,301
906.930908,317
907.046936,315
907.163086,317
907.279175,320
907.395264,309
907.511353,317
907.62738,323
907.743408,317
907.859497,323
907.975525,314
908.091553,334
908.207703,335
908.32373,315
908.439758,321
908.555786,321
908.671814,315
908.787842,320
908.90387,315
909.019775,321
909.135864,312
909.251892,315
909.367859,315
909.483826,301
909.599854,323
909.715881,317
909.831848,310
909.947815,316
910.063782,306
910.179749,336
910.295776,307
910.411743,330
910.527649,310
910.643616,322
910.759583,321
910.875488,323
910.991455,319
911.107361,326
911.223267,321
911.339294,327
911.4552,319
911.571106,327
911.687073,312
911.802979,327
911.918823,327
912.034729,321
912.150635,319
912.266602,316
912.382446,315
912.498352,329
912.614197,319
912.730103,319
912.846008,311
792.44574,337
792.56488,361
792.68396,411
792.80304,397
792.92218,339
793.041199,319
793.160339,324
793.279419,338
793.398499,339
793.517578,335
793.636658,312
793.755737,343
793.874817,351
793.993896,341
794.112976,346
794.232056,322
794.351074,334
794.470215,330
794.589233,341
794.708313,333
794.827393,327
794.946411,346
795.065552,349
795.18457,326
795.303589,338
795.422668,338
795.541687,342
795.660767,332
795.779846,336
795.898865,337
796.017883,314
796.136963,331
796.255981,342
796.375061,343
796.49408,331
796.613037,316
796.732117,342
796.851135,322
796.970154,331
797.089233,327
797.208191,340
797.327271,339
797.446228,323
797.565186,342
797.684265,332
797.803223,337
797.922241,329
798.04126,320
798.160278,338
798.279297,328
798.398315,333
798.517273,351
798.636292,329
798.75531,331
798.874268,328
798.993286,337
799.112244,341
799.231323,331
799.350281,324
799.469238,337
799.588257,320
799.707153,324
799.826111,324
799.945129,311
800.064087,341
800.183044,328
800.302063,314
800.421021,330
800.539978,329
800.658936,328
800.777893,326
800.896912,331
801.015747,328
801.134705,324
801.253723,327
801.37262,321
801.491638,328
801.610535,319
801.729492,322
801.84845,331
801.967407,336
802.086243,342
802.205261,338
802.324158,331
802.443115,325
802.562073,318
802.680969,319
802.799927,319
802.918762,314
803.037659,316
803.156677,322
803.275574,344
803.39447,332
803.513428,332
803.632263,320
803.751221,318
803.870117,339
803.989014,314
804.107971,325
804.226746,328
804.345642,340
804.4646,320
804.583496,331
804.702393,334
804.821228,313
804.940125,327
805.059021,328
805.177917,336
805.296814,324
805.415649,336
805.534546,337
805.653442,327
805.772278,331
805.891113,318
806.01001,341
806.128906,321
806.247742,339
806.366577,321
806.485413,331
806.604309,321
806.723145,320
806.84198,327
806.960876,323
807.079712,333
807.198486,338
807.317383,317
807.436218,329
807.554993,326
807.673889,331
807.792725,317
807.91156,311
808.030396,321
808.14917,327
808.268005,319
808.386841,324
808.505676,319
808.624451,331
808.743286,315
808.862122,333
808.980896,330
809.099731,326
809.218506,333
809.337341,327
809.456116,327
809.57489,331
809.693726,336
809.8125,338
809.931274,329
810.050049,328
810.168884,329
810.287659,332
810.406372,324
810.525269,333
810.643982,333
810.762756,318
810.881531,332
811.000305,333
811.11908,314
811.237854,330
811.356567,332
811.475403,329
811.594116,317
811.71283,335
811.831604,323
811.950378,332
812.069153,323
812.187927,315
812.30658,314
812.425415,335
812.544128,324
812.662781,329
812.781616,330
812.900269,316
813.019043,325
813.137756,316
813.256531,332
813.375244,339
813.493896,316
813.612671,331
813.731384,319
813.850037,325
813.96875,330
814.087524,329
814.206238,326
814.324951,310
814.443604,324
814.562256,337
814.68103,311
814.799683,334
814.918335,318
815.037109,320
815.155762,328
815.274475,338
815.393188,315
815.511841,327
815.630554,319
815.749146,326
815.867859,330
815.986572,323
816.105164,320
816.223877,321
816.342529,329
816.461182,323
816.579895,327
816.698486,330
816.817139,324
816.935791,325
817.054504,317
817.173096,319
817.291748,326
817.4104,318
817.529053,326
817.647644,334
817.766235,327
817.884949,333
818.00354,311
818.122192,321
818.240845,322
818.359436,338
818.478088,315
818.59668,326
818.715271,322
818.833923,326
818.952515,323
819.071106,331
819.189758,340
819.30835,320
819.426941,329
819.545532,334
819.664124,332
819.782715,324
819.901306,322
820.019897,323
820.138489,321
820.25708,329
820.375671,312
820.494202,331
820.612732,307
820.731384,339
820.849915,316
820.968506,306
821.087097,332
821.205627,318
821.324158,318
821.442749,318
821.561279,314
821.679871,320
821.798401,297
821.916931,320
822.035461,303
822.154053,322
822.272583,315
822.391174,318
822.509583,315
822.628174,318
822.746704,302
822.865234,321
822.983765,322
823.102295,342
823.220825,320
823.339294,321
823.457825,324
823.576355,324
823.694824,313
823.813354,326
823.931885,318
824.050354,318
824.168884,314
824.287354,335
824.405823,308
824.524353,314
824.642822,323
824.761353,316
824.879822,307
824.998291,315
825.116699,316
825.235291,330
825.353699,316
825.472168,327
825.590637,310
825.709106,333
825.827576,296
825.946045,322
826.064453,314
826.182983,324
826.301392,318
826.4198,318
826.53833,320
826.656738,316
826.775208,314
826.893677,301
827.012024,318
827.130493,319
827.248962,323
827.36731,321
827.485779,299
827.604248,327
827.722595,316
827.841064,323
827.959412,329
828.077942,306
828.196289,301
828.314636,326
828.433105,322
828.551514,331
828.669861,317
828.78833,315
828.906677,325
829.025085,318
829.143433,318
829.261841,317
829.38031,323
829.498657,307
829.617004,326
829.735413,312
829.85376,320
829.972107,310
830.090515,323
830.208862,319
830.327209,314
830.445557,310
830.563904,308
830.682312,328
830.800659,317
830.919006,323
831.037354,325
831.155701,335
831.274048,325
831.392395,316
831.51062,316
831.629028,315
831.747314,324
831.865662,313
831.984009,334
832.102356,326
832.220642,311
832.338928,336
832.457275,303
832.575623,318
832.693909,322
832.812134,332
832.930481,307
833.048828,309
833.167114,302
833.2854,317
833.403687,315
833.521973,319
833.640259,316
833.758545,322
833.876831,309
833.995056,322
834.113281,315
834.231628,322
834.349915,309
834.468201,326
834.586426,319
834.704651,326
834.822998,308
834.941162,318
835.059448,319
835.177673,315
835.295959,318
835.414246,325
835.53241,311
835.650635,323
835.768921,316
835.887146,318
836.005371,312
836.123596,317
836.241821,321
836.360046,304
836.478271,321
836.596497,310
836.714722,317
836.832886,329
836.95105,320
837.069336,333
837.1875,319
837.305725,320
837.423889,320
837.542053,323
837.660339,307
837.778503,319
837.896667,312
838.014832,325
838.132996,319
838.25116,324
838.369385,316
838.487488,326
838.605713,316
838.723877,324
838.84198,309
838.960205,313
839.078308,335
839.196472,309
839.314636,321
839.4328,319
839.550964,309
839.669067,322
839.787231,313
839.905396,319
840.023499,317
840.141602,327
840.259766,315
840.377869,318
840.495972,321
840.614136,323
840.732239,320
840.850342,321
840.968445,325
841.086548,316
841.204651,331
841.322754,305
841.440918,328
841.55896,322
841.677002,322
841.795166,325
841.913208,324
842.031311,330
842.149353,327
842.267456,321
842.385498,332
842.503601,328
842.621643,315
842.739746,313
842.857788,311
842.97583,324
843.093933,318
843.211975,321
843.330017,309
843.44812,318
843.566101,312
843.684204,307
843.802246,318
843.920227,329
844.038269,314
844.156311,331
844.274292,315
844.392395,326
844.510376,330
844.628357,318
844.74646,311
844.864441,321
844.982422,322
845.100403,317
845.218384,314
845.336426,327
845.454468,314
845.572449,319
845.69043,317
845.808411,309
845.926453,329
846.044373,311
846.162354,307
846.280396,326
846.398315,323
846.516296,324
846.634216,303
846.752197,324
846.870178,323
846.988098,325
847.106079,320
847.22406,312
847.34198,327
847.4599,315
847.577881,299
847.695801,306
847.813782,312
847.931641,321
848.049561,321
848.167603,331
848.285461,323
848.403381,333
848.521362,323
848.639221,333
848.75708,313
848.875,321
848.99292,327
849.110901,325
849.22876,313
849.34668,334
849.464539,316
849.582458,333
849.700317,327
849.818176,327
849.936096,321
850.053955,330
850.171875,317
850.289673,323
850.407593,311
850.525452,316
850.643311,311
850.761169,326
850.878967,319
850.996887,324
851.114746,321
851.232544,316
851.350403,313
851.468262,327
851.58606,314
851.703979,328
851.821777,312
851.939636,312
852.057434,330
852.175232,321
852.293091,323
852.410889,314
852.528687,330
852.646545,321
852.764343,335
852.88208,330
852.999939,321
853.117676,325
853.235535,319
853.353271,311
853.471069,310
853.588928,319
853.706604,303
853.824402,319
853.9422,305
854.059998,335
854.177734,326
854.295532,326
854.413269,318
854.531006,329
854.648804,308
854.766541,323
854.884277,314
855.002014,310
855.119751,308
855.237549,331
855.355225,323
855.473022,318
855.590698,319
855.708435,326
855.826172,312
855.943848,310
856.061646,320
856.179321,324
856.296997,318
856.414795,316
856.53241,326
856.650085,326
856.767822,329
856.885559,316
857.003174,322
857.120911,319
857.238586,301
857.356201,324
857.473938,308
857.591614,323
857.709351,305
857.826965,330
857.944641,317
858.062317,314
858.179993,313
858.297668,320
858.415283,317
858.532959,324
858.650574,320
858.768188,328
858.885803,305
859.003479,326
859.121094,328
859.23877,327
859.356384,322
859.473999,315
859.591675,305
859.709229,324
859.826843,322
859.944458,312
860.062012,311
860.179626,318
860.297302,312
860.414856,330
860.532471,319
860.650024,309
860.767639,325
860.885193,316
861.002808,310
861.120361,312
861.237976,310
861.35553,320
861.473022,320
861.590698,330
861.708191,301
861.825745,333
861.943298,313
862.060852,327
862.178406,308
862.295959,325
862.413513,319
862.531006,321
862.64856,321
862.766113,323
862.883667,310
863.00116,330
863.118713,320
863.236206,318
863.353699,331
863.471252,321
863.588745,307
863.706177,310
863.82373,328
863.941162,317
864.058716,316
864.176208,322
864.29364,313
864.411194,328
864.528687,314
864.646118,309
864.763611,326
864.881042,320
864.998535,306
865.116028,323
865.233459,307
865.350891,321
865.468384,310
865.585754,333
865.703308,305
865.820679,314
865.938171,324
866.055542,322
866.173035,314
866.290466,320
866.407837,304
866.52533,316
866.6427,322
866.760071,309
866.877563,323
866.994934,317
867.112305,325
867.229736,321
867.347107,316
867.464539,317
867.58197,304
867.699341,324
867.81665,323
867.934082,318
868.051453,317
868.168823,317
868.286194,325
868.403564,310
868.520935,302
868.638306,323
868.755676,311
868.872986,312
868.990295,322
869.107727,329
869.225037,323
869.342346,311
869.459717,328
869.577026,328
869.694336,324
869.811707,313
869.929016,312
870.046326,324
870.163635,321
870.280945,311
870.398254,310
870.515564,320
870.632812,318
870.750183,325
870.867432,325
870.984741,312
871.102051,316
871.219299,328
871.336609,302
871.453918,317
871.571106,325
871.688416,319
871.805664,316
871.922852,306
872.040222,326
872.157471,302
872.274719,306
872.391968,316
872.509155,313
872.626465,333
872.743652,320
872.860962,322
872.978149,322
873.095337,321
873.212646,314
873.329834,321
873.44696,325
873.564209,321
873.681396,313
873.798645,334
873.915894,322
874.03302,320
874.150208,319
874.267456,331
874.384583,323
874.501831,326
874.618958,323
874.736145,313
874.853333,314
874.970459,319
875.087646,320
875.204834,321
875.32196,306
875.439148,329
875.556274,317
875.673401,323
875.790527,307
875.907715,317
876.024841,314
876.141968,320
876.259094,318
876.376282,322
876.493347,319
876.610474,317
876.7276,323
876.844727,316
876.961853,316
877.078918,310
877.195984,327
877.313171,318
877.430237,323
877.547302,325
877.664368,311
877.781433,324
877.898499,320
878.015625,324
878.13269,316
878.249695,338
878.366821,316
878.483887,315
878.600952,323
878.717957,315
878.834961,317
878.952087,327
879.069092,324
879.186157,313
879.303162,311
879.420227,321
879.537231,313
879.654236,313
879.77124,321
879.888306,311
880.005249,311
880.122314,333
880.239319,311
880.356323,330
880.473328,316
880.590271,325
880.707275,312
880.824341,328
880.941284,319
881.058228,309
881.175232,318
881.292236,331
881.40918,313
881.526123,318
881.643066,320
881.760071,317
881.877014,302
881.993958,317
882.11084,302
882.227783,325
882.344727,316
882.46167,311
882.578613,311
882.695618,327
882.812439,317
882.929382,329
883.046326,307
883.163208,322
883.280151,307
883.397034,318
883.513916,324
883.630798,318
883.747742,326
883.864563,302
883.981506,319
884.098389,327
884.21521,318
884.332153,323
884.448975,312
884.565796,322
884.682678,307
884.7995,328
884.916443,314
885.033264,324
885.150085,314
885.266968,327
885.383789,319
885.500671,331
885.617493,317
885.734314,328
885.851196,312
885.967896,320
886.084717,317
886.201599,324
886.318359,311
886.435181,326
886.552002,322
886.668762,317
886.785645,330
886.902344,328
887.019165,316
887.135925,319
887.252747,318
887.369446,327
887.486267,307
887.603027,317
887.719788,323
887.836548,327
887.953247,321
888.070068,303
888.186829,318
888.303528,311
888.420288,324
888.536987,322
888.653687,318
888.770447,312
888.887146,317
889.003967,320
889.120667,314
889.237305,319
889.354065,308
889.470703,317
889.587463,306
889.704163,322
889.820862,328
889.937561,324
890.054199,306
890.170837,311
890.287598,310
890.404236,303
890.520874,309
890.637634,317
890.754211,312
890.87085,326
890.987549,318
891.104187,316
891.220886,321
891.337463,319
891.454102,315
891.57074,320
891.687378,335
891.804077,320
891.920654,319
892.037231,324
892.15387,314
892.270447,317
892.387085,308
892.503723,327
892.6203,305
892.736877,315
892.853516,333
892.970032,313
893.08667,308
893.203186,322
893.319763,311
893.43634,329
893.552917,321
893.669556,318
893.786011,322
893.902588,311
894.019165,309
894.135681,324
894.252197,316
894.368835,322
894.485291,309
894.601868,329
894.718384,314
894.8349,331
894.951355,318
895.067932,303
895.184448,325
895.300964,318
895.417419,312
895.533936,317
895.650452,303
895.766907,319
895.883423,318
895.999878,326
896.116333,312
896.232849,311
896.349304,323
896.465759,317
896.582214,314
896.698669,323
896.815125,308
896.931641,311
897.048035,322
897.164551,325
897.280884,323
897.397339,326
897.513794,312
897.630249,321
897.746582,318
897.863098,325
897.979431,311
898.095886,328
898.212341,315
898.328674,323
898.445129,322
898.561462,320
898.677795,313
898.794312,340
898.910645,311
899.026978,327
899.143433,313
899.259766,327
899.37616,301
899.492493,332
899.608765,307
899.725159,313
899.841553,316
899.957947,311
900.07428,331
900.190552,319
900.306946,330
900.423157,318
900.53949,318
900.655884,326
900.772156,316
900.888489,310
901.004822,326
901.121033,321
901.237366,316
901.353699,312
901.46991,320
901.586304,325
901.702515,318
901.818787,326
901.93512,321
902.051331,327
902.167603,320
902.283875,313
902.400085,319
902.516418,322
902.632629,310
902.74884,318
902.865112,304
902.981384,318
903.097595,337
903.213867,320
903.330017,321
903.446289,317
903.5625,314
903.67865,326
903.794922,315
903.911072,320
904.027344,324
904.143494,330
904.259705,322
904.375916,303
904.492065,317
904.608215,319
904.724426,317
904.840576,318
904.956726,311
905.072876,324
905.189087,308
905.305176,323
905.421387,321
905.537537,326
905.653687,319
905.769775,321
905.885925,324
906.002014,309
906.118164,318
906.234314,322
906.350403,310
906.466492,326
906.582642,307
906.69873,321
906.814758,326
906.930908,308
907.046936,319
907.163086,327
907.279175,311
907.395264,319
907.511353,303
907.62738,325
907.743408,323
907.859497,327
907.975525,318
908.091553,331
908.207703,307
908.32373,329
908.439758,311
908.555786,332
908.671814,327
908.787842,310
908.90387,302
909.019775,316
909.135864,325
909.251892,326
909.367859,307
909.483826,316
909.599854,330
909.715881,329
909.831848,313
909.947815,312
910.063782,312
910.179749,312
910.295776,322
910.411743,327
910.527649,313
910.643616,322
910.759583,316
910.875488,325
910.991455,318
911.107361,318
911.223267,308
911.339294,310
911.4552,323
911.571106,331
911.687073,326
911.802979,325
911.918823,315
912.034729,320
912.150635,329
912.266602,327
912.382446,316
912.498352,320
912.614197,313
912.730103,307
912.846008,316
