792.44574,306
792.56488,346
792.68396,391
792.80304,385
792.92218,336
793.041199,316
793.160339,326
793.279419,332
793.398499,347
793.517578,308
793.636658,323
793.755737,332
793.874817,358
793.993896,339
794.112976,339
794.232056,328
794.351074,332
794.470215,327
794.589233,311
794.708313,334
794.827393,338
794.946411,332
795.065552,336
795.18457,330
795.303589,343
795.422668,321
795.541687,331
795.660767,331
795.779846,335
795.898865,330
796.017883,320
796.136963,331
796.255981,333
796.375061,348
796.49408,340
796.613037,326
796.732117,333
796.851135,334
796.970154,320
797.089233,327
797.208191,321
797.327271,330
797.446228,335
797.565186,331
797.684265,321
797.803223,331
797.922241,331
798.04126,327
798.160278,323
798.279297,323
798.398315,337
798.517273,330
798.636292,327
798.75531,318
798.874268,332
798.993286,323
799.112244,324
799.231323,332
799.350281,329
799.469238,320
799.588257,349
799.707153,326
799.826111,324
799.945129,336
800.064087,339
800.183044,318
800.302063,335
800.421021,329
800.539978,329
800.658936,318
800.777893,313
800.896912,324
801.015747,336
801.134705,324
801.253723,316
801.37262,324
801.491638,328
801.610535,329
801.729492,325
801.84845,319
801.967407,325
802.086243,331
802.205261,307
802.324158,323
802.443115,335
802.562073,310
802.680969,336
802.799927,324
802.918762,336
803.037659,309
803.156677,342
803.275574,324
803.39447,332
803.513428,319
803.632263,332
803.751221,314
803.870117,323
803.989014,331
804.107971,333
804.226746,343
804.345642,326
804.4646,330
804.583496,331
804.702393,331
804.821228,340
804.940125,325
805.059021,348
805.177917,318
805.296814,328
805.415649,317
805.534546,340
805.653442,314
805.772278,340
805.891113,321
806.01001,325
806.128906,332
806.247742,316
806.366577,330
806.485413,314
806.604309,332
806.723145,334
806.84198,336
806.960876,341
807.079712,323
807.198486,330
807.317383,324
807.436218,325
807.554993,316
807.673889,331
807.792725,331
807.91156,324
808.030396,332
808.14917,340
808.268005,326
808.386841,329
808.505676,330
808.624451,318
808.743286,347
808.862122,338
808.980896,331
809.099731,326
809.218506,341
809.337341,326
809.456116,340
809.57489,327
809.693726,329
809.8125,334
809.931274,332
810.050049,329
810.168884,325
810.287659,336
810.406372,336
810.525269,338
810.643982,337
810.762756,316
810.881531,327
811.000305,341
811.11908,326
811.237854,332
811.356567,314
811.475403,334
811.594116,331
811.71283,338
811.831604,314
811.950378,324
812.069153,338
812.187927,337
812.30658,335
812.425415,335
812.544128,338
812.662781,335
812.781616,341
812.900269,329
813.019043,323
813.137756,334
813.256531,331
813.375244,336
813.493896,322
813.612671,318
813.731384,318
813.850037,328
813.96875,337
814.087524,324
814.206238,324
814.324951,347
814.443604,338
814.562256,343
814.68103,330
814.799683,336
814.918335,324
815.037109,341
815.155762,329
815.274475,335
815.393188,333
815.511841,344
815.630554,331
815.749146,335
815.867859,311
815.986572,323
816.105164,317
816.223877,340
816.342529,319
816.461182,325
816.579895,328
816.698486,326
816.817139,335
816.935791,336
817.054504,316
817.173096,341
817.291748,324
817.4104,316
817.529053,329
817.647644,330
817.766235,339
817.884949,327
818.00354,328
818.122192,339
818.240845,309
818.359436,334
818.478088,325
818.59668,331
818.715271,332
818.833923,325
818.952515,315
819.071106,326
819.189758,327
819.30835,331
819.426941,325
819.545532,314
819.664124,320
819.782715,315
819.901306,326
820.019897,320
820.138489,314
820.25708,310
820.375671,321
820.494202,325
820.612732,318
820.731384,321
820.849915,310
820.968506,329
821.087097,322
821.205627,329
821.324158,309
821.442749,325
821.561279,309
821.679871,326
821.798401,317
821.916931,312
822.035461,321
822.154053,321
822.272583,319
822.391174,310
822.509583,303
822.628174,321
822.746704,310
822.865234,329
822.983765,313
823.102295,319
823.220825,325
823.339294,321
823.457825,311
823.576355,318
823.694824,311
823.813354,324
823.931885,309
824.050354,320
824.168884,312
824.287354,310
824.405823,302
824.524353,328
824.642822,317
824.761353,314
824.879822,310
824.998291,315
825.116699,321
825.235291,321
825.353699,313
825.472168,321
825.590637,318
825.709106,315
825.827576,309
825.946045,333
826.064453,323
826.182983,326
826.301392,322
826.4198,314
826.53833,320
826.656738,323
826.775208,317
826.893677,317
827.012024,317
827.130493,318
827.248962,310
827.36731,321
827.485779,315
827.604248,324
827.722595,321
827.841064,313
827.959412,297
828.077942,311
828.196289,310
828.314636,322
828.433105,316
828.551514,326
828.669861,312
828.78833,323
828.906677,322
829.025085,323
829.143433,310
829.261841,331
829.38031,306
829.498657,309
829.617004,315
829.735413,315
829.85376,303
829.972107,310
830.090515,324
830.208862,321
830.327209,316
830.445557,325
830.563904,305
830.682312,313
830.800659,300
830.919006,327
831.037354,305
831.155701,311
831.274048,306
831.392395,317
831.51062,305
831.629028,317
831.747314,316
831.865662,300
831.984009,324
832.102356,324
832.220642,309
832.338928,334
832.457275,319
832.575623,314
832.693909,317
832.812134,316
832.930481,318
833.048828,318
833.167114,322
833.2854,322
833.403687,320
833.521973,315
833.640259,312
833.758545,325
833.876831,323
833.995056,334
834.113281,320
834.231628,323
834.349915,312
834.468201,319
834.586426,323
834.704651,326
834.822998,311
834.941162,322
835.059448,316
835.177673,320
835.295959,309
835.414246,320
835.53241,318
835.650635,327
835.768921,315
835.887146,321
836.005371,316
836.123596,319
836.241821,321
836.360046,322
836.478271,320
836.596497,321
836.714722,314
836.832886,312
836.95105,324
837.069336,324
837.1875,319
837.305725,314
837.423889,314
837.542053,314
837.660339,313
837.778503,331
837.896667,317
838.014832,315
838.132996,309
838.25116,331
838.369385,319
838.487488,323
838.605713,306
838.723877,317
838.84198,317
838.960205,319
839.078308,303
839.196472,303
839.314636,304
839.4328,321
839.550964,337
839.669067,323
839.787231,318
839.905396,326
840.023499,308
840.141602,320
840.259766,311
840.377869,308
840.495972,329
840.614136,326
840.732239,320
840.850342,335
840.968445,300
841.086548,323
841.204651,308
841.322754,330
841.440918,301
841.55896,318
841.677002,317
841.795166,317
841.913208,311
842.031311,312
842.149353,309
842.267456,314
842.385498,308
842.503601,309
842.621643,316
842.739746,312
842.857788,312
842.97583,317
843.093933,315
843.211975,324
843.330017,317
843.44812,317
843.566101,320
843.684204,319
843.802246,329
843.920227,316
844.038269,306
844.156311,333
844.274292,300
844.392395,322
844.510376,309
844.628357,305
844.74646,320
844.864441,320
844.982422,313
845.100403,327
845.218384,304
845.336426,337
845.454468,305
845.572449,328
845.69043,314
845.808411,324
845.926453,311
846.044373,329
846.162354,322
846.280396,310
846.398315,312
846.516296,334
846.634216,310
846.752197,325
846.870178,300
846.988098,326
847.106079,323
847.22406,313
847.34198,316
847.4599,314
847.577881,328
847.695801,310
847.813782,318
847.931641,306
848.049561,310
848.167603,303
848.285461,320
848.403381,306
848.521362,307
848.639221,319
848.75708,321
848.875,313
848.99292,324
849.110901,313
849.22876,311
849.34668,317
849.464539,318
849.582458,307
849.700317,303
849.818176,323
849.936096,307
850.053955,318
850.171875,329
850.289673,313
850.407593,306
850.525452,306
850.643311,314
850.761169,332
850.878967,319
850.996887,322
851.114746,316
851.232544,303
851.350403,306
851.468262,315
851.58606,303
851.703979,333
851.821777,326
851.939636,327
852.057434,306
852.175232,319
852.293091,305
852.410889,337
852.528687,318
852.646545,313
852.764343,314
852.88208,313
852.999939,320
853.117676,316
853.235535,297
853.353271,317
853.471069,313
853.588928,321
853.706604,316
853.824402,306
853.9422,320
854.059998,306
854.177734,326
854.295532,315
854.413269,315
854.531006,318
854.648804,308
854.766541,313
854.884277,320
855.002014,323
855.119751,314
855.237549,324
855.355225,312
855.473022,314
855.590698,311
855.708435,325
855.826172,314
855.943848,320
856.061646,308
856.179321,307
856.296997,308
856.414795,329
856.53241,312
856.650085,311
856.767822,302
856.885559,316
857.003174,302
857.120911,310
857.238586,318
857.356201,317
857.473938,322
857.591614,325
857.709351,320
857.826965,306
857.944641,301
858.062317,318
858.179993,305
858.297668,317
858.415283,307
858.532959,306
858.650574,313
858.768188,308
858.885803,315
859.003479,304
859.121094,309
859.23877,321
859.356384,305
859.473999,323
859.591675,309
859.709229,316
859.826843,313
859.944458,316
860.062012,303
860.179626,320
860.297302,309
860.414856,307
860.532471,312
860.650024,309
860.767639,316
860.885193,325
861.002808,324
861.120361,318
861.237976,319
861.35553,310
861.473022,310
861.590698,320
861.708191,313
861.825745,331
861.943298,314
862.060852,319
862.178406,327
862.295959,302
862.413513,316
862.531006,327
862.64856,319
862.766113,321
862.883667,305
863.00116,317
863.118713,319
863.236206,319
863.353699,316
863.471252,335
863.588745,302
863.706177,322
863.82373,313
863.941162,320
864.058716,311
864.176208,305
864.29364,321
864.411194,319
864.528687,313
864.646118,299
864.763611,327
864.881042,312
864.998535,315
865.116028,311
865.233459,318
865.350891,333
865.468384,306
865.585754,307
865.703308,311
865.820679,327
865.938171,305
866.055542,322
866.173035,319
866.290466,318
866.407837,314
866.52533,314
866.6427,320
866.760071,327
866.877563,314
866.994934,326
867.112305,328
867.229736,332
867.347107,318
867.464539,315
867.58197,321
867.699341,319
867.81665,324
867.934082,320
868.051453,303
868.168823,306
868.286194,317
868.403564,307
868.520935,310
868.638306,301
868.755676,315
868.872986,337
868.990295,305
869.107727,325
869.225037,310
869.342346,306
869.459717,328
869.577026,321
869.694336,317
869.811707,314
869.929016,317
870.046326,324
870.163635,310
870.280945,318
870.398254,326
870.515564,321
870.632812,325
870.750183,327
870.867432,312
870.984741,334
871.102051,323
871.219299,324
871.336609,330
871.453918,332
871.571106,306
871.688416,315
871.805664,324
871.922852,313
872.040222,312
872.157471,320
872.274719,314
872.391968,320
872.509155,317
872.626465,311
872.743652,312
872.860962,313
872.978149,322
873.095337,325
873.212646,308
873.329834,318
873.44696,315
873.564209,314
873.681396,320
873.798645,316
873.915894,301
874.03302,320
874.150208,314
874.267456,325
874.384583,301
874.501831,315
874.618958,304
874.736145,313
874.853333,319
874.970459,311
875.087646,319
875.204834,309
875.32196,314
875.439148,312
875.556274,316
875.673401,323
875.790527,314
875.907715,322
876.024841,319
876.141968,319
876.259094,308
876.376282,325
876.493347,317
876.610474,325
876.7276,312
876.844727,324
876.961853,301
877.078918,322
877.195984,311
877.313171,320
877.430237,317
877.547302,331
877.664368,312
877.781433,320
877.898499,318
878.015625,318
878.13269,320
878.249695,326
878.366821,320
878.483887,309
878.600952,321
878.717957,335
878.834961,305
878.952087,327
879.069092,314
879.186157,320
879.303162,321
879.420227,320
879.537231,307
879.654236,313
879.77124,323
879.888306,318
880.005249,328
880.122314,322
880.239319,310
880.356323,325
880.473328,311
880.590271,314
880.707275,312
880.824341,315
880.941284,308
881.058228,324
881.175232,315
881.292236,331
881.40918,307
881.526123,320
881.643066,309
881.760071,326
881.877014,319
881.993958,315
882.11084,316
882.227783,319
882.344727,318
882.46167,322
882.578613,299
882.695618,328
882.812439,329
882.929382,317
883.046326,317
883.163208,323
883.280151,327
883.397034,321
883.513916,316
883.630798,332
883.747742,298
883.864563,315
883.981506,325
884.098389,325
884.21521,305
884.332153,313
884.448975,317
884.565796,319
884.682678,312
884.7995,327
884.916443,314
885.033264,324
885.150085,308
885.266968,325
885.383789,311
885.500671,317
885.617493,317
885.734314,325
885.851196,320
885.967896,331
886.084717,315
886.201599,331
886.318359,324
886.435181,313
886.552002,306
886.668762,306
886.785645,301
886.902344,318
887.019165,317
887.135925,311
887.252747,313
887.369446,299
887.486267,318
887.603027,319
887.719788,316
887.836548,322
887.953247,305
888.070068,312
888.186829,325
888.303528,306
888.420288,319
888.536987,319
888.653687,319
888.770447,330
888.887146,326
889.003967,314
889.120667,319
889.237305,330
889.354065,315
889.470703,329
889.587463,321
889.704163,318
889.820862,296
889.937561,318
890.054199,316
890.170837,311
890.287598,326
890.404236,315
890.520874,319
890.637634,308
890.754211,320
890.87085,315
890.987549,322
891.104187,322
891.220886,312
891.337463,316
891.454102,299
891.57074,329
891.687378,316
891.804077,325
891.920654,326
892.037231,322
892.15387,315
892.270447,312
892.387085,313
892.503723,316
892.6203,319
892.736877,321
892.853516,314
892.970032,317
893.08667,321
893.203186,320
893.319763,315
893.43634,316
893.552917,309
893.669556,316
893.786011,315
893.902588,325
894.019165,313
894.135681,321
894.252197,312
894.368835,326
894.485291,314
894.601868,334
894.718384,310
894.8349,309
894.951355,317
895.067932,322
895.184448,323
895.300964,325
895.417419,313
895.533936,330
895.650452,315
895.766907,315
895.883423,306
895.999878,326
896.116333,316
896.232849,324
896.349304,308
896.465759,326
896.582214,311
896.698669,308
896.815125,320
896.931641,324
897.048035,323
897.164551,312
897.280884,309
897.397339,322
897.513794,325
897.630249,319
897.746582,308
897.863098,315
897.979431,311
898.095886,323
898.212341,318
898.328674,316
898.445129,308
898.561462,315
898.677795,304
898.794312,317
898.910645,311
899.026978,322
899.143433,328
899.259766,325
899.37616,319
899.492493,310
899.608765,322
899.725159,314
899.841553,314
899.957947,320
900.07428,326
900.190552,317
900.306946,314
900.423157,318
900.53949,327
900.655884,321
900.772156,310
900.888489,324
901.004822,327
901.121033,317
901.237366,298
901.353699,324
901.46991,308
901.586304,318
901.702515,316
901.818787,321
901.93512,320
902.051331,317
902.167603,310
902.283875,318
902.400085,327
902.516418,321
902.632629,311
902.74884,332
902.865112,318
902.981384,318
903.097595,312
903.213867,321
903.330017,314
903.446289,321
903.5625,311
903.67865,318
903.794922,323
903.911072,321
904.027344,303
904.143494,315
904.259705,305
904.375916,326
904.492065,316
904.608215,330
904.724426,313
904.840576,326
904.956726,330
905.072876,313
905.189087,317
905.305176,314
905.421387,314
905.537537,309
905.653687,313
905.769775,317
905.885925,303
906.002014,311
906.118164,315
906.234314,323
906.350403,315
906.466492,324
906.582642,317
906.69873,327
906.814758,334
906.930908,314
907.046936,306
907.163086,332
907.279175,309
907.395264,336
907.511353,307
907.62738,328
907.743408,311
907.859497,307
907.975525,316
908.091553,331
908.207703,313
908.32373,323
908.439758,329
908.555786,334
908.671814,313
908.787842,320
908.90387,314
909.019775,309
909.135864,320
909.251892,323
909.367859,311
909.483826,308
909.599854,317
909.715881,318
909.831848,316
909.947815,319
910.063782,320
910.179749,324
910.295776,319
910.411743,319
910.527649,317
910.643616,325
910.759583,309
910.875488,329
910.991455,317
911.107361,313
911.223267,314
911.339294,339
911.4552,321
911.571106,315
911.687073,310
911.802979,323
911.918823,306
912.034729,327
912.150635,320
912.266602,317
912.382446,320
912.498352,311
912.614197,317
912.730103,328
912.846008,311
792.44574,314
792.56488,356
792.68396,394
792.80304,351
792.92218,339
793.041199,316
793.160339,311
793.279419,327
793.398499,322
793.517578,322
793.636658,307
793.755737,330
793.874817,348
793.993896,342
794.112976,325
794.232056,340
794.351074,332
794.470215,337
794.589233,327
794.708313,327
794.827393,310
794.946411,338
795.065552,342
795.18457,334
795.303589,335
795.422668,331
795.541687,327
795.660767,327
795.779846,329
795.898865,338
796.017883,325
796.136963,329
796.255981,340
796.375061,339
796.49408,327
796.613037,317
796.732117,324
796.851135,332
796.970154,329
797.089233,326
797.208191,324
797.327271,320
797.446228,338
797.565186,333
797.684265,317
797.803223,327
797.922241,327
798.04126,339
798.160278,335
798.279297,322
798.398315,328
798.517273,335
798.636292,337
798.75531,343
798.874268,323
798.993286,330
799.112244,315
799.231323,330
799.350281,339
799.469238,319
799.588257,325
799.707153,346
799.826111,327
799.945129,325
800.064087,321
800.183044,335
800.302063,329
800.421021,337
800.539978,325
800.658936,336
800.777893,341
800.896912,318
801.015747,330
801.134705,301
801.253723,324
801.37262,330
801.491638,337
801.610535,321
801.729492,343
801.84845,330
801.967407,321
802.086243,329
802.205261,331
802.324158,315
802.443115,329
802.562073,333
802.680969,332
802.799927,338
802.918762,341
803.037659,326
803.156677,341
803.275574,315
803.39447,336
803.513428,336
803.632263,324
803.751221,321
803.870117,321
803.989014,322
804.107971,331
804.226746,326
804.345642,311
804.4646,326
804.583496,330
804.702393,320
804.821228,320
804.940125,323
805.059021,327
805.177917,319
805.296814,338
805.415649,329
805.534546,331
805.653442,328
805.772278,331
805.891113,323
806.01001,328
806.128906,323
806.247742,328
806.366577,329
806.485413,318
806.604309,332
806.723145,331
806.84198,330
806.960876,343
807.079712,339
807.198486,328
807.317383,326
807.436218,330
807.554993,342
807.673889,329
807.792725,321
807.91156,326
808.030396,327
808.14917,313
808.268005,323
808.386841,330
808.505676,325
808.624451,329
808.743286,332
808.862122,334
808.980896,327
809.099731,330
809.218506,321
809.337341,326
809.456116,333
809.57489,324
809.693726,339
809.8125,318
809.931274,334
810.050049,337
810.168884,328
810.287659,338
810.406372,321
810.525269,340
810.643982,311
810.762756,333
810.881531,330
811.000305,343
811.11908,334
811.237854,355
811.356567,331
811.475403,330
811.594116,337
811.71283,325
811.831604,334
811.950378,332
812.069153,335
812.187927,323
812.30658,341
812.425415,317
812.544128,323
812.662781,322
812.781616,352
812.900269,327
813.019043,334
813.137756,334
813.256531,321
813.375244,329
813.493896,337
813.612671,326
813.731384,329
813.850037,327
813.96875,332
814.087524,328
814.206238,345
814.324951,328
814.443604,347
814.562256,332
814.68103,333
814.799683,330
814.918335,319
815.037109,335
815.155762,340
815.274475,327
815.393188,328
815.511841,339
815.630554,318
815.749146,317
815.867859,336
815.986572,353
816.105164,336
816.223877,330
816.342529,326
816.461182,328
816.579895,337
816.698486,320
816.817139,329
816.935791,331
817.054504,331
817.173096,334
817.291748,319
817.4104,337
817.529053,324
817.647644,338
817.766235,334
817.884949,327
818.00354,318
818.122192,333
818.240845,317
818.359436,318
818.478088,323
818.59668,321
818.715271,323
818.833923,316
818.952515,327
819.071106,318
819.189758,323
819.30835,314
819.426941,316
819.545532,322
819.664124,320
819.782715,326
819.901306,312
820.019897,324
820.138489,318
820.25708,311
820.375671,317
820.494202,314
820.612732,320
820.731384,317
820.849915,311
820.968506,315
821.087097,328
821.205627,325
821.324158,317
821.442749,336
821.561279,301
821.679871,325
821.798401,314
821.916931,326
822.035461,306
822.154053,320
822.272583,320
822.391174,307
822.509583,314
822.628174,324
822.746704,316
822.865234,318
822.983765,319
823.102295,308
823.220825,308
823.339294,313
823.457825,320
823.576355,329
823.694824,320
823.813354,315
823.931885,328
824.050354,322
824.168884,306
824.287354,305
824.405823,325
824.524353,319
824.642822,317
824.761353,319
824.879822,329
824.998291,328
825.116699,315
825.235291,313
825.353699,314
825.472168,322
825.590637,314
825.709106,317
825.827576,306
825.946045,334
826.064453,333
826.182983,313
826.301392,314
826.4198,337
826.53833,314
826.656738,321
826.775208,323
826.893677,328
827.012024,316
827.130493,327
827.248962,316
827.36731,328
827.485779,314
827.604248,321
827.722595,306
827.841064,311
827.959412,322
828.077942,312
828.196289,314
828.314636,322
828.433105,314
828.551514,309
828.669861,316
828.78833,312
828.906677,310
829.025085,308
829.143433,317
829.261841,327
829.38031,309
829.498657,326
829.617004,326
829.735413,300
829.85376,317
829.972107,309
830.090515,323
830.208862,336
830.327209,318
830.445557,319
830.563904,319
830.682312,316
830.800659,322
830.919006,314
831.037354,315
831.155701,303
831.274048,318
831.392395,316
831.51062,306
831.629028,314
831.747314,315
831.865662,311
831.984009,317
832.102356,319
832.220642,315
832.338928,317
832.457275,319
832.575623,314
832.693909,318
832.812134,322
832.930481,321
833.048828,319
833.167114,320
833.2854,317
833.403687,310
833.521973,317
833.640259,308
833.758545,314
833.876831,322
833.995056,323
834.113281,308
834.231628,325
834.349915,315
834.468201,308
834.586426,309
834.704651,323
834.822998,316
834.941162,318
835.059448,322
835.177673,321
835.295959,313
835.414246,310
835.53241,310
835.650635,314
835.768921,304
835.887146,313
836.005371,310
836.123596,323
836.241821,318
836.360046,317
836.478271,312
836.596497,328
836.714722,315
836.832886,324
836.95105,320
837.069336,317
837.1875,323
837.305725,325
837.423889,316
837.542053,319
837.660339,317
837.778503,316
837.896667,320
838.014832,290
838.132996,315
838.25116,318
838.369385,314
838.487488,320
838.605713,328
838.723877,328
838.84198,313
838.960205,319
839.078308,318
839.196472,328
839.314636,323
839.4328,319
839.550964,324
839.669067,324
839.787231,319
839.905396,317
840.023499,314
840.141602,317
840.259766,316
840.377869,329
840.495972,322
840.614136,336
840.732239,316
840.850342,317
840.968445,315
841.086548,329
841.204651,301
841.322754,325
841.440918,320
841.55896,319
841.677002,328
841.795166,313
841.913208,324
842.031311,318
842.149353,322
842.267456,310
842.385498,321
842.503601,322
842.621643,316
842.739746,327
842.857788,306
842.97583,312
843.093933,310
843.211975,316
843.330017,317
843.44812,313
843.566101,324
843.684204,329
843.802246,321
843.920227,306
844.038269,306
844.156311,312
844.274292,301
844.392395,322
844.510376,311
844.628357,321
844.74646,307
844.864441,314
844.982422,310
845.100403,318
845.218384,306
845.336426,313
845.454468,305
845.572449,320
845.69043,322
845.808411,318
845.926453,321
846.044373,306
846.162354,302
846.280396,331
846.398315,312
846.516296,327
846.634216,320
846.752197,308
846.870178,312
846.988098,330
847.106079,322
847.22406,313
847.34198,313
847.4599,319
847.577881,314
847.695801,335
847.813782,319
847.931641,324
848.049561,313
848.167603,319
848.285461,298
848.403381,329
848.521362,319
848.639221,317
848.75708,314
848.875,313
848.99292,317
849.110901,323
849.22876,316
849.34668,310
849.464539,320
849.582458,314
849.700317,327
849.818176,311
849.936096,315
850.053955,310
850.171875,317
850.289673,312
850.407593,322
850.525452,314
850.643311,306
850.761169,332
850.878967,317
850.996887,329
851.114746,325
851.232544,314
851.350403,315
851.468262,317
851.58606,317
851.703979,303
851.821777,305
851.939636,320
852.057434,315
852.175232,317
852.293091,311
852.410889,324
852.528687,308
852.646545,316
852.764343,314
852.88208,307
852.999939,299
853.117676,324
853.235535,310
853.353271,319
853.471069,314
853.588928,311
853.706604,311
853.824402,319
853.9422,323
854.059998,310
854.177734,315
854.295532,310
854.413269,305
854.531006,307
854.648804,316
854.766541,324
854.884277,309
855.002014,327
855.119751,316
855.237549,319
855.355225,307
855.473022,312
855.590698,316
855.708435,321
855.826172,306
855.943848,318
856.061646,304
856.179321,311
856.296997,315
856.414795,315
856.53241,318
856.650085,317
856.767822,313
856.885559,320
857.003174,326
857.120911,323
857.238586,319
857.356201,317
857.473938,321
857.591614,313
857.709351,303
857.826965,316
857.944641,324
858.062317,325
858.179993,314
858.297668,303
858.415283,313
858.532959,319
858.650574,311
858.768188,310
858.885803,306
859.003479,308
859.121094,310
859.23877,313
859.356384,321
859.473999,323
859.591675,319
859.709229,328
859.826843,310
859.944458,314
860.062012,307
860.179626,307
860.297302,308
860.414856,317
860.532471,303
860.650024,313
860.767639,309
860.885193,325
861.002808,321
861.120361,320
861.237976,320
861.35553,307
861.473022,316
861.590698,329
861.708191,311
861.825745,321
861.943298,313
862.060852,321
862.178406,322
862.295959,315
862.413513,322
862.531006,314
862.64856,308
862.766113,319
862.883667,303
863.00116,315
863.118713,329
863.236206,319
863.353699,310
863.471252,317
863.588745,320
863.706177,321
863.82373,323
863.941162,328
864.058716,333
864.176208,318
864.29364,332
864.411194,319
864.528687,330
864.646118,317
864.763611,315
864.881042,320
864.998535,317
865.116028,320
865.233459,319
865.350891,325
865.468384,316
865.585754,322
865.703308,314
865.820679,311
865.938171,310
866.055542,330
866.173035,315
866.290466,316
866.407837,313
866.52533,316
866.6427,311
866.760071,306
866.877563,326
866.994934,329
867.112305,300
867.229736,311
867.347107,322
867.464539,321
867.58197,323
867.699341,311
867.81665,322
867.934082,319
868.051453,309
868.168823,315
868.286194,298
868.403564,313
868.520935,315
868.638306,316
868.755676,309
868.872986,331
868.990295,323
869.107727,308
869.225037,322
869.342346,326
869.459717,324
869.577026,312
869.694336,319
869.811707,320
869.929016,319
870.046326,326
870.163635,329
870.280945,320
870.398254,320
870.515564,325
870.632812,312
870.750183,321
870.867432,315
870.984741,315
871.102051,311
871.219299,314
871.336609,307
871.453918,322
871.571106,318
871.688416,328
871.805664,299
871.922852,329
872.040222,306
872.157471,313
872.274719,307
872.391968,315
872.509155,316
872.626465,331
872.743652,303
872.860962,333
872.978149,310
873.095337,329
873.212646,319
873.329834,323
873.44696,316
873.564209,314
873.681396,322
873.798645,314
873.915894,310
874.03302,317
874.150208,306
874.267456,314
874.384583,315
874.501831,325
874.618958,309
874.736145,311
874.853333,314
874.970459,313
875.087646,323
875.204834,314
875.32196,316
875.439148,328
875.556274,312
875.673401,312
875.790527,304
875.907715,320
876.024841,309
876.141968,308
876.259094,320
876.376282,313
876.493347,315
876.610474,316
876.7276,317
876.844727,316
876.961853,323
877.078918,309
877.195984,307
877.313171,303
877.430237,312
877.547302,318
877.664368,325
877.781433,318
877.898499,308
878.015625,316
878.13269,309
878.249695,326
878.366821,309
878.483887,312
878.600952,318
878.717957,316
878.834961,316
878.952087,331
879.069092,314
879.186157,324
879.303162,307
879.420227,318
879.537231,318
879.654236,328
879.77124,323
879.888306,318
880.005249,315
880.122314,312
880.239319,317
880.356323,331
880.473328,311
880.590271,315
880.707275,319
880.824341,313
880.941284,308
881.058228,306
881.175232,328
881.292236,316
881.40918,314
881.526123,322
881.643066,310
881.760071,321
881.877014,316
881.993958,322
882.11084,316
882.227783,302
882.344727,323
882.46167,316
882.578613,319
882.695618,319
882.812439,299
882.929382,320
883.046326,317
883.163208,329
883.280151,316
883.397034,318
883.513916,330
883.630798,320
883.747742,321
883.864563,333
883.981506,318
884.098389,325
884.21521,315
884.332153,323
884.448975,323
884.565796,323
884.682678,318
884.7995,323
884.916443,302
885.033264,320
885.150085,323
885.266968,322
885.383789,326
885.500671,331
885.617493,308
885.734314,319
885.851196,326
885.967896,324
886.084717,327
886.201599,326
886.318359,310
886.435181,325
886.552002,313
886.668762,329
886.785645,315
886.902344,326
887.019165,308
887.135925,322
887.252747,317
887.369446,340
887.486267,314
887.603027,315
887.719788,308
887.836548,318
887.953247,315
888.070068,314
888.186829,310
888.303528,320
888.420288,336
888.536987,310
888.653687,314
888.770447,328
888.887146,312
889.003967,334
889.120667,304
889.237305,316
889.354065,307
889.470703,330
889.587463,318
889.704163,321
889.820862,312
889.937561,327
890.054199,323
890.170837,307
890.287598,323
890.404236,321
890.520874,315
890.637634,324
890.754211,323
890.87085,310
890.987549,319
891.104187,323
891.220886,322
891.337463,323
891.454102,307
891.57074,313
891.687378,312
891.804077,317
891.920654,308
892.037231,313
892.15387,318
892.270447,322
892.387085,316
892.503723,321
892.6203,312
892.736877,326
892.853516,319
892.970032,323
893.08667,322
893.203186,319
893.319763,311
893.43634,315
893.552917,317
893.669556,313
893.786011,321
893.902588,317
894.019165,323
894.135681,324
894.252197,318
894.368835,326
894.485291,307
894.601868,312
894.718384,325
894.8349,324
894.951355,309
895.067932,308
895.184448,314
895.300964,314
895.417419,313
895.533936,315
895.650452,297
895.766907,330
895.883423,329
895.999878,332
896.116333,297
896.232849,318
896.349304,305
896.465759,324
896.582214,326
896.698669,319
896.815125,317
896.931641,322
897.048035,305
897.164551,306
897.280884,300
897.397339,323
897.513794,320
897.630249,298
897.746582,320
897.863098,322
897.979431,311
898.095886,321
898.212341,312
898.328674,335
898.445129,317
898.561462,309
898.677795,321
898.794312,315
898.910645,334
899.026978,339
899.143433,315
899.259766,332
899.37616,322
899.492493,314
899.608765,322
899.725159,327
899.841553,296
899.957947,308
900.07428,323
900.190552,316
900.306946,308
900.423157,319
900.53949,317
900.655884,318
900.772156,319
900.888489,310
901.004822,319
901.121033,316
901.237366,326
901.353699,311
901.46991,312
901.586304,332
901.702515,308
901.818787,327
901.93512,308
902.051331,298
902.167603,321
902.283875,314
902.400085,321
902.516418,340
902.632629,298
902.74884,311
902.865112,315
902.981384,326
903.097595,317
903.213867,318
903.330017,302
903.446289,312
903.5625,318
903.67865,320
903.794922,327
903.911072,331
904.027344,309
904.143494,323
904.259705,323
904.375916,325
904.492065,305
904.608215,320
904.724426,322
904.840576,327
904.956726,315
905.072876,320
905.189087,311
905.305176,329
905.421387,315
905.537537,307
905.653687,325
905.769775,319
905.885925,316
906.002014,323
906.118164,311
906.234314,321
906.350403,316
906.466492,319
906.582642,313
906.69873,311
906.814758,319
906.930908,308
907.046936,310
907.163086,313
907.279175,324
907.395264,327
907.511353,317
907.62738,315
907.743408,319
907.859497,318
907.975525,326
908.091553,326
908.207703,310
908.32373,325
908.439758,308
908.555786,304
908.671814,313
908.787842,316
908.90387,323
909.019775,315
909.135864,317
909.251892,307
909.367859,325
909.483826,320
909.599854,312
909.715881,314
909.831848,312
909.947815,317
910.063782,311
910.179749,323
910.295776,314
910.411743,308
910.527649,316
910.643616,302
910.759583,308
910.875488,322
910.991455,306
911.107361,327
911.223267,317
911.339294,316
911.4552,316
911.571106,322
911.687073,327
911.802979,322
911.918823,301
912.034729,324
912.150635,326
912.266602,310
912.382446,320
912.498352,325
912.614197,329
912.730103,313
912.846008,308
792.44574,309
792.56488,343
792.68396,404
792.80304,378
792.92218,337
793.041199,315
793.160339,324
793.279419,345
793.398499,338
793.517578,325
793.636658,317
793.755737,331
793.874817,354
793.993896,338
794.112976,341
794.232056,328
794.351074,329
794.470215,327
794.589233,336
794.708313,334
794.827393,323
794.946411,324
795.065552,342
795.18457,334
795.303589,341
795.422668,324
795.541687,338
795.660767,320
795.779846,323
795.898865,325
796.017883,334
796.136963,328
796.255981,341
796.375061,334
796.49408,337
796.613037,308
796.732117,343
796.851135,322
796.970154,328
797.089233,330
797.208191,331
797.327271,333
797.446228,335
797.565186,330
797.684265,336
797.803223,330
797.922241,332
798.04126,346
798.160278,329
798.279297,325
798.398315,336
798.517273,327
798.636292,336
798.75531,329
798.874268,324
798.993286,322
799.112244,322
799.231323,321
799.350281,325
799.469238,320
799.588257,331
799.707153,339
799.826111,335
799.945129,326
800.064087,323
800.183044,340
800.302063,329
800.421021,330
800.539978,325
800.658936,323
800.777893,335
800.896912,342
801.015747,330
801.134705,323
801.253723,340
801.37262,330
801.491638,321
801.610535,344
801.729492,327
801.84845,331
801.967407,321
802.086243,323
802.205261,335
802.324158,320
802.443115,325
802.562073,324
802.680969,322
802.799927,337
802.918762,336
803.037659,331
803.156677,339
803.275574,319
803.39447,319
803.513428,334
803.632263,349
803.751221,320
803.870117,350
803.989014,328
804.107971,331
804.226746,341
804.345642,332
804.4646,317
804.583496,329
804.702393,332
804.821228,338
804.940125,320
805.059021,331
805.177917,326
805.296814,330
805.415649,323
805.534546,344
805.653442,331
805.772278,330
805.891113,325
806.01001,326
806.128906,329
806.247742,336
806.366577,329
806.485413,327
806.604309,330
806.723145,320
806.84198,332
806.960876,327
807.079712,343
807.198486,346
807.317383,318
807.436218,332
807.554993,307
807.673889,331
807.792725,333
807.91156,320
808.030396,315
808.14917,332
808.268005,317
808.386841,338
808.505676,330
808.624451,348
808.743286,323
808.862122,326
808.980896,334
809.099731,328
809.218506,318
809.337341,328
809.456116,334
809.57489,327
809.693726,322
809.8125,330
809.931274,329
810.050049,330
810.168884,326
810.287659,332
810.406372,337
810.525269,336
810.643982,329
810.762756,336
810.881531,332
811.000305,332
811.11908,314
811.237854,334
811.356567,330
811.475403,324
811.594116,322
811.71283,333
811.831604,333
811.950378,339
812.069153,329
812.187927,334
812.30658,328
812.425415,332
812.544128,328
812.662781,330
812.781616,318
812.900269,329
813.019043,330
813.137756,338
813.256531,313
813.375244,323
813.493896,326
813.612671,325
813.731384,324
813.850037,320
813.96875,330
814.087524,328
814.206238,325
814.324951,333
814.443604,336
814.562256,327
814.68103,327
814.799683,339
814.918335,339
815.037109,331
815.155762,318
815.274475,330
815.393188,326
815.511841,329
815.630554,339
815.749146,343
815.867859,315
815.986572,335
816.105164,321
816.223877,337
816.342529,324
816.461182,341
816.579895,330
816.698486,337
816.817139,335
816.935791,329
817.054504,324
817.173096,334
817.291748,338
817.4104,338
817.529053,330
817.647644,333
817.766235,335
817.884949,341
818.00354,322
818.122192,330
818.240845,325
818.359436,313
818.478088,309
818.59668,316
818.715271,316
818.833923,334
818.952515,326
819.071106,328
819.189758,329
819.30835,328
819.426941,328
819.545532,327
819.664124,312
819.782715,322
819.901306,309
820.019897,331
820.138489,328
820.25708,322
820.375671,318
820.494202,330
820.612732,324
820.731384,322
820.849915,315
820.968506,320
821.087097,315
821.205627,315
821.324158,322
821.442749,310
821.561279,315
821.679871,318
821.798401,322
821.916931,328
822.035461,328
822.154053,326
822.272583,330
822.391174,320
822.509583,327
822.628174,316
822.746704,308
822.865234,337
822.983765,315
823.102295,325
823.220825,326
823.339294,315
823.457825,319
823.576355,318
823.694824,315
823.813354,328
823.931885,310
824.050354,328
824.168884,305
824.287354,321
824.405823,310
824.524353,302
824.642822,327
824.761353,316
824.879822,323
824.998291,326
825.116699,320
825.235291,317
825.353699,319
825.472168,322
825.590637,323
825.709106,335
825.827576,298
825.946045,326
826.064453,316
826.182983,318
826.301392,321
826.4198,337
826.53833,320
826.656738,315
826.775208,311
826.893677,318
827.012024,324
827.130493,333
827.248962,311
827.36731,314
827.485779,326
827.604248,325
827.722595,318
827.841064,313
827.959412,319
828.077942,315
828.196289,310
828.314636,328
828.433105,302
828.551514,319
828.669861,320
828.78833,325
828.906677,326
829.025085,323
829.143433,320
829.261841,309
829.38031,303
829.498657,323
829.617004,316
829.735413,312
829.85376,309
829.972107,325
830.090515,314
830.208862,326
830.327209,320
830.445557,308
830.563904,311
830.682312,328
830.800659,316
830.919006,317
831.037354,316
831.155701,317
831.274048,323
831.392395,321
831.51062,302
831.629028,317
831.747314,310
831.865662,324
831.984009,315
832.102356,319
832.220642,306
832.338928,321
832.457275,319
832.575623,327
832.693909,325
832.812134,332
832.930481,316
833.048828,315
833.167114,328
833.2854,318
833.403687,322
833.521973,333
833.640259,316
833.758545,323
833.876831,320
833.995056,321
834.113281,300
834.231628,319
834.349915,327
834.468201,312
834.586426,324
834.704651,311
834.822998,309
834.941162,330
835.059448,301
835.177673,307
835.295959,320
835.414246,310
835.53241,325
835.650635,327
835.768921,312
835.887146,323
836.005371,316
836.123596,324
836.241821,307
836.360046,324
836.478271,313
836.596497,325
836.714722,335
836.832886,327
836.95105,314
837.069336,307
837.1875,314
837.305725,313
837.423889,312
837.542053,321
837.660339,306
837.778503,314
837.896667,324
838.014832,322
838.132996,317
838.25116,328
838.369385,319
838.487488,310
838.605713,306
838.723877,319
838.84198,306
838.960205,320
839.078308,315
839.196472,314
839.314636,318
839.4328,326
839.550964,312
839.669067,310
839.787231,314
839.905396,323
840.023499,320
840.141602,309
840.259766,314
840.377869,326
840.495972,308
840.614136,307
840.732239,325
840.850342,322
840.968445,307
841.086548,320
841.204651,307
841.322754,321
841.440918,317
841.55896,316
841.677002,318
841.795166,312
841.913208,311
842.031311,314
842.149353,316
842.267456,321
842.385498,320
842.503601,313
842.621643,317
842.739746,318
842.857788,317
842.97583,313
843.093933,300
843.211975,320
843.330017,304
843.44812,322
843.566101,307
843.684204,322
843.802246,310
843.920227,319
844.038269,312
844.156311,319
844.274292,310
844.392395,333
844.510376,307
844.628357,314
844.74646,323
844.864441,313
844.982422,314
845.100403,326
845.218384,313
845.336426,321
845.454468,314
845.572449,327
845.69043,313
845.808411,313
845.926453,321
846.044373,326
846.162354,315
846.280396,321
846.398315,308
846.516296,316
846.634216,314
846.752197,317
846.870178,308
846.988098,319
847.106079,315
847.22406,321
847.34198,300
847.4599,332
847.577881,322
847.695801,333
847.813782,306
847.931641,304
848.049561,314
848.167603,323
848.285461,302
848.403381,314
848.521362,306
848.639221,325
848.75708,313
848.875,316
848.99292,328
849.110901,315
849.22876,308
849.34668,319
849.464539,309
849.582458,331
849.700317,327
849.818176,317
849.936096,317
850.053955,304
850.171875,314
850.289673,309
850.407593,313
850.525452,321
850.643311,297
850.761169,323
850.878967,309
850.996887,311
851.114746,311
851.232544,316
851.350403,325
851.468262,315
851.58606,308
851.703979,309
851.821777,320
851.939636,322
852.057434,327
852.175232,315
852.293091,310
852.410889,315
852.528687,318
852.646545,326
852.764343,317
852.88208,325
852.999939,305
853.117676,322
853.235535,324
853.353271,314
853.471069,321
853.588928,316
853.706604,313
853.824402,301
853.9422,319
854.059998,317
854.177734,319
854.295532,314
854.413269,322
854.531006,320
854.648804,312
854.766541,317
854.884277,309
855.002014,314
855.119751,308
855.237549,321
855.355225,310
855.473022,320
855.590698,315
855.708435,309
855.826172,324
855.943848,320
856.061646,317
856.179321,303
856.296997,312
856.414795,319
856.53241,316
856.650085,320
856.767822,297
856.885559,319
857.003174,312
857.120911,314
857.238586,308
857.356201,304
857.473938,320
857.591614,313
857.709351,321
857.826965,319
857.944641,320
858.062317,323
858.179993,315
858.297668,311
858.415283,306
858.532959,311
858.650574,318
858.768188,323
858.885803,306
859.003479,315
859.121094,314
859.23877,325
859.356384,308
859.473999,317
859.591675,319
859.709229,321
859.826843,315
859.944458,310
860.062012,328
860.179626,345
860.297302,316
860.414856,327
860.532471,305
860.650024,308
860.767639,311
860.885193,316
861.002808,324
861.120361,325
861.237976,312
861.35553,310
861.473022,320
861.590698,320
861.708191,307
861.825745,318
861.943298,314
862.060852,327
862.178406,310
862.295959,310
862.413513,325
862.531006,318
862.64856,326
862.766113,311
862.883667,303
863.00116,307
863.118713,313
863.236206,331
863.353699,304
863.471252,325
863.588745,313
863.706177,312
863.82373,319
863.941162,319
864.058716,316
864.176208,304
864.29364,314
864.411194,332
864.528687,315
864.646118,320
864.763611,321
864.881042,313
864.998535,315
865.116028,315
865.233459,304
865.350891,326
865.468384,309
865.585754,316
865.703308,315
865.820679,309
865.938171,315
866.055542,319
866.173035,308
866.290466,327
866.407837,314
866.52533,328
866.6427,315
866.760071,312
866.877563,330
866.994934,318
867.112305,318
867.229736,304
867.347107,320
867.464539,317
867.58197,312
867.699341,332
867.81665,309
867.934082,322
868.051453,316
868.168823,313
868.286194,314
868.403564,325
868.520935,323
868.638306,320
868.755676,302
868.872986,322
868.990295,313
869.107727,325
869.225037,317
869.342346,301
869.459717,313
869.577026,322
869.694336,308
869.811707,316
869.929016,317
870.046326,328
870.163635,315
870.280945,328
870.398254,318
870.515564,307
870.632812,312
870.750183,314
870.867432,317
870.984741,314
871.102051,327
871.219299,316
871.336609,312
871.453918,331
871.571106,322
871.688416,312
871.805664,317
871.922852,309
872.040222,319
872.157471,315
872.274719,298
872.391968,322
872.509155,308
872.626465,324
872.743652,322
872.860962,317
872.978149,320
873.095337,312
873.212646,317
873.329834,311
873.44696,313
873.564209,308
873.681396,320
873.798645,322
873.915894,312
874.03302,318
874.150208,307
874.267456,304
874.384583,317
874.501831,323
874.618958,330
874.736145,317
874.853333,309
874.970459,321
875.087646,316
875.204834,310
875.32196,325
875.439148,323
875.556274,311
875.673401,323
875.790527,309
875.907715,332
876.024841,314
876.141968,308
876.259094,326
876.376282,306
876.493347,326
876.610474,320
876.7276,326
876.844727,319
876.961853,310
877.078918,329
877.195984,314
877.313171,326
877.430237,306
877.547302,311
877.664368,318
877.781433,324
877.898499,315
878.015625,328
878.13269,306
878.249695,303
878.366821,310
878.483887,322
878.600952,317
878.717957,329
878.834961,308
878.952087,316
879.069092,329
879.186157,319
879.303162,303
879.420227,314
879.537231,312
879.654236,327
879.77124,306
879.888306,303
880.005249,306
880.122314,318
880.239319,326
880.356323,338
880.473328,300
880.590271,309
880.707275,323
880.824341,323
880.941284,312
881.058228,315
881.175232,297
881.292236,313
881.40918,312
881.526123,322
881.643066,315
881.760071,315
881.877014,322
881.993958,327
882.11084,331
882.227783,324
882.344727,319
882.46167,313
882.578613,303
882.695618,319
882.812439,321
882.929382,319
883.046326,320
883.163208,322
883.280151,322
883.397034,309
883.513916,313
883.630798,326
883.747742,316
883.864563,309
883.981506,301
884.098389,325
884.21521,319
884.332153,334
884.448975,316
884.565796,314
884.682678,308
884.7995,313
884.916443,323
885.033264,319
885.150085,307
885.266968,317
885.383789,314
885.500671,321
885.617493,309
885.734314,330
885.851196,304
885.967896,323
886.084717,318
886.201599,315
886.318359,314
886.435181,329
886.552002,299
886.668762,327
886.785645,316
886.902344,327
887.019165,320
887.135925,319
887.252747,298
887.369446,314
887.486267,304
887.603027,315
887.719788,311
887.836548,320
887.953247,319
888.070068,306
888.186829,311
888.303528,326
888.420288,313
888.536987,323
888.653687,302
888.770447,323
888.887146,321
889.003967,327
889.120667,319
889.237305,322
889.354065,312
889.470703,324
889.587463,316
889.704163,326
889.820862,295
889.937561,321
890.054199,326
890.170837,323
890.287598,314
890.404236,316
890.520874,317
890.637634,314
890.754211,315
890.87085,324
890.987549,328
891.104187,317
891.220886,312
891.337463,321
891.454102,316
891.57074,305
891.687378,306
891.804077,313
891.920654,319
892.037231,317
892.15387,301
892.270447,314
892.387085,312
892.503723,323
892.6203,323
892.736877,321
892.853516,323
892.970032,321
893.08667,313
893.203186,322
893.319763,305
893.43634,323
893.552917,309
893.669556,328
893.786011,313
893.902588,315
894.019165,312
894.135681,318
894.252197,324
894.368835,325
894.485291,303
894.601868,324
894.718384,305
894.8349,316
894.951355,317
895.067932,312
895.184448,314
895.300964,320
895.417419,305
895.533936,322
895.650452,303
895.766907,316
895.883423,315
895.999878,318
896.116333,332
896.232849,320
896.349304,323
896.465759,328
896.582214,330
896.698669,329
896.815125,315
896.931641,320
897.048035,317
897.164551,320
897.280884,317
897.397339,316
897.513794,326
897.630249,319
897.746582,316
897.863098,319
897.979431,322
898.095886,319
898.212341,326
898.328674,306
898.445129,312
898.561462,331
898.677795,314
898.794312,316
898.910645,323
899.026978,337
899.143433,316
899.259766,323
899.37616,315
899.492493,325
899.608765,311
899.725159,307
899.841553,320
899.957947,326
900.07428,313
900.190552,326
900.306946,318
900.423157,324
900.53949,326
900.655884,320
900.772156,320
900.888489,312
901.004822,304
901.121033,320
901.237366,314
901.353699,320
901.46991,307
901.586304,326
901.702515,318
901.818787,325
901.93512,317
902.051331,325
902.167603,325
902.283875,320
902.400085,317
902.516418,323
902.632629,308
902.74884,318
902.865112,313
902.981384,315
903.097595,321
903.213867,321
903.330017,321
903.446289,315
903.5625,334
903.67865,317
903.794922,320
903.911072,337
904.027344,315
904.143494,318
904.259705,317
904.375916,321
904.492065,328
904.608215,318
904.724426,311
904.840576,338
904.956726,316
905.072876,318
905.189087,316
905.305176,323
905.421387,306
905.537537,324
905.653687,329
905.769775,317
905.885925,319
906.002014,310
906.118164,311
906.234314,333
906.350403,317
906.466492,309
906.582642,307
906.69873,311
906.814758,314
906.930908,319
907.046936,305
907.163086,316
907.279175,315
907.395264,330
907.511353,325
907.62738,312
907.743408,303
907.859497,319
907.975525,335
908.091553,318
908.207703,314
908.32373,332
908.439758,315
908.555786,320
908.671814,306
908.787842,315
908.90387,321
909.019775,313
909.135864,318
909.251892,308
909.367859,306
909.483826,326
909.599854,312
909.715881,322
909.831848,314
909.947815,308
910.063782,325
910.179749,314
910.295776,326
910.411743,321
910.527649,319
910.643616,324
910.759583,312
910.875488,330
910.991455,314
911.107361,317
911.223267,332
911.339294,317
911.4552,322
911.571106,322
911.687073,317
911.802979,304
911.918823,315
912.034729,328
912.150635,306
912.266602,328
912.382446,332
912.498352,331
912.614197,310
912.730103,310
912.846008,323
